TITLE,bsa 23 12-16-2020
DATA TYPE,
ORIGIN,JASCO
OWNER,
DATE,20/12/16
TIME,14:34:26
SPECTROMETER/DATA SYSTEM,
LOCALE,1033
RESOLUTION,
DELTAX,-0.1
XUNITS,NANOMETERS
YUNITS,CD [mdeg]
Y2UNITS,HT [V]
Y3UNITS,ABSORBANCE
FIRSTX,  370.0000
LASTX,  190.0000
NPOINTS,    1801
FIRSTY,     1.66549
MAXY,    48.57631
MINY,   -28.24213
XYDATA
370.0000,1.66549,256.296,0.777873
369.9000,1.67361,256.283,0.777715
369.8000,1.67008,256.274,0.777616
369.7000,1.67961,256.257,0.777406
369.6000,1.6678,256.242,0.777221
369.5000,1.6749,256.232,0.777108
369.4000,1.67052,256.213,0.776871
369.3000,1.67965,256.206,0.776786
369.2000,1.69006,256.192,0.776623
369.1000,1.67727,256.182,0.7765
369.0000,1.66898,256.168,0.776336
368.9000,1.67342,256.158,0.776214
368.8000,1.67271,256.148,0.776098
368.7000,1.65971,256.132,0.775903
368.6000,1.67283,256.127,0.775835
368.5000,1.67177,256.117,0.775724
368.4000,1.67618,256.111,0.775643
368.3000,1.6631,256.096,0.775469
368.2000,1.683,256.083,0.775313
368.1000,1.68605,256.078,0.775252
368.0000,1.68997,256.066,0.7751
367.9000,1.69736,256.055,0.774976
367.8000,1.69488,256.046,0.774865
367.7000,1.68008,256.035,0.77473
367.6000,1.67371,256.022,0.774568
367.5000,1.67779,256.013,0.774465
367.4000,1.68167,255.999,0.774294
367.3000,1.6853,255.991,0.774197
367.2000,1.68375,255.981,0.774076
367.1000,1.67591,255.969,0.773931
367.0000,1.67772,255.96,0.773828
366.9000,1.69542,255.952,0.773728
366.8000,1.70051,255.946,0.773657
366.7000,1.69792,255.938,0.77356
366.6000,1.70189,255.925,0.7734
366.5000,1.70143,255.909,0.773202
366.4000,1.70868,255.898,0.773081
366.3000,1.69249,255.886,0.772929
366.2000,1.70125,255.876,0.772813
366.1000,1.69428,255.871,0.772749
366.0000,1.6953,255.864,0.772659
365.9000,1.70273,255.849,0.772481
365.8000,1.69657,255.835,0.772319
365.7000,1.70489,255.823,0.772171
365.6000,1.70803,255.81,0.772013
365.5000,1.70473,255.801,0.771904
365.4000,1.70507,255.791,0.77178
365.3000,1.70868,255.788,0.77175
365.2000,1.70428,255.781,0.77166
365.1000,1.71253,255.771,0.77154
365.0000,1.7054,255.756,0.771357
364.9000,1.70735,255.743,0.771206
364.8000,1.69396,255.733,0.771089
364.7000,1.69815,255.724,0.770973
364.6000,1.6902,255.715,0.770861
364.5000,1.67554,255.707,0.770775
364.4000,1.68126,255.698,0.770663
364.3000,1.67109,255.692,0.770585
364.2000,1.67657,255.68,0.770437
364.1000,1.67885,255.67,0.770323
364.0000,1.68016,255.66,0.770203
363.9000,1.67882,255.653,0.770122
363.8000,1.68484,255.644,0.770012
363.7000,1.67409,255.635,0.769902
363.6000,1.6667,255.618,0.769689
363.5000,1.67006,255.607,0.769559
363.4000,1.67309,255.596,0.769423
363.3000,1.67906,255.587,0.769321
363.2000,1.67077,255.573,0.769146
363.1000,1.66797,255.573,0.769146
363.0000,1.68294,255.571,0.76913
362.9000,1.67934,255.556,0.768946
362.8000,1.67485,255.547,0.768835
362.7000,1.66525,255.532,0.768648
362.6000,1.65432,255.521,0.768523
362.5000,1.68084,255.51,0.768386
362.4000,1.70749,255.501,0.768285
362.3000,1.70377,255.492,0.768177
362.2000,1.69618,255.477,0.767986
362.1000,1.71457,255.47,0.767904
362.0000,1.71983,255.454,0.767711
361.9000,1.73236,255.441,0.767554
361.8000,1.73956,255.429,0.767404
361.7000,1.73936,255.425,0.767361
361.6000,1.73802,255.42,0.767298
361.5000,1.73611,255.403,0.76709
361.4000,1.71945,255.391,0.766954
361.3000,1.72105,255.379,0.766806
361.2000,1.73375,255.368,0.766676
361.1000,1.74887,255.358,0.766545
361.0000,1.75364,255.35,0.766459
360.9000,1.75115,255.339,0.766319
360.8000,1.74154,255.332,0.766238
360.7000,1.74073,255.322,0.766109
360.6000,1.73603,255.312,0.76599
360.5000,1.75168,255.304,0.765896
360.4000,1.74711,255.298,0.765819
360.3000,1.76111,255.288,0.765702
360.2000,1.76785,255.275,0.765551
360.1000,1.76491,255.267,0.765445
360.0000,1.76756,255.265,0.765423
359.9000,1.76791,255.257,0.765325
359.8000,1.76277,255.258,0.765346
359.7000,1.76902,255.242,0.765151
359.6000,1.76681,255.23,0.765007
359.5000,1.77662,255.213,0.764791
359.4000,1.78227,255.208,0.76474
359.3000,1.78763,255.199,0.764627
359.2000,1.79205,255.191,0.764528
359.1000,1.79031,255.184,0.764449
359.0000,1.80548,255.181,0.764411
358.9000,1.80291,255.176,0.764345
358.8000,1.80116,255.166,0.764229
358.7000,1.79517,255.16,0.76416
358.6000,1.7913,255.149,0.764018
358.5000,1.77631,255.14,0.763914
358.4000,1.77694,255.134,0.763844
358.3000,1.76743,255.125,0.763734
358.2000,1.77541,255.118,0.763644
358.1000,1.77483,255.11,0.763546
358.0000,1.76519,255.097,0.763394
357.9000,1.77532,255.094,0.76336
357.8000,1.77302,255.083,0.76322
357.7000,1.7756,255.073,0.763107
357.6000,1.77836,255.063,0.762981
357.5000,1.76724,255.051,0.762832
357.4000,1.75522,255.045,0.762762
357.3000,1.75961,255.036,0.762656
357.2000,1.76084,255.028,0.762563
357.1000,1.77368,255.019,0.762452
357.0000,1.78697,255.014,0.76239
356.9000,1.77867,255.011,0.762357
356.8000,1.78715,255.006,0.76229
356.7000,1.78469,255.001,0.762233
356.6000,1.80718,254.996,0.762167
356.5000,1.80555,254.986,0.762045
356.4000,1.7968,254.976,0.761924
356.3000,1.81196,254.973,0.761892
356.2000,1.82597,254.968,0.761832
356.1000,1.82571,254.965,0.761798
356.0000,1.84221,254.964,0.76178
355.9000,1.83654,254.957,0.761692
355.8000,1.81217,254.944,0.761546
355.7000,1.81543,254.933,0.761413
355.6000,1.80758,254.929,0.761355
355.5000,1.80155,254.923,0.761292
355.4000,1.78637,254.911,0.761142
355.3000,1.78995,254.9,0.761009
355.2000,1.78408,254.898,0.760979
355.1000,1.78623,254.889,0.760874
355.0000,1.78873,254.881,0.760783
354.9000,1.79059,254.885,0.760832
354.8000,1.80325,254.885,0.760827
354.7000,1.80627,254.882,0.760793
354.6000,1.80008,254.879,0.76075
354.5000,1.79058,254.871,0.760661
354.4000,1.80394,254.872,0.760667
354.3000,1.81735,254.866,0.760601
354.2000,1.82342,254.865,0.76058
354.1000,1.82003,254.855,0.760464
354.0000,1.81635,254.852,0.760423
353.9000,1.81344,254.853,0.760438
353.8000,1.80998,254.844,0.760332
353.7000,1.80506,254.831,0.760166
353.6000,1.80567,254.826,0.760111
353.5000,1.80928,254.827,0.760126
353.4000,1.81277,254.819,0.760025
353.3000,1.81338,254.813,0.759959
353.2000,1.81829,254.807,0.759886
353.1000,1.81851,254.798,0.759767
353.0000,1.82443,254.801,0.759808
352.9000,1.82644,254.795,0.759731
352.8000,1.81668,254.789,0.759667
352.7000,1.80827,254.783,0.759584
352.6000,1.80573,254.781,0.759568
352.5000,1.79895,254.778,0.759527
352.4000,1.79902,254.771,0.75945
352.3000,1.78537,254.764,0.759357
352.2000,1.79636,254.755,0.759253
352.1000,1.80574,254.752,0.759219
352.0000,1.81697,254.748,0.75916
351.9000,1.83829,254.743,0.759111
351.8000,1.83059,254.739,0.759052
351.7000,1.83513,254.731,0.758957
351.6000,1.84626,254.721,0.758839
351.5000,1.84628,254.719,0.758814
351.4000,1.84615,254.717,0.758786
351.3000,1.85741,254.711,0.758714
351.2000,1.85543,254.701,0.758593
351.1000,1.87103,254.703,0.758624
351.0000,1.87024,254.698,0.758558
350.9000,1.88237,254.692,0.758491
350.8000,1.87993,254.691,0.758475
350.7000,1.8775,254.683,0.758382
350.6000,1.87411,254.671,0.758237
350.5000,1.8822,254.662,0.758121
350.4000,1.86194,254.651,0.757989
350.3000,1.86679,254.647,0.757942
350.2000,1.88226,254.637,0.757823
350.1000,1.86996,254.631,0.757751
350.0000,1.87458,254.621,0.757626
349.9000,1.88156,254.611,0.757507
349.8000,1.88256,254.603,0.757403
349.7000,1.88645,254.597,0.757335
349.6000,1.88226,254.585,0.757193
349.5000,1.88564,254.571,0.757023
349.4000,1.88269,254.564,0.756939
349.3000,1.8801,254.557,0.756847
349.2000,1.86623,254.551,0.756776
349.1000,1.86054,254.542,0.756669
349.0000,1.86265,254.538,0.756623
348.9000,1.87351,254.534,0.75657
348.8000,1.8848,254.52,0.756407
348.7000,1.89794,254.517,0.756361
348.6000,1.88825,254.511,0.756299
348.5000,1.8774,254.508,0.756255
348.4000,1.88211,254.501,0.756168
348.3000,1.884,254.494,0.75609
348.2000,1.88478,254.483,0.755956
348.1000,1.886,254.466,0.755753
348.0000,1.88284,254.456,0.755623
347.9000,1.88748,254.448,0.755528
347.8000,1.89093,254.441,0.755439
347.7000,1.89381,254.43,0.755313
347.6000,1.88607,254.421,0.755205
347.5000,1.87933,254.413,0.755106
347.4000,1.88873,254.406,0.755021
347.3000,1.88738,254.396,0.754894
347.2000,1.89807,254.381,0.754714
347.1000,1.90701,254.373,0.754615
347.0000,1.90743,254.364,0.754507
346.9000,1.88199,254.349,0.754332
346.8000,1.88486,254.336,0.754167
346.7000,1.87513,254.327,0.754059
346.6000,1.87917,254.313,0.753891
346.5000,1.88287,254.305,0.7538
346.4000,1.88614,254.296,0.753691
346.3000,1.87112,254.289,0.753597
346.2000,1.87342,254.279,0.753479
346.1000,1.871,254.274,0.753422
346.0000,1.88679,254.267,0.753332
345.9000,1.87574,254.252,0.753146
345.8000,1.88807,254.244,0.75305
345.7000,1.88913,254.233,0.752918
345.6000,1.89204,254.222,0.752784
345.5000,1.89996,254.212,0.752665
345.4000,1.89269,254.198,0.752491
345.3000,1.90234,254.185,0.752343
345.2000,1.89359,254.176,0.752223
345.1000,1.8917,254.162,0.752065
345.0000,1.88963,254.155,0.751969
344.9000,1.88162,254.143,0.75183
344.8000,1.87308,254.137,0.751753
344.7000,1.87717,254.127,0.75163
344.6000,1.8773,254.118,0.751527
344.5000,1.87315,254.105,0.751369
344.4000,1.86576,254.089,0.751171
344.3000,1.87031,254.083,0.751094
344.2000,1.86483,254.069,0.750931
344.1000,1.87049,254.059,0.750809
344.0000,1.88387,254.049,0.750692
343.9000,1.89887,254.041,0.750586
343.8000,1.89693,254.032,0.75048
343.7000,1.90568,254.017,0.750303
343.6000,1.88669,254.004,0.750142
343.5000,1.88309,253.996,0.750048
343.4000,1.88283,253.98,0.749853
343.3000,1.88395,253.977,0.74981
343.2000,1.87574,253.966,0.749679
343.1000,1.88046,253.949,0.749474
343.0000,1.87156,253.941,0.749373
342.9000,1.87486,253.923,0.749162
342.8000,1.87125,253.911,0.749007
342.7000,1.87383,253.897,0.74884
342.6000,1.86526,253.889,0.748748
342.5000,1.87399,253.877,0.748592
342.4000,1.87066,253.862,0.748412
342.3000,1.87637,253.844,0.748191
342.2000,1.84886,253.832,0.748047
342.1000,1.8387,253.822,0.74793
342.0000,1.84471,253.812,0.747809
341.9000,1.85925,253.802,0.747682
341.8000,1.85826,253.784,0.747467
341.7000,1.85327,253.768,0.747278
341.6000,1.85593,253.753,0.747088
341.5000,1.85684,253.741,0.746941
341.4000,1.84551,253.729,0.746804
341.3000,1.83998,253.716,0.746642
341.2000,1.84329,253.704,0.746492
341.1000,1.83738,253.69,0.746323
341.0000,1.82903,253.679,0.746194
340.9000,1.83533,253.661,0.745973
340.8000,1.83924,253.642,0.745739
340.7000,1.83786,253.629,0.745579
340.6000,1.86127,253.616,0.745428
340.5000,1.85923,253.607,0.745315
340.4000,1.85136,253.6,0.745234
340.3000,1.86373,253.596,0.745178
340.2000,1.87041,253.586,0.745062
340.1000,1.86153,253.579,0.744972
340.0000,1.86999,253.564,0.744789
339.9000,1.85903,253.56,0.744746
339.8000,1.85079,253.543,0.744539
339.7000,1.86437,253.529,0.744367
339.6000,1.87687,253.511,0.744146
339.5000,1.8745,253.495,0.74395
339.4000,1.87964,253.481,0.743781
339.3000,1.88267,253.47,0.74365
339.2000,1.88686,253.455,0.743466
339.1000,1.88767,253.437,0.743245
339.0000,1.88443,253.428,0.743141
338.9000,1.88738,253.413,0.742951
338.8000,1.89088,253.405,0.742862
338.7000,1.88701,253.395,0.742734
338.6000,1.87852,253.381,0.742569
338.5000,1.8839,253.367,0.742398
338.4000,1.88875,253.359,0.7423
338.3000,1.89168,253.349,0.742177
338.2000,1.89657,253.34,0.742062
338.1000,1.88962,253.328,0.741918
338.0000,1.89098,253.313,0.741738
337.9000,1.88813,253.301,0.741591
337.8000,1.89938,253.296,0.74153
337.7000,1.89346,253.283,0.741369
337.6000,1.89813,253.268,0.741191
337.5000,1.89126,253.26,0.741093
337.4000,1.90152,253.251,0.740985
337.3000,1.89363,253.237,0.740815
337.2000,1.89237,253.223,0.740643
337.1000,1.89307,253.214,0.740532
337.0000,1.89515,253.208,0.740457
336.9000,1.89415,253.198,0.740334
336.8000,1.89384,253.187,0.740205
336.7000,1.89966,253.177,0.740081
336.6000,1.89734,253.166,0.739945
336.5000,1.88931,253.161,0.739882
336.4000,1.88594,253.148,0.739724
336.3000,1.87373,253.143,0.739672
336.2000,1.88444,253.136,0.739576
336.1000,1.87201,253.128,0.739486
336.0000,1.86865,253.117,0.739348
335.9000,1.87938,253.103,0.739185
335.8000,1.88277,253.1,0.739144
335.7000,1.869,253.097,0.739101
335.6000,1.87889,253.087,0.738986
335.5000,1.88883,253.078,0.738874
335.4000,1.87522,253.067,0.738742
335.3000,1.87641,253.055,0.738593
335.2000,1.88494,253.045,0.738475
335.1000,1.89167,253.034,0.738341
335.0000,1.89359,253.024,0.738215
334.9000,1.89034,253.016,0.738116
334.8000,1.90387,253.006,0.737996
334.7000,1.90098,252.991,0.737815
334.6000,1.88627,252.981,0.737691
334.5000,1.89994,252.969,0.737545
334.4000,1.8978,252.955,0.73738
334.3000,1.90913,252.95,0.737314
334.2000,1.90089,252.946,0.737271
334.1000,1.8956,252.939,0.737184
334.0000,1.89302,252.929,0.737065
333.9000,1.89299,252.919,0.736939
333.8000,1.88978,252.906,0.736783
333.7000,1.86744,252.889,0.736575
333.6000,1.87237,252.877,0.736426
333.5000,1.87658,252.863,0.736257
333.4000,1.87528,252.857,0.736186
333.3000,1.88799,252.841,0.73599
333.2000,1.8833,252.834,0.735904
333.1000,1.87908,252.826,0.735798
333.0000,1.86948,252.816,0.735683
332.9000,1.86112,252.809,0.735602
332.8000,1.85836,252.812,0.735634
332.7000,1.86424,252.801,0.735498
332.6000,1.86645,252.792,0.735388
332.5000,1.84737,252.787,0.735333
332.4000,1.84286,252.783,0.73528
332.3000,1.83932,252.776,0.735198
332.2000,1.83717,252.766,0.735069
332.1000,1.8329,252.756,0.73495
332.0000,1.83506,252.743,0.734797
331.9000,1.84004,252.735,0.73469
331.8000,1.83614,252.726,0.734583
331.7000,1.82092,252.718,0.734485
331.6000,1.81339,252.713,0.734425
331.5000,1.8165,252.698,0.734248
331.4000,1.80616,252.688,0.734119
331.3000,1.81547,252.682,0.734047
331.2000,1.81056,252.677,0.733983
331.1000,1.81786,252.669,0.733892
331.0000,1.82998,252.663,0.733821
330.9000,1.83809,252.654,0.733705
330.8000,1.84166,252.641,0.733544
330.7000,1.83687,252.626,0.733367
330.6000,1.84187,252.62,0.733288
330.5000,1.84994,252.612,0.733197
330.4000,1.85381,252.607,0.733128
330.3000,1.85182,252.594,0.732977
330.2000,1.84424,252.587,0.732883
330.1000,1.83931,252.578,0.732773
330.0000,1.85729,252.562,0.732587
329.9000,1.8701,252.551,0.73245
329.8000,1.8644,252.541,0.732324
329.7000,1.86297,252.534,0.732247
329.6000,1.86579,252.525,0.732126
329.5000,1.85095,252.513,0.731979
329.4000,1.86083,252.495,0.731759
329.3000,1.85919,252.484,0.731633
329.2000,1.85078,252.472,0.731488
329.1000,1.84275,252.465,0.731398
329.0000,1.84418,252.455,0.731271
328.9000,1.83826,252.442,0.731121
328.8000,1.84124,252.431,0.730989
328.7000,1.84143,252.419,0.730832
328.6000,1.82245,252.406,0.730677
328.5000,1.81766,252.399,0.730599
328.4000,1.81576,252.394,0.730533
328.3000,1.79779,252.382,0.73039
328.2000,1.80163,252.368,0.730219
328.1000,1.79905,252.358,0.730089
328.0000,1.80884,252.352,0.73002
327.9000,1.81312,252.342,0.729892
327.8000,1.79694,252.333,0.729786
327.7000,1.78595,252.323,0.729661
327.6000,1.7707,252.307,0.729468
327.5000,1.76857,252.296,0.72933
327.4000,1.76729,252.287,0.729223
327.3000,1.7575,252.277,0.7291
327.2000,1.74844,252.258,0.728877
327.1000,1.74385,252.243,0.728682
327.0000,1.75623,252.23,0.728526
326.9000,1.76394,252.213,0.728325
326.8000,1.76051,252.202,0.728189
326.7000,1.76163,252.189,0.728024
326.6000,1.76624,252.175,0.727862
326.5000,1.767,252.162,0.727695
326.4000,1.77128,252.146,0.7275
326.3000,1.76132,252.134,0.727359
326.2000,1.76429,252.118,0.727166
326.1000,1.74694,252.097,0.726902
326.0000,1.74478,252.085,0.726754
325.9000,1.72504,252.066,0.726525
325.8000,1.72528,252.052,0.726357
325.7000,1.72524,252.03,0.726087
325.6000,1.73081,252.022,0.725986
325.5000,1.73671,252.01,0.725846
325.4000,1.74488,251.998,0.72569
325.3000,1.75096,251.983,0.725514
325.2000,1.73409,251.973,0.725384
325.1000,1.7379,251.963,0.725266
325.0000,1.76104,251.942,0.725011
324.9000,1.76987,251.926,0.724815
324.8000,1.76502,251.914,0.724671
324.7000,1.77737,251.9,0.724493
324.6000,1.78463,251.892,0.724396
324.5000,1.78548,251.872,0.724158
324.4000,1.77851,251.86,0.724002
324.3000,1.77124,251.848,0.723862
324.2000,1.75824,251.838,0.723739
324.1000,1.75627,251.824,0.723562
324.0000,1.74203,251.814,0.72344
323.9000,1.72938,251.805,0.723335
323.8000,1.73654,251.794,0.723196
323.7000,1.73126,251.784,0.723071
323.6000,1.73865,251.771,0.722917
323.5000,1.73246,251.758,0.722757
323.4000,1.74017,251.742,0.722564
323.3000,1.74004,251.731,0.722424
323.2000,1.73651,251.72,0.722299
323.1000,1.73216,251.71,0.722169
323.0000,1.74394,251.7,0.722049
322.9000,1.7448,251.694,0.721972
322.8000,1.75007,251.684,0.72185
322.7000,1.74727,251.675,0.721744
322.6000,1.7501,251.666,0.72163
322.5000,1.75097,251.658,0.72154
322.4000,1.74666,251.648,0.721415
322.3000,1.75925,251.637,0.721275
322.2000,1.76727,251.625,0.721128
322.1000,1.77538,251.612,0.720972
322.0000,1.77568,251.603,0.720865
321.9000,1.78359,251.598,0.7208
321.8000,1.79159,251.591,0.720713
321.7000,1.78645,251.582,0.7206
321.6000,1.77088,251.565,0.720393
321.5000,1.78722,251.562,0.720355
321.4000,1.77256,251.555,0.720275
321.3000,1.78141,251.551,0.720228
321.2000,1.77901,251.538,0.720064
321.1000,1.78393,251.528,0.719946
321.0000,1.78932,251.517,0.719806
320.9000,1.80279,251.508,0.719698
320.8000,1.81611,251.504,0.719645
320.7000,1.82007,251.493,0.71951
320.6000,1.83663,251.479,0.71934
320.5000,1.8483,251.477,0.719315
320.4000,1.85717,251.467,0.719196
320.3000,1.86831,251.457,0.719071
320.2000,1.85722,251.453,0.719026
320.1000,1.8641,251.448,0.718966
320.0000,1.86605,251.44,0.718869
319.9000,1.85943,251.432,0.718767
319.8000,1.85503,251.427,0.718705
319.7000,1.84638,251.417,0.718587
319.6000,1.8463,251.412,0.718524
319.5000,1.83764,251.407,0.718457
319.4000,1.85111,251.4,0.718373
319.3000,1.86578,251.396,0.718324
319.2000,1.87452,251.395,0.718309
319.1000,1.87326,251.383,0.718164
319.0000,1.87286,251.378,0.7181
318.9000,1.86601,251.37,0.718011
318.8000,1.85238,251.362,0.717914
318.7000,1.83874,251.356,0.717834
318.6000,1.85048,251.349,0.717746
318.5000,1.84981,251.339,0.717623
318.4000,1.83967,251.329,0.717501
318.3000,1.82742,251.318,0.717376
318.2000,1.83174,251.312,0.717299
318.1000,1.82195,251.302,0.717173
318.0000,1.81412,251.299,0.717139
317.9000,1.80999,251.287,0.716995
317.8000,1.81451,251.285,0.716962
317.7000,1.81333,251.272,0.716803
317.6000,1.80807,251.255,0.716602
317.5000,1.80231,251.247,0.716495
317.4000,1.8117,251.24,0.716413
317.3000,1.8372,251.229,0.71628
317.2000,1.83317,251.225,0.716233
317.1000,1.82199,251.209,0.716033
317.0000,1.83644,251.198,0.7159
316.9000,1.81384,251.186,0.715753
316.8000,1.82139,251.176,0.71563
316.7000,1.82474,251.162,0.715463
316.6000,1.82199,251.15,0.715312
316.5000,1.80211,251.141,0.715203
316.4000,1.80031,251.127,0.715033
316.3000,1.78773,251.112,0.714846
316.2000,1.79477,251.094,0.71462
316.1000,1.79019,251.081,0.714464
316.0000,1.79654,251.069,0.714317
315.9000,1.8083,251.053,0.714119
315.8000,1.80692,251.038,0.713938
315.7000,1.8171,251.022,0.713735
315.6000,1.81032,251.012,0.713622
315.5000,1.80349,251.008,0.71357
315.4000,1.8095,250.996,0.713427
315.3000,1.80311,250.981,0.713242
315.2000,1.79998,250.965,0.713047
315.1000,1.80374,250.954,0.712907
315.0000,1.81147,250.947,0.712823
314.9000,1.82197,250.942,0.712753
314.8000,1.82729,250.92,0.712485
314.7000,1.84332,250.912,0.712397
314.6000,1.84553,250.899,0.712228
314.5000,1.84526,250.889,0.712115
314.4000,1.86218,250.878,0.71198
314.3000,1.84463,250.871,0.711885
314.2000,1.83585,250.865,0.711811
314.1000,1.82876,250.853,0.711665
314.0000,1.8367,250.843,0.711543
313.9000,1.83306,250.838,0.711484
313.8000,1.82265,250.832,0.711413
313.7000,1.82167,250.829,0.711372
313.6000,1.81864,250.825,0.711322
313.5000,1.811,250.813,0.711175
313.4000,1.80463,250.803,0.711058
313.3000,1.80378,250.801,0.711024
313.2000,1.81249,250.79,0.710893
313.1000,1.83308,250.782,0.710794
313.0000,1.8512,250.778,0.710745
312.9000,1.84741,250.775,0.710707
312.8000,1.84533,250.764,0.71058
312.7000,1.84299,250.761,0.710537
312.6000,1.84034,250.75,0.710401
312.5000,1.83432,250.735,0.710216
312.4000,1.83687,250.728,0.710127
312.3000,1.83359,250.723,0.71007
312.2000,1.84532,250.712,0.709933
312.1000,1.85312,250.7,0.709784
312.0000,1.85671,250.695,0.709722
311.9000,1.85109,250.683,0.709578
311.8000,1.85667,250.681,0.709552
311.7000,1.86352,250.672,0.70945
311.6000,1.86257,250.665,0.70936
311.5000,1.85197,250.654,0.709225
311.4000,1.86719,250.649,0.709159
311.3000,1.87637,250.641,0.709067
311.2000,1.86278,250.629,0.708917
311.1000,1.85508,250.62,0.708805
311.0000,1.86457,250.616,0.708763
310.9000,1.86592,250.609,0.70867
310.8000,1.86274,250.603,0.708594
310.7000,1.84224,250.597,0.70852
310.6000,1.84076,250.59,0.708434
310.5000,1.83656,250.581,0.70833
310.4000,1.83576,250.569,0.708177
310.3000,1.84283,250.556,0.708025
310.2000,1.84181,250.551,0.707961
310.1000,1.83205,250.542,0.707847
310.0000,1.84363,250.533,0.70774
309.9000,1.85463,250.52,0.707582
309.8000,1.85275,250.517,0.707537
309.7000,1.84555,250.507,0.707413
309.6000,1.83213,250.502,0.707356
309.5000,1.8392,250.494,0.707257
309.4000,1.84012,250.488,0.707182
309.3000,1.83351,250.484,0.707139
309.2000,1.82089,250.484,0.707136
309.1000,1.81211,250.482,0.707105
309.0000,1.8001,250.472,0.706989
308.9000,1.81112,250.465,0.706901
308.8000,1.79668,250.453,0.706759
308.7000,1.80206,250.444,0.706641
308.6000,1.80315,250.432,0.706499
308.5000,1.79062,250.42,0.706348
308.4000,1.7868,250.408,0.706199
308.3000,1.78624,250.399,0.706091
308.2000,1.77921,250.391,0.705991
308.1000,1.78267,250.376,0.70581
308.0000,1.76992,250.362,0.705638
307.9000,1.76286,250.351,0.705499
307.8000,1.75318,250.335,0.705299
307.7000,1.76074,250.318,0.705098
307.6000,1.74985,250.307,0.704954
307.5000,1.75092,250.297,0.704835
307.4000,1.74415,250.286,0.704701
307.3000,1.74344,250.269,0.70449
307.2000,1.74494,250.254,0.70431
307.1000,1.74555,250.238,0.704117
307.0000,1.75374,250.213,0.703807
306.9000,1.74562,250.198,0.703617
306.8000,1.75249,250.183,0.70343
306.7000,1.74422,250.167,0.703241
306.6000,1.73883,250.155,0.703092
306.5000,1.72387,250.143,0.702947
306.4000,1.71648,250.128,0.702764
306.3000,1.72794,250.112,0.702567
306.2000,1.73011,250.098,0.702386
306.1000,1.72556,250.084,0.702215
306.0000,1.7255,250.072,0.70207
305.9000,1.72829,250.065,0.701979
305.8000,1.71938,250.052,0.701825
305.7000,1.73364,250.04,0.701678
305.6000,1.73163,250.025,0.701487
305.5000,1.74185,250.011,0.701313
305.4000,1.73645,249.995,0.701116
305.3000,1.7463,249.982,0.700964
305.2000,1.73477,249.969,0.700802
305.1000,1.72806,249.959,0.70068
305.0000,1.73218,249.942,0.700471
304.9000,1.74375,249.935,0.700379
304.8000,1.74479,249.929,0.700312
304.7000,1.73125,249.917,0.700167
304.6000,1.7298,249.909,0.700066
304.5000,1.73568,249.9,0.699948
304.4000,1.74805,249.884,0.699751
304.3000,1.74328,249.865,0.699526
304.2000,1.73828,249.85,0.699335
304.1000,1.75147,249.835,0.699155
304.0000,1.75153,249.813,0.698886
303.9000,1.74719,249.806,0.698789
303.8000,1.74204,249.794,0.698651
303.7000,1.72863,249.786,0.698543
303.6000,1.73799,249.771,0.698361
303.5000,1.74194,249.759,0.698212
303.4000,1.72499,249.747,0.698074
303.3000,1.72436,249.736,0.697938
303.2000,1.71845,249.726,0.697805
303.1000,1.72687,249.716,0.69769
303.0000,1.74238,249.709,0.697603
302.9000,1.73558,249.695,0.697422
302.8000,1.72448,249.685,0.697304
302.7000,1.73797,249.675,0.697184
302.6000,1.74029,249.648,0.696849
302.5000,1.75401,249.634,0.696674
302.4000,1.7722,249.62,0.696504
302.3000,1.79831,249.605,0.696314
302.2000,1.78808,249.587,0.696095
302.1000,1.79224,249.571,0.695899
302.0000,1.78185,249.559,0.695745
301.9000,1.78107,249.551,0.695648
301.8000,1.78355,249.538,0.695497
301.7000,1.79393,249.533,0.695429
301.6000,1.79684,249.517,0.695231
301.5000,1.78336,249.501,0.695035
301.4000,1.77195,249.487,0.694868
301.3000,1.78472,249.476,0.694734
301.2000,1.77936,249.463,0.694573
301.1000,1.78165,249.452,0.694429
301.0000,1.78844,249.445,0.694347
300.9000,1.80554,249.429,0.694151
300.8000,1.81048,249.417,0.694
300.7000,1.80505,249.398,0.693765
300.6000,1.79774,249.389,0.693661
300.5000,1.79992,249.375,0.693488
300.4000,1.80393,249.364,0.693352
300.3000,1.79019,249.351,0.693192
300.2000,1.79866,249.34,0.693051
300.1000,1.79567,249.328,0.692909
300.0000,1.78618,249.313,0.692723
299.9000,1.77639,249.299,0.692541
299.8000,1.78212,249.281,0.692321
299.7000,1.78265,249.27,0.692184
299.6000,1.78989,249.259,0.692047
299.5000,1.77821,249.247,0.691903
299.4000,1.78066,249.234,0.691749
299.3000,1.77318,249.222,0.691599
299.2000,1.77162,249.205,0.691387
299.1000,1.78237,249.196,0.691279
299.0000,1.79227,249.181,0.691092
298.9000,1.77931,249.178,0.691049
298.8000,1.78393,249.168,0.690932
298.7000,1.78468,249.154,0.690751
298.6000,1.77662,249.14,0.690579
298.5000,1.7885,249.123,0.690378
298.4000,1.80827,249.109,0.690199
298.3000,1.79695,249.093,0.690005
298.2000,1.78577,249.078,0.689817
298.1000,1.78023,249.058,0.689572
298.0000,1.7939,249.037,0.689311
297.9000,1.79103,249.016,0.689053
297.8000,1.78337,249.003,0.688897
297.7000,1.77803,248.991,0.688749
297.6000,1.77108,248.982,0.688633
297.5000,1.77427,248.97,0.688484
297.4000,1.76829,248.961,0.688373
297.3000,1.77507,248.947,0.688206
297.2000,1.77628,248.932,0.688014
297.1000,1.77231,248.921,0.687877
297.0000,1.78579,248.908,0.687716
296.9000,1.78014,248.89,0.687493
296.8000,1.76982,248.881,0.68738
296.7000,1.78777,248.864,0.68718
296.6000,1.78919,248.847,0.686969
296.5000,1.78565,248.834,0.6868
296.4000,1.80001,248.818,0.686607
296.3000,1.79547,248.803,0.686422
296.2000,1.78529,248.793,0.686293
296.1000,1.78808,248.78,0.686141
296.0000,1.78696,248.762,0.685919
295.9000,1.77466,248.754,0.685817
295.8000,1.77053,248.738,0.685622
295.7000,1.77001,248.721,0.685411
295.6000,1.75284,248.707,0.685235
295.5000,1.74696,248.69,0.685028
295.4000,1.7418,248.672,0.684799
295.3000,1.74381,248.66,0.684657
295.2000,1.75232,248.646,0.684478
295.1000,1.74871,248.626,0.684234
295.0000,1.74201,248.605,0.68397
294.9000,1.73923,248.582,0.683685
294.8000,1.74036,248.564,0.683462
294.7000,1.75141,248.549,0.68328
294.6000,1.74636,248.526,0.682998
294.5000,1.74675,248.502,0.682705
294.4000,1.75477,248.482,0.682453
294.3000,1.7475,248.456,0.682132
294.2000,1.7384,248.438,0.681904
294.1000,1.73549,248.416,0.681633
294.0000,1.74694,248.404,0.681486
293.9000,1.75422,248.388,0.681288
293.8000,1.74705,248.375,0.681132
293.7000,1.73982,248.363,0.680981
293.6000,1.74421,248.352,0.680844
293.5000,1.72715,248.335,0.680636
293.4000,1.73323,248.322,0.68047
293.3000,1.74737,248.311,0.68034
293.2000,1.75348,248.298,0.680182
293.1000,1.74879,248.292,0.680097
293.0000,1.74517,248.279,0.679936
292.9000,1.73309,248.268,0.679807
292.8000,1.74812,248.257,0.679667
292.7000,1.75106,248.244,0.679502
292.6000,1.75458,248.231,0.679351
292.5000,1.75041,248.222,0.67923
292.4000,1.75061,248.209,0.67908
292.3000,1.74238,248.199,0.678948
292.2000,1.74775,248.186,0.678789
292.1000,1.74393,248.175,0.678654
292.0000,1.74347,248.166,0.678539
291.9000,1.741,248.152,0.678371
291.8000,1.73035,248.142,0.678249
291.7000,1.70882,248.134,0.678147
291.6000,1.70862,248.124,0.678023
291.5000,1.72015,248.112,0.677877
291.4000,1.73331,248.105,0.677787
291.3000,1.72303,248.1,0.677725
291.2000,1.72547,248.093,0.677633
291.1000,1.71895,248.079,0.677458
291.0000,1.73319,248.067,0.677312
290.9000,1.74132,248.058,0.67721
290.8000,1.74567,248.05,0.6771
290.7000,1.75014,248.04,0.676976
290.6000,1.76077,248.035,0.676913
290.5000,1.77498,248.028,0.676828
290.4000,1.776,248.021,0.676747
290.3000,1.78181,248.013,0.676641
290.2000,1.78721,248.003,0.676517
290.1000,1.7865,247.993,0.676404
290.0000,1.78179,247.985,0.676304
289.9000,1.77709,247.981,0.676245
289.8000,1.77781,247.97,0.676112
289.7000,1.75972,247.963,0.676022
289.6000,1.74985,247.949,0.675848
289.5000,1.75438,247.942,0.675762
289.4000,1.74012,247.931,0.675632
289.3000,1.73777,247.925,0.675556
289.2000,1.73707,247.92,0.675499
289.1000,1.74885,247.917,0.675457
289.0000,1.74817,247.913,0.675412
288.9000,1.74507,247.908,0.675342
288.8000,1.75733,247.903,0.67528
288.7000,1.75788,247.901,0.675259
288.6000,1.75283,247.902,0.675271
288.5000,1.75516,247.896,0.675196
288.4000,1.74805,247.898,0.67522
288.3000,1.74146,247.907,0.675331
288.2000,1.73419,247.905,0.675309
288.1000,1.72938,247.9,0.67524
288.0000,1.72816,247.899,0.675231
287.9000,1.7167,247.9,0.675247
287.8000,1.71196,247.902,0.675276
287.7000,1.7126,247.902,0.675269
287.6000,1.70406,247.901,0.675255
287.5000,1.69437,247.901,0.675263
287.4000,1.69584,247.899,0.67523
287.3000,1.69626,247.89,0.675127
287.2000,1.70249,247.874,0.674927
287.1000,1.70415,247.863,0.674783
287.0000,1.71044,247.858,0.674729
286.9000,1.72295,247.856,0.674704
286.8000,1.72007,247.854,0.674682
286.7000,1.72845,247.85,0.674623
286.6000,1.71764,247.845,0.674567
286.5000,1.71399,247.837,0.674464
286.4000,1.72381,247.83,0.674376
286.3000,1.7237,247.816,0.674204
286.2000,1.72287,247.804,0.674051
286.1000,1.71664,247.793,0.673919
286.0000,1.71208,247.777,0.673716
285.9000,1.72012,247.77,0.673631
285.8000,1.71569,247.757,0.673476
285.7000,1.71707,247.745,0.673329
285.6000,1.72153,247.736,0.673213
285.5000,1.70952,247.729,0.673124
285.4000,1.70837,247.724,0.673065
285.3000,1.70598,247.718,0.672993
285.2000,1.69312,247.711,0.672906
285.1000,1.70859,247.702,0.672786
285.0000,1.71395,247.692,0.672663
284.9000,1.69225,247.686,0.672587
284.8000,1.68675,247.675,0.672462
284.7000,1.67871,247.667,0.672353
284.6000,1.67998,247.659,0.672254
284.5000,1.6764,247.651,0.672157
284.4000,1.65385,247.641,0.672033
284.3000,1.64378,247.629,0.671881
284.2000,1.64337,247.613,0.671692
284.1000,1.63144,247.602,0.671547
284.0000,1.62581,247.591,0.671419
283.9000,1.62837,247.577,0.67124
283.8000,1.62371,247.562,0.671059
283.7000,1.62206,247.554,0.670956
283.6000,1.61426,247.55,0.670911
283.5000,1.6032,247.538,0.670753
283.4000,1.60053,247.523,0.670576
283.3000,1.59994,247.512,0.670437
283.2000,1.60378,247.505,0.670353
283.1000,1.60982,247.495,0.670229
283.0000,1.61149,247.483,0.670072
282.9000,1.61432,247.467,0.669878
282.8000,1.61908,247.456,0.669735
282.7000,1.61887,247.443,0.669578
282.6000,1.61863,247.432,0.669437
282.5000,1.60823,247.417,0.669252
282.4000,1.5995,247.403,0.669079
282.3000,1.6023,247.391,0.668936
282.2000,1.59994,247.38,0.668791
282.1000,1.59789,247.367,0.668638
282.0000,1.59195,247.35,0.668429
281.9000,1.59681,247.338,0.668275
281.8000,1.61164,247.324,0.668094
281.7000,1.61712,247.304,0.667858
281.6000,1.6167,247.285,0.66762
281.5000,1.61413,247.275,0.667489
281.4000,1.61052,247.266,0.667384
281.3000,1.61776,247.255,0.66724
281.2000,1.62107,247.24,0.667055
281.1000,1.62309,247.228,0.666913
281.0000,1.61823,247.217,0.666778
280.9000,1.61878,247.2,0.666556
280.8000,1.61251,247.186,0.666387
280.7000,1.60379,247.18,0.666312
280.6000,1.59105,247.172,0.666218
280.5000,1.58459,247.169,0.666182
280.4000,1.57878,247.158,0.666039
280.3000,1.5792,247.144,0.665864
280.2000,1.58166,247.133,0.665729
280.1000,1.56359,247.12,0.665564
280.0000,1.55696,247.107,0.665407
279.9000,1.542,247.091,0.665208
279.8000,1.53158,247.081,0.665084
279.7000,1.51514,247.068,0.664925
279.6000,1.50337,247.054,0.664751
279.5000,1.51429,247.045,0.664634
279.4000,1.51118,247.035,0.664508
279.3000,1.50595,247.018,0.664295
279.2000,1.50481,247.007,0.66416
279.1000,1.49562,246.993,0.663982
279.0000,1.48097,246.978,0.663805
278.9000,1.47226,246.968,0.663679
278.8000,1.47847,246.951,0.663463
278.7000,1.47573,246.939,0.663322
278.6000,1.48195,246.927,0.663165
278.5000,1.48333,246.91,0.66295
278.4000,1.47976,246.895,0.662771
278.3000,1.4749,246.883,0.662619
278.2000,1.46908,246.868,0.662428
278.1000,1.46856,246.851,0.662226
278.0000,1.46494,246.834,0.66201
277.9000,1.46097,246.826,0.661908
277.8000,1.46113,246.814,0.661758
277.7000,1.45117,246.802,0.661611
277.6000,1.45365,246.79,0.661465
277.5000,1.43418,246.776,0.661285
277.4000,1.42812,246.76,0.661093
277.3000,1.42313,246.745,0.660901
277.2000,1.40756,246.733,0.660759
277.1000,1.40463,246.719,0.660584
277.0000,1.40504,246.702,0.660369
276.9000,1.40998,246.687,0.660182
276.8000,1.41789,246.678,0.660074
276.7000,1.41991,246.661,0.659854
276.6000,1.41289,246.645,0.659654
276.5000,1.41687,246.628,0.659454
276.4000,1.41185,246.614,0.659274
276.3000,1.41434,246.605,0.65916
276.2000,1.40741,246.591,0.658989
276.1000,1.39787,246.578,0.658821
276.0000,1.39194,246.563,0.65864
275.9000,1.39452,246.547,0.658437
275.8000,1.38274,246.535,0.65829
275.7000,1.38729,246.526,0.658176
275.6000,1.37332,246.516,0.658054
275.5000,1.37115,246.501,0.657872
275.4000,1.35204,246.491,0.657737
275.3000,1.35646,246.476,0.65755
275.2000,1.34924,246.461,0.65737
275.1000,1.32959,246.451,0.657244
275.0000,1.31906,246.436,0.657056
274.9000,1.31807,246.421,0.656874
274.8000,1.32048,246.402,0.656631
274.7000,1.32639,246.385,0.656422
274.6000,1.32737,246.375,0.656299
274.5000,1.31335,246.361,0.656126
274.4000,1.31072,246.347,0.655943
274.3000,1.30442,246.329,0.65572
274.2000,1.30376,246.317,0.655574
274.1000,1.29499,246.303,0.6554
274.0000,1.30282,246.287,0.655197
273.9000,1.30901,246.271,0.655006
273.8000,1.30899,246.258,0.654844
273.7000,1.31097,246.244,0.654665
273.6000,1.30869,246.231,0.654505
273.5000,1.29102,246.217,0.654324
273.4000,1.28207,246.203,0.654157
273.3000,1.29395,246.186,0.653939
273.2000,1.30344,246.175,0.653809
273.1000,1.3213,246.166,0.653695
273.0000,1.32724,246.153,0.653531
272.9000,1.34173,246.14,0.653373
272.8000,1.32268,246.123,0.65316
272.7000,1.31981,246.12,0.653125
272.6000,1.31903,246.111,0.653011
272.5000,1.3109,246.1,0.652871
272.4000,1.29527,246.091,0.65276
272.3000,1.30065,246.079,0.652609
272.2000,1.29388,246.071,0.652505
272.1000,1.27328,246.055,0.652307
272.0000,1.26897,246.035,0.652059
271.9000,1.27672,246.027,0.651964
271.8000,1.27188,246.021,0.651887
271.7000,1.27179,246.007,0.651712
271.6000,1.27242,245.995,0.65156
271.5000,1.27529,245.985,0.65143
271.4000,1.27259,245.98,0.651372
271.3000,1.27987,245.974,0.6513
271.2000,1.28224,245.963,0.651155
271.1000,1.29373,245.952,0.65102
271.0000,1.30282,245.941,0.650887
270.9000,1.29602,245.933,0.65079
270.8000,1.321,245.927,0.650717
270.7000,1.31946,245.923,0.650666
270.6000,1.30474,245.911,0.650518
270.5000,1.31249,245.906,0.650448
270.4000,1.30667,245.896,0.650328
270.3000,1.30136,245.888,0.650228
270.2000,1.29714,245.879,0.650117
270.1000,1.28627,245.867,0.649969
270.0000,1.2745,245.867,0.649969
269.9000,1.26429,245.863,0.649912
269.8000,1.25086,245.86,0.649881
269.7000,1.24671,245.854,0.649806
269.6000,1.23932,245.85,0.649747
269.5000,1.24416,245.847,0.64971
269.4000,1.25098,245.844,0.649676
269.3000,1.2468,245.845,0.649685
269.2000,1.24678,245.839,0.649618
269.1000,1.24009,245.835,0.64957
269.0000,1.23949,245.83,0.649501
268.9000,1.23047,245.823,0.64941
268.8000,1.22818,245.817,0.649336
268.7000,1.23064,245.813,0.649291
268.6000,1.21595,245.808,0.649233
268.5000,1.22028,245.809,0.649237
268.4000,1.22101,245.807,0.649217
268.3000,1.2165,245.806,0.649198
268.2000,1.22439,245.806,0.649201
268.1000,1.21526,245.813,0.649288
268.0000,1.21211,245.813,0.649291
267.9000,1.20986,245.81,0.649257
267.8000,1.21034,245.808,0.649232
267.7000,1.20127,245.809,0.649241
267.6000,1.19863,245.814,0.649306
267.5000,1.19744,245.82,0.649375
267.4000,1.19021,245.816,0.649331
267.3000,1.1877,245.819,0.649368
267.2000,1.16883,245.823,0.649412
267.1000,1.15973,245.826,0.649448
267.0000,1.15889,245.82,0.649375
266.9000,1.15994,245.819,0.649364
266.8000,1.16208,245.822,0.649404
266.7000,1.16803,245.823,0.649415
266.6000,1.16431,245.825,0.649444
266.5000,1.15069,245.821,0.649395
266.4000,1.13889,245.822,0.649404
266.3000,1.13806,245.827,0.649464
266.2000,1.14779,245.831,0.649515
266.1000,1.14724,245.827,0.649467
266.0000,1.14816,245.826,0.64945
265.9000,1.15527,245.833,0.649538
265.8000,1.17837,245.833,0.649544
265.7000,1.17821,245.833,0.649539
265.6000,1.18081,245.834,0.649558
265.5000,1.19679,245.843,0.649664
265.4000,1.20406,245.855,0.649815
265.3000,1.19285,245.855,0.649813
265.2000,1.18323,245.854,0.649797
265.1000,1.18744,245.857,0.649841
265.0000,1.18312,245.859,0.64987
264.9000,1.18175,245.86,0.649878
264.8000,1.18039,245.864,0.649929
264.7000,1.17417,245.864,0.649921
264.6000,1.17639,245.867,0.649965
264.5000,1.17381,245.876,0.650073
264.4000,1.16795,245.881,0.650133
264.3000,1.17567,245.879,0.650118
264.2000,1.17612,245.879,0.650107
264.1000,1.16575,245.879,0.650108
264.0000,1.16686,245.884,0.65018
263.9000,1.15976,245.887,0.65021
263.8000,1.16644,245.891,0.650269
263.7000,1.16844,245.898,0.650348
263.6000,1.15974,245.903,0.650409
263.5000,1.16612,245.913,0.650541
263.4000,1.16599,245.92,0.650623
263.3000,1.16569,245.924,0.650677
263.2000,1.16507,245.933,0.650788
263.1000,1.17082,245.94,0.650876
263.0000,1.18029,245.949,0.650989
262.9000,1.18357,245.955,0.651063
262.8000,1.18261,245.962,0.651143
262.7000,1.18689,245.967,0.651207
262.6000,1.17813,245.968,0.651227
262.5000,1.18691,245.973,0.651292
262.4000,1.18608,245.979,0.651356
262.3000,1.18571,245.986,0.651447
262.2000,1.18732,245.998,0.651596
262.1000,1.18542,246.003,0.651655
262.0000,1.18686,246.007,0.651707
261.9000,1.18891,246.015,0.651812
261.8000,1.19537,246.025,0.651932
261.7000,1.20272,246.037,0.652084
261.6000,1.19899,246.044,0.652176
261.5000,1.19745,246.05,0.652249
261.4000,1.20316,246.059,0.65236
261.3000,1.20865,246.071,0.652507
261.2000,1.20479,246.081,0.652634
261.1000,1.19807,246.089,0.652732
261.0000,1.20047,246.095,0.65281
260.9000,1.20044,246.105,0.652938
260.8000,1.19738,246.12,0.653117
260.7000,1.18021,246.126,0.653194
260.6000,1.19027,246.135,0.653302
260.5000,1.20333,246.143,0.653411
260.4000,1.1854,246.156,0.653574
260.3000,1.19208,246.163,0.653649
260.2000,1.20096,246.17,0.653738
260.1000,1.20194,246.179,0.653849
260.0000,1.19598,246.185,0.653927
259.9000,1.19688,246.2,0.654116
259.8000,1.18656,246.212,0.654263
259.7000,1.19006,246.221,0.654372
259.6000,1.18945,246.232,0.654515
259.5000,1.18422,246.247,0.654708
259.4000,1.18632,246.26,0.654863
259.3000,1.17656,246.27,0.654994
259.2000,1.16552,246.284,0.655161
259.1000,1.16932,246.297,0.655328
259.0000,1.16634,246.315,0.655548
258.9000,1.17482,246.328,0.655714
258.8000,1.17795,246.336,0.655817
258.7000,1.17716,246.349,0.655972
258.6000,1.18871,246.363,0.656145
258.5000,1.19058,246.374,0.65629
258.4000,1.19416,246.395,0.656543
258.3000,1.20941,246.407,0.656696
258.2000,1.20688,246.419,0.656844
258.1000,1.21185,246.435,0.657042
258.0000,1.20429,246.446,0.657182
257.9000,1.20418,246.455,0.657288
257.8000,1.2051,246.467,0.657443
257.7000,1.19414,246.483,0.657646
257.6000,1.18632,246.497,0.657822
257.5000,1.18155,246.508,0.657957
257.4000,1.18799,246.52,0.658103
257.3000,1.19302,246.536,0.658304
257.2000,1.16978,246.552,0.658503
257.1000,1.17012,246.57,0.658729
257.0000,1.16752,246.583,0.658888
256.9000,1.14678,246.593,0.659015
256.8000,1.15326,246.603,0.659136
256.7000,1.15393,246.616,0.659296
256.6000,1.16034,246.629,0.659461
256.5000,1.14654,246.638,0.65957
256.4000,1.13413,246.65,0.65972
256.3000,1.12545,246.66,0.65984
256.2000,1.11323,246.667,0.659939
256.1000,1.10966,246.679,0.660084
256.0000,1.0886,246.694,0.660269
255.9000,1.10221,246.703,0.660385
255.8000,1.09683,246.716,0.660541
255.7000,1.09096,246.728,0.660697
255.6000,1.0993,246.739,0.660834
255.5000,1.09961,246.752,0.660993
255.4000,1.08932,246.762,0.661115
255.3000,1.0825,246.771,0.661228
255.2000,1.07347,246.778,0.661312
255.1000,1.07301,246.788,0.661439
255.0000,1.08498,246.795,0.661522
254.9000,1.07491,246.8,0.661583
254.8000,1.08032,246.809,0.661697
254.7000,1.09514,246.817,0.661803
254.6000,1.11258,246.828,0.661936
254.5000,1.11477,246.832,0.661981
254.4000,1.11755,246.837,0.662042
254.3000,1.12026,246.844,0.662139
254.2000,1.14534,246.857,0.662292
254.1000,1.142,246.868,0.662429
254.0000,1.13707,246.879,0.662572
253.9000,1.12708,246.888,0.662677
253.8000,1.11995,246.898,0.662802
253.7000,1.10987,246.904,0.662879
253.6000,1.11581,246.909,0.66294
253.5000,1.12746,246.918,0.663058
253.4000,1.12843,246.924,0.663134
253.3000,1.13363,246.933,0.663242
253.2000,1.12318,246.936,0.663277
253.1000,1.12601,246.943,0.663367
253.0000,1.12124,246.944,0.663384
252.9000,1.11364,246.952,0.663481
252.8000,1.11851,246.953,0.66349
252.7000,1.11126,246.955,0.663521
252.6000,1.09552,246.956,0.663525
252.5000,1.09558,246.957,0.66354
252.4000,1.07559,246.964,0.663622
252.3000,1.06932,246.961,0.663588
252.2000,1.07278,246.961,0.663592
252.1000,1.07024,246.962,0.663603
252.0000,1.05892,246.963,0.663616
251.9000,1.04832,246.963,0.663616
251.8000,1.0381,246.962,0.663603
251.7000,1.02274,246.961,0.663585
251.6000,1.01532,246.958,0.663549
251.5000,1.00245,246.956,0.663528
251.4000,0.993517,246.951,0.663462
251.3000,0.994002,246.946,0.6634
251.2000,1.00102,246.939,0.663314
251.1000,0.994732,246.933,0.663241
251.0000,1.00832,246.931,0.663218
250.9000,0.99464,246.924,0.663136
250.8000,0.992434,246.921,0.663096
250.7000,0.997453,246.921,0.66309
250.6000,0.990395,246.921,0.663091
250.5000,0.978244,246.92,0.663081
250.4000,0.973123,246.921,0.66309
250.3000,0.968946,246.921,0.663097
250.2000,0.958403,246.923,0.663112
250.1000,0.946961,246.921,0.663094
250.0000,0.935911,246.921,0.66309
249.9000,0.928996,246.92,0.663085
249.8000,0.929382,246.921,0.663099
249.7000,0.923643,246.926,0.663156
249.6000,0.91906,246.927,0.663166
249.5000,0.923059,246.931,0.66322
249.4000,0.928573,246.927,0.663161
249.3000,0.946935,246.927,0.663171
249.2000,0.942382,246.929,0.663188
249.1000,0.929393,246.929,0.663193
249.0000,0.91425,246.928,0.663185
248.9000,0.907495,246.929,0.663191
248.8000,0.886458,246.931,0.663212
248.7000,0.884209,246.932,0.663235
248.6000,0.874444,246.931,0.663222
248.5000,0.872389,246.931,0.663215
248.4000,0.862242,246.931,0.663222
248.3000,0.838983,246.933,0.663241
248.2000,0.823473,246.935,0.663266
248.1000,0.815878,246.932,0.663232
248.0000,0.802321,246.934,0.663258
247.9000,0.76829,246.931,0.663218
247.8000,0.750289,246.937,0.663296
247.7000,0.724047,246.943,0.663363
247.6000,0.71473,246.943,0.663371
247.5000,0.681627,246.946,0.663408
247.4000,0.666397,246.95,0.663449
247.3000,0.656794,246.948,0.663427
247.2000,0.646182,246.95,0.663453
247.1000,0.630442,246.951,0.663468
247.0000,0.601695,246.954,0.663501
246.9000,0.558853,246.959,0.663563
246.8000,0.53563,246.967,0.66367
246.7000,0.521382,246.967,0.663661
246.6000,0.494419,246.969,0.66369
246.5000,0.475562,246.97,0.663706
246.4000,0.449185,246.973,0.66374
246.3000,0.43133,246.973,0.663743
246.2000,0.414152,246.979,0.663815
246.1000,0.383862,246.982,0.663855
246.0000,0.359369,246.993,0.663988
245.9000,0.327701,247.001,0.664087
245.8000,0.321571,247.007,0.664161
245.7000,0.296644,247.009,0.664184
245.6000,0.278056,247.02,0.664327
245.5000,0.248544,247.036,0.664524
245.4000,0.216819,247.048,0.664675
245.3000,0.201185,247.062,0.664842
245.2000,0.161649,247.074,0.664996
245.1000,0.139823,247.09,0.665192
245.0000,0.110978,247.101,0.665335
244.9000,0.0829358,247.119,0.665558
244.8000,0.0468615,247.14,0.665816
244.7000,0.0237803,247.158,0.666033
244.6000,-0.0394816,247.182,0.666335
244.5000,-0.0681801,247.206,0.666634
244.4000,-0.105899,247.228,0.666914
244.3000,-0.135144,247.245,0.667113
244.2000,-0.161697,247.264,0.66735
244.1000,-0.205875,247.289,0.66767
244.0000,-0.242549,247.312,0.667954
243.9000,-0.285801,247.331,0.668183
243.8000,-0.314086,247.348,0.668393
243.7000,-0.347231,247.362,0.668574
243.6000,-0.385951,247.391,0.668927
243.5000,-0.426282,247.412,0.669198
243.4000,-0.47524,247.431,0.669435
243.3000,-0.506424,247.452,0.669693
243.2000,-0.552679,247.473,0.669948
243.1000,-0.593799,247.494,0.670216
243.0000,-0.654038,247.515,0.670468
242.9000,-0.710265,247.536,0.67073
242.8000,-0.765274,247.566,0.671103
242.7000,-0.822222,247.596,0.671475
242.6000,-0.926504,247.635,0.671965
242.5000,-0.994902,247.666,0.672346
242.4000,-1.04673,247.701,0.672782
242.3000,-1.09955,247.738,0.673236
242.2000,-1.1497,247.771,0.673653
242.1000,-1.21314,247.797,0.673972
242.0000,-1.29039,247.844,0.674558
241.9000,-1.34242,247.879,0.674988
241.8000,-1.39945,247.916,0.675442
241.7000,-1.44253,247.954,0.675913
241.6000,-1.52339,247.999,0.676467
241.5000,-1.60071,248.049,0.677087
241.4000,-1.67694,248.089,0.677585
241.3000,-1.73852,248.137,0.678186
241.2000,-1.80908,248.176,0.67867
241.1000,-1.87149,248.218,0.679187
241.0000,-1.93568,248.254,0.679627
240.9000,-2.00584,248.299,0.680194
240.8000,-2.08882,248.34,0.680691
240.7000,-2.17443,248.39,0.681312
240.6000,-2.25366,248.439,0.681918
240.5000,-2.32764,248.488,0.682524
240.4000,-2.41933,248.539,0.683157
240.3000,-2.48913,248.588,0.68376
240.2000,-2.5837,248.638,0.684376
240.1000,-2.68664,248.694,0.685074
240.0000,-2.77855,248.751,0.685773
239.9000,-2.85588,248.809,0.686501
239.8000,-2.93787,248.868,0.687228
239.7000,-3.03089,248.931,0.687999
239.6000,-3.11145,248.992,0.688755
239.5000,-3.20515,249.052,0.689494
239.4000,-3.28984,249.095,0.690026
239.3000,-3.37503,249.156,0.690784
239.2000,-3.48431,249.219,0.691555
239.1000,-3.57829,249.287,0.692396
239.0000,-3.69009,249.353,0.69321
238.9000,-3.7969,249.419,0.694022
238.8000,-3.9114,249.485,0.694837
238.7000,-4.02114,249.548,0.695621
238.6000,-4.11282,249.614,0.696429
238.5000,-4.25524,249.699,0.697477
238.4000,-4.33789,249.749,0.698096
238.3000,-4.46267,249.823,0.699009
238.2000,-4.56784,249.891,0.69984
238.1000,-4.72617,249.979,0.700929
238.0000,-4.83546,250.053,0.701836
237.9000,-4.96337,250.125,0.70272
237.8000,-5.09285,250.201,0.703659
237.7000,-5.21562,250.281,0.704636
237.6000,-5.35628,250.361,0.705622
237.5000,-5.47667,250.439,0.706585
237.4000,-5.57518,250.501,0.707339
237.3000,-5.70435,250.586,0.708393
237.2000,-5.84571,250.669,0.709412
237.1000,-5.97778,250.757,0.710489
237.0000,-6.11452,250.843,0.711541
236.9000,-6.27852,250.948,0.712834
236.8000,-6.40909,251.039,0.71395
236.7000,-6.5504,251.126,0.715015
236.6000,-6.6953,251.215,0.716101
236.5000,-6.83733,251.306,0.717226
236.4000,-6.92364,251.379,0.718121
236.3000,-7.05907,251.472,0.719251
236.2000,-7.20107,251.561,0.720342
236.1000,-7.33912,251.653,0.721475
236.0000,-7.49337,251.748,0.722633
235.9000,-7.62756,251.839,0.723743
235.8000,-7.76057,251.934,0.724905
235.7000,-7.9493,252.047,0.726287
235.6000,-8.07203,252.11,0.727059
235.5000,-8.26781,252.231,0.728537
235.4000,-8.41909,252.329,0.729742
235.3000,-8.57815,252.42,0.730851
235.2000,-8.79306,252.546,0.732382
235.1000,-8.96669,252.641,0.733547
235.0000,-9.21678,252.793,0.735397
234.9000,-9.38564,252.889,0.73657
234.8000,-9.51544,252.97,0.737556
234.7000,-9.61971,253.037,0.738381
234.6000,-9.79416,253.139,0.739615
234.5000,-9.92362,253.22,0.740602
234.4000,-10.0544,253.296,0.741531
234.3000,-10.2067,253.396,0.742745
234.2000,-10.3786,253.497,0.743976
234.1000,-10.4617,253.549,0.744607
234.0000,-10.6312,253.649,0.745821
233.9000,-10.7628,253.721,0.746705
233.8000,-10.8873,253.795,0.747606
233.7000,-11.0777,253.902,0.748904
233.6000,-11.2403,254.004,0.750139
233.5000,-11.4065,254.106,0.751375
233.4000,-11.5798,254.207,0.752611
233.3000,-11.7679,254.306,0.753806
233.2000,-11.9439,254.404,0.754993
233.1000,-12.1312,254.498,0.756138
233.0000,-12.3274,254.587,0.757214
232.9000,-12.5136,254.674,0.758273
232.8000,-12.6857,254.762,0.759332
232.7000,-12.8638,254.857,0.760486
232.6000,-13.0494,254.95,0.761612
232.5000,-13.2278,255.045,0.762758
232.4000,-13.4188,255.143,0.763955
232.3000,-13.6067,255.24,0.765129
232.2000,-13.7932,255.341,0.766342
232.1000,-13.9793,255.44,0.767547
232.0000,-14.1633,255.546,0.768823
231.9000,-14.3479,255.654,0.770133
231.8000,-14.5419,255.764,0.771458
231.7000,-14.7546,255.877,0.772821
231.6000,-14.9417,255.985,0.774122
231.5000,-15.1274,256.094,0.775444
231.4000,-15.3643,256.237,0.777172
231.3000,-15.5605,256.353,0.778568
231.2000,-15.733,256.469,0.779958
231.1000,-15.9703,256.613,0.781693
231.0000,-16.1597,256.73,0.783112
230.9000,-16.3512,256.846,0.784507
230.8000,-16.5423,256.961,0.785889
230.7000,-16.7403,257.072,0.787218
230.6000,-16.9162,257.185,0.788576
230.5000,-17.0959,257.306,0.790036
230.4000,-17.2823,257.417,0.791368
230.3000,-17.4282,257.504,0.792413
230.2000,-17.6332,257.617,0.793768
230.1000,-17.8068,257.727,0.795093
230.0000,-17.9526,257.809,0.79608
229.9000,-18.1397,257.926,0.797482
229.8000,-18.3199,258.045,0.798901
229.7000,-18.5243,258.161,0.800292
229.6000,-18.7187,258.269,0.801594
229.5000,-18.9057,258.384,0.802966
229.4000,-19.0386,258.469,0.803986
229.3000,-19.2145,258.589,0.805422
229.2000,-19.3865,258.7,0.806746
229.1000,-19.5735,258.817,0.808153
229.0000,-19.8133,258.964,0.809912
228.9000,-19.9865,259.076,0.811247
228.8000,-20.1494,259.2,0.812725
228.7000,-20.3142,259.317,0.814123
228.6000,-20.4948,259.44,0.815592
228.5000,-20.6606,259.564,0.81707
228.4000,-20.8174,259.678,0.818438
228.3000,-20.9811,259.795,0.819829
228.2000,-21.1603,259.92,0.821318
228.1000,-21.326,260.036,0.822693
228.0000,-21.4902,260.153,0.824088
227.9000,-21.6638,260.273,0.825521
227.8000,-21.8205,260.392,0.826933
227.7000,-21.9703,260.51,0.828343
227.6000,-22.1298,260.623,0.829683
227.5000,-22.2778,260.739,0.83107
227.4000,-22.3829,260.832,0.832167
227.3000,-22.5434,260.953,0.833609
227.2000,-22.6884,261.085,0.83518
227.1000,-22.8246,261.212,0.836686
227.0000,-22.9612,261.332,0.838108
226.9000,-23.1188,261.458,0.839604
226.8000,-23.2578,261.59,0.841165
226.7000,-23.389,261.719,0.84269
226.6000,-23.5451,261.884,0.844647
226.5000,-23.6697,262.019,0.84625
226.4000,-23.8163,262.154,0.847844
226.3000,-23.9317,262.289,0.849448
226.2000,-24.099,262.459,0.851451
226.1000,-24.2243,262.601,0.853129
226.0000,-24.3557,262.734,0.854697
225.9000,-24.486,262.87,0.856303
225.8000,-24.6105,263.003,0.857875
225.7000,-24.6973,263.102,0.859045
225.6000,-24.8117,263.235,0.860617
225.5000,-24.927,263.371,0.862219
225.4000,-25.0342,263.508,0.863828
225.3000,-25.1041,263.604,0.864968
225.2000,-25.2041,263.731,0.866464
225.1000,-25.309,263.853,0.8679
225.0000,-25.4002,263.981,0.869405
224.9000,-25.4949,264.111,0.870931
224.8000,-25.5751,264.235,0.872393
224.7000,-25.6608,264.361,0.873874
224.6000,-25.744,264.484,0.875319
224.5000,-25.8357,264.613,0.876835
224.4000,-25.9221,264.738,0.878302
224.3000,-26.0004,264.863,0.879766
224.2000,-26.0663,264.988,0.881227
224.1000,-26.1534,265.11,0.882657
224.0000,-26.2211,265.241,0.884195
223.9000,-26.3312,265.388,0.885918
223.8000,-26.3918,265.512,0.887372
223.7000,-26.4539,265.637,0.88884
223.6000,-26.5092,265.767,0.890356
223.5000,-26.544,265.862,0.891462
223.4000,-26.6049,265.991,0.892977
223.3000,-26.6532,266.119,0.894475
223.2000,-26.7037,266.25,0.896004
223.1000,-26.7408,266.378,0.8975
223.0000,-26.7639,266.499,0.898905
222.9000,-26.7949,266.594,0.900019
222.8000,-26.8216,266.724,0.901536
222.7000,-26.8581,266.851,0.903019
222.6000,-26.907,266.976,0.904469
222.5000,-26.9394,267.106,0.905991
222.4000,-26.969,267.207,0.907162
222.3000,-26.9913,267.328,0.908569
222.2000,-27.0318,267.454,0.910036
222.1000,-27.0732,267.588,0.911596
222.0000,-27.1157,267.711,0.913036
221.9000,-27.1349,267.834,0.914461
221.8000,-27.1635,267.958,0.915896
221.7000,-27.1764,268.091,0.917448
221.6000,-27.1923,268.225,0.919008
221.5000,-27.2111,268.381,0.920819
221.4000,-27.2251,268.511,0.922317
221.3000,-27.2294,268.639,0.923811
221.2000,-27.2302,268.764,0.925253
221.1000,-27.2456,268.887,0.926684
221.0000,-27.2739,269.046,0.928522
220.9000,-27.3041,269.215,0.93048
220.8000,-27.3189,269.352,0.932061
220.7000,-27.3202,269.478,0.933528
220.6000,-27.3337,269.634,0.935323
220.5000,-27.3545,269.763,0.936812
220.4000,-27.3416,269.93,0.938746
220.3000,-27.326,270.058,0.940228
220.2000,-27.3362,270.219,0.942086
220.1000,-27.3356,270.352,0.943617
220.0000,-27.3172,270.486,0.945161
219.9000,-27.3289,270.618,0.946679
219.8000,-27.3217,270.717,0.947829
219.7000,-27.3207,270.851,0.949366
219.6000,-27.3091,270.99,0.950963
219.5000,-27.3109,271.126,0.952535
219.4000,-27.2995,271.264,0.95412
219.3000,-27.2953,271.393,0.955608
219.2000,-27.302,271.54,0.95729
219.1000,-27.2808,271.677,0.958866
219.0000,-27.2712,271.779,0.960045
218.9000,-27.2677,271.904,0.96148
218.8000,-27.2586,272.036,0.962989
218.7000,-27.2435,272.169,0.964521
218.6000,-27.2259,272.308,0.966111
218.5000,-27.2045,272.456,0.967806
218.4000,-27.1849,272.601,0.969467
218.3000,-27.1873,272.705,0.97066
218.2000,-27.1625,272.849,0.972303
218.1000,-27.1691,272.995,0.973981
218.0000,-27.1405,273.141,0.975652
217.9000,-27.1271,273.291,0.977367
217.8000,-27.0976,273.439,0.979061
217.7000,-27.0982,273.583,0.9807
217.6000,-27.1074,273.689,0.981908
217.5000,-27.1035,273.836,0.98359
217.4000,-27.0741,273.982,0.985261
217.3000,-27.0492,274.131,0.986956
217.2000,-27.0192,274.28,0.988649
217.1000,-27.0254,274.428,0.990343
217.0000,-27.0149,274.538,0.991589
216.9000,-26.9949,274.687,0.993285
216.8000,-26.9728,274.833,0.994948
216.7000,-26.9685,274.991,0.996752
216.6000,-26.9503,275.151,0.998567
216.5000,-26.9597,275.305,1.00031
216.4000,-26.9619,275.423,1.00166
216.3000,-26.9657,275.588,1.00353
216.2000,-26.975,275.71,1.00491
216.1000,-26.9697,275.87,1.00674
216.0000,-26.9845,276.027,1.00851
215.9000,-26.9584,276.186,1.01032
215.8000,-26.99,276.355,1.01222
215.7000,-26.9728,276.512,1.01401
215.6000,-26.9726,276.722,1.01638
215.5000,-26.9565,276.885,1.01822
215.4000,-26.9517,277.101,1.02067
215.3000,-26.9717,277.274,1.02262
215.2000,-26.9795,277.447,1.02458
215.1000,-27.0094,277.661,1.02699
215.0000,-27.0284,277.833,1.02893
214.9000,-27.0341,278.016,1.03099
214.8000,-27.041,278.2,1.03307
214.7000,-27.0445,278.382,1.03511
214.6000,-27.0534,278.568,1.03721
214.5000,-27.0795,278.712,1.03883
214.4000,-27.0857,278.905,1.041
214.3000,-27.1011,279.092,1.0431
214.2000,-27.1176,279.275,1.04515
214.1000,-27.1399,279.463,1.04727
214.0000,-27.1729,279.661,1.04948
213.9000,-27.1961,279.86,1.05172
213.8000,-27.2106,280.057,1.05392
213.7000,-27.2329,280.255,1.05614
213.6000,-27.2548,280.454,1.05837
213.5000,-27.2894,280.658,1.06065
213.4000,-27.3362,280.864,1.06295
213.3000,-27.332,281.066,1.06521
213.2000,-27.3763,281.319,1.06803
213.1000,-27.4054,281.541,1.07051
213.0000,-27.4317,281.764,1.07299
212.9000,-27.4834,282.039,1.07606
212.8000,-27.512,282.314,1.07912
212.7000,-27.5414,282.536,1.08159
212.6000,-27.5465,282.826,1.08482
212.5000,-27.5674,283.057,1.08738
212.4000,-27.6323,283.292,1.08999
212.3000,-27.6526,283.474,1.09201
212.2000,-27.688,283.721,1.09474
212.1000,-27.7346,283.909,1.09683
212.0000,-27.7881,284.159,1.09959
211.9000,-27.8328,284.409,1.10236
211.8000,-27.8441,284.596,1.10442
211.7000,-27.8989,284.843,1.10715
211.6000,-27.9494,285.1,1.11
211.5000,-28.0121,285.421,1.11353
211.4000,-28.0523,285.746,1.11712
211.3000,-28.0831,286.078,1.12078
211.2000,-28.1459,286.415,1.12448
211.1000,-28.1579,286.766,1.12834
211.0000,-28.1857,287.05,1.13145
210.9000,-28.2101,287.338,1.13461
210.8000,-28.212,287.626,1.13777
210.7000,-28.2077,287.925,1.14105
210.6000,-28.191,288.143,1.14343
210.5000,-28.1961,288.526,1.14762
210.4000,-28.2319,288.752,1.15009
210.3000,-28.2338,289.068,1.15354
210.2000,-28.2388,289.377,1.1569
210.1000,-28.2421,289.684,1.16025
210.0000,-28.2313,290.003,1.16372
209.9000,-28.2047,290.316,1.16713
209.8000,-28.1954,290.646,1.17071
209.7000,-28.1536,291.054,1.17514
209.6000,-28.136,291.39,1.17878
209.5000,-28.0837,291.824,1.18348
209.4000,-28.0467,292.178,1.18732
209.3000,-27.9891,292.536,1.19118
209.2000,-27.9328,292.9,1.19512
209.1000,-27.8838,293.268,1.19909
209.0000,-27.8247,293.643,1.20312
208.9000,-27.7704,294.008,1.20706
208.8000,-27.6615,294.383,1.21109
208.7000,-27.5914,294.768,1.21521
208.6000,-27.4374,295.26,1.22049
208.5000,-27.286,295.751,1.22575
208.4000,-27.1847,296.15,1.23003
208.3000,-27.0848,296.557,1.23437
208.2000,-26.9632,296.976,1.23884
208.1000,-26.852,297.393,1.24329
208.0000,-26.6985,297.812,1.24775
207.9000,-26.5539,298.247,1.25237
207.8000,-26.3856,298.696,1.25715
207.7000,-26.1648,299.261,1.26315
207.6000,-25.9862,299.717,1.26798
207.5000,-25.8036,300.181,1.27288
207.4000,-25.5996,300.657,1.27791
207.3000,-25.3964,301.137,1.28297
207.2000,-25.1224,301.748,1.28941
207.1000,-24.8075,302.376,1.29601
207.0000,-24.5861,302.891,1.30143
206.9000,-24.3181,303.402,1.30679
206.8000,-24.0396,303.923,1.31224
206.7000,-23.7719,304.453,1.31778
206.6000,-23.5616,304.851,1.32194
206.5000,-23.279,305.397,1.32763
206.4000,-22.9589,305.952,1.33341
206.3000,-22.6464,306.513,1.33925
206.2000,-22.3286,307.093,1.34527
206.1000,-22.0171,307.672,1.35127
206.0000,-21.7605,308.111,1.35582
205.9000,-21.3874,308.702,1.36192
205.8000,-21.0368,309.304,1.36814
205.7000,-20.6458,309.914,1.37442
205.6000,-20.2619,310.536,1.38082
205.5000,-19.7682,311.334,1.38901
205.4000,-19.3557,311.978,1.39561
205.3000,-18.8255,312.809,1.40411
205.2000,-18.3883,313.481,1.41097
205.1000,-17.8208,314.341,1.41972
205.0000,-17.3678,315.04,1.42684
204.9000,-16.9205,315.742,1.43396
204.8000,-16.4371,316.459,1.44122
204.7000,-15.9395,317.182,1.44852
204.6000,-15.4207,317.933,1.4561
204.5000,-14.9077,318.687,1.46369
204.4000,-14.41,319.458,1.47144
204.3000,-13.9178,320.245,1.47933
204.2000,-13.5154,320.839,1.48528
204.1000,-12.9791,321.648,1.49335
204.0000,-12.3771,322.462,1.50147
203.9000,-11.6688,323.501,1.5118
203.8000,-11.0776,324.352,1.52025
203.7000,-10.3593,325.437,1.53098
203.6000,-9.75418,326.322,1.53972
203.5000,-9.12458,327.225,1.54861
203.4000,-8.32443,328.367,1.55984
203.3000,-7.69039,329.302,1.56899
203.2000,-6.9203,330.5,1.58071
203.1000,-6.13073,331.716,1.59255
203.0000,-5.60845,332.455,1.59974
202.9000,-4.92585,333.458,1.60946
202.8000,-4.24422,334.474,1.61929
202.7000,-3.70192,335.252,1.62679
202.6000,-3.03427,336.298,1.63686
202.5000,-2.26328,337.367,1.64713
202.4000,-1.5384,338.459,1.65758
202.3000,-0.837666,339.559,1.6681
202.2000,0.0942269,340.964,1.68148
202.1000,1.02066,342.402,1.69512
202.0000,1.76464,343.583,1.70629
201.9000,2.71629,345.076,1.72036
201.8000,3.4715,346.294,1.73181
201.7000,4.41618,347.848,1.74636
201.6000,5.1953,349.119,1.75822
201.5000,5.9688,350.404,1.77018
201.4000,6.74338,351.716,1.78235
201.3000,7.50929,353.05,1.79469
201.2000,8.58357,354.753,1.81038
201.1000,9.36938,356.148,1.82319
201.0000,10.2219,357.559,1.83609
200.9000,11.0513,359.007,1.8493
200.8000,11.8467,360.477,1.86266
200.7000,12.6839,361.975,1.87622
200.6000,13.717,363.888,1.89349
200.5000,14.5229,365.454,1.90756
200.4000,15.3454,367.052,1.92186
200.3000,16.4074,369.088,1.94001
200.2000,17.2817,370.756,1.95482
200.1000,18.3438,372.881,1.97361
200.0000,19.1482,374.624,1.98895
199.9000,20.1747,376.843,2.00839
199.8000,21.1712,379.124,2.02828
199.7000,22.1644,381.458,2.04853
199.6000,22.9979,383.374,2.06507
199.5000,23.9572,385.83,2.08618
199.4000,24.9759,388.349,2.1077
199.3000,25.9439,390.928,2.12962
199.2000,26.9567,393.585,2.15208
199.1000,27.6873,395.75,2.17028
199.0000,28.7932,398.526,2.1935
198.9000,29.6227,400.797,2.21239
198.8000,30.6026,403.702,2.23643
198.7000,31.5788,406.094,2.25611
198.6000,32.2222,408.534,2.2761
198.5000,32.9169,411.03,2.29643
198.4000,33.6987,413.578,2.31707
198.3000,34.7777,416.83,2.34328
198.2000,35.397,419.501,2.36467
198.1000,36.0491,422.227,2.38638
198.0000,36.9161,425.736,2.41416
197.9000,37.6117,428.616,2.43682
197.8000,38.5073,432.311,2.4657
197.7000,39.4491,436.114,2.4952
197.6000,40.17,440.034,2.52539
197.5000,41.0531,444.895,2.56251
197.4000,41.6758,449.083,2.59422
197.3000,42.4481,454.283,2.63324
197.2000,43.3743,458.764,2.66657
197.1000,44.018,464.336,2.70764
197.0000,44.9881,470.141,2.74997
196.9000,45.3266,474.126,2.77878
196.8000,46.0347,479.268,2.81565
196.7000,46.2921,483.506,2.84579
196.6000,46.7745,486.76,2.86878
196.5000,47.1547,491.199,2.89993
196.4000,47.5265,496.922,2.93975
196.3000,47.7195,502.845,2.98055
196.2000,47.9494,508.982,3.02239
196.1000,48.2616,514.035,3.05654
196.0000,48.1984,520.557,3.10017
195.9000,48.1243,528.703,3.15404
195.8000,48.2364,537.237,3.20972
195.7000,48.5763,544.638,3.2574
195.6000,48.5714,552.321,3.30632
195.5000,48.2367,560.275,3.35637
195.4000,48.1479,566.853,3.3973
195.3000,47.8573,573.632,3.43906
195.2000,47.5236,582.37,3.49228
195.1000,47.4724,591.444,3.54683
195.0000,46.7652,598.936,3.59134
194.9000,46.3823,608.617,3.64815
194.8000,46.1094,616.617,3.69452
194.7000,45.2377,629.026,3.76545
194.6000,44.0948,639.76,3.82584
194.5000,43.5866,650.848,3.88733
194.4000,42.6739,664.578,3.96224
194.3000,41.7436,676.281,4.02506
194.2000,41.2737,690.317,4.09919
194.1000,40.0328,704.267,4.1716
194.0000,39.4402,715.745,4.23027
193.9000,37.7978,727.174,4.28789
193.8000,36.5344,738.51,4.34429
193.7000,35.9044,749.755,4.3995
193.6000,34.5138,760.902,4.45354
193.5000,33.1861,771.957,4.50647
193.4000,32.028,780.744,4.54808
193.3000,31.4226,791.616,4.59901
193.2000,30.4633,802.384,4.64886
193.1000,29.8327,810.909,4.68793
193.0000,28.5726,823.585,4.74537
192.9000,27.4828,834.017,4.79208
192.8000,26.4756,844.329,4.83776
192.7000,25.2035,856.558,4.89131
192.6000,24.0031,866.569,4.93467
192.5000,22.973,876.456,4.97707
192.4000,22.2385,884.262,5.01025
192.3000,21.0554,893.908,5.05092
192.2000,20.2303,903.394,5.09054
192.1000,19.1257,910.861,5.12148
192.0000,18.2166,920.06,5.1593
191.9000,17.1031,930.869,5.20332
191.8000,15.7819,941.426,5.24589
191.7000,14.8937,951.728,5.28704
191.6000,13.572,961.736,5.32665
191.5000,11.972,973.045,5.37099
191.4000,10.2293,983.938,5.41327
191.3000,9.0744,992.934,5.4479
191.2000,7.51493,1002.98,5.48625
191.1000,5.96702,1011.21,5.51741
191.0000,5.21845,1019.06,5.54694
190.9000,3.90777,1025.31,5.5703
190.8000,3.60116,1031.26,5.59242
190.7000,2.51007,1036.88,5.61324
190.6000,1.73959,1042.19,5.63278
190.5000,1.10978,1049.07,5.65801
190.4000,0.400111,1053.58,5.67449
190.3000,-0.269063,1056.93,5.68667
190.2000,-0.729158,1061.53,5.70333
190.1000,-1.72713,1064.93,5.71563
190.0000,-2.12049,1068.49,5.72847

##### Extended Information
[Comments]
Sample name,bsa 23 12-16-2020
Comment,0.2 mg/ml
User
Division
Company,Saint Mary's College

[Detailed Information]
Creation date,12/16/2020 2:34 PM

Data array type,Linear data array * 3
Horizontal axis,Wavelength [nm]
Vertical axis(1),CD [mdeg]
Vertical axis(2),HT [V]
Vertical axis(3),Abs
Start,370 nm
End,190 nm
Data interval,0.1 nm
Data points,1801    

[Measurement Information]
Instrument name,J-1500
Model name,J-1500
Serial No.,B051061638

Detector,PM-539
Detector S/N,B051061638
  Lock-in amp.,X mode
  HT volt,Auto

Accessory,PTC-517
Accessory S/N,B026561646
  Temperature,22.98 C
  Control sensor,Holder
  Monitor sensor,Holder
  Start Mode,Start immediately

Measurement date,12/16/2020 2:30 PM

CD Overload detect,1719
Photometric mode,CD, HT, Abs
Measure range,370 - 190 nm
Data pitch,0.1 nm
CD scale,200 mdeg/0.1 dOD
FL scale,200 mdeg/0.1 dOD
D.I.T.,8 sec
Bandwidth,1.00 nm
Start mode,Immediately
Scanning mode,Continuous
Scanning speed,50 nm/min
Baseline correction,None
Shutter control,Auto
No. of cycle,1/1
N2 Flowmeter,Manual

Concentration,0.025 mol/L
Solvent,phosphate

