TITLE,Protein_AMSS,,
DATA TYPE,,,
ORIGIN,JASCO,,
OWNER,,,
DATE,22/09/27,,
TIME,14:37:36,,
SPECTROMETER/DATA SYSTEM,,,
LOCALE,1033,,
RESOLUTION,,,
DELTAX,-0.1,,
XUNITS,NANOMETERS,,
YUNITS,MOLAR ELLIPTICITY,,
Y2UNITS,HT [V],,
Y3UNITS,ABSORBANCE,,
FIRSTX,320,,
LASTX,190,,
NPOINTS,1301,,
FIRSTY,0.0788,,
MAXY,35.46646,,
MINY,-73.42445,,
XYDATA,,,
320,4069.019774,259.963,0.82183
319.9,10672.16755,258.565,0.805132
319.8,14662.06277,259.329,0.814262
319.7,2170.957093,258.994,0.810269
319.6,10177.38436,258.316,0.802148
319.5,5717.437541,259.886,0.820912
319.4,4661.388786,259.314,0.814086
319.3,3803.855368,260.86,0.832508
319.2,3366.862891,259.993,0.822181
319.1,12458.98176,259.722,0.818953
319,9418.042227,259.161,0.812259
318.9,3670.61015,259.015,0.810512
318.8,13961.95656,259.529,0.816656
318.7,15525.96059,259.438,0.815574
318.6,6106.893813,258.708,0.806841
318.5,-2479.789536,259.431,0.815479
318.4,12843.50551,260.373,0.826714
318.3,109.4454517,259.496,0.816263
318.2,10310.0377,259.214,0.812895
318.1,15479.39238,259.459,0.815817
318,10983.36708,259.583,0.817305
317.9,4294.318951,258.898,0.809117
317.8,959.8251442,259.351,0.814532
317.7,15805.57335,258.575,0.805255
317.6,13714.05948,260.23,0.825015
317.5,12597.77061,259.895,0.82102
317.4,3550.276921,259.823,0.820156
317.3,13330.99022,258.948,0.809713
317.2,8816.946031,259.415,0.81529
317.1,17845.86672,259.242,0.813233
317,8182.59168,260.046,0.822816
316.9,9753.699673,259.197,0.812692
316.8,4137.343853,258.915,0.809321
316.7,13525.45713,259.866,0.820669
316.6,-659.0339145,259.795,0.819831
316.5,16296.17761,258.977,0.810066
316.4,20762.02224,259.332,0.814302
316.3,-1136.838591,259.148,0.81211
316.2,1422.078439,259.572,0.817169
316.1,18029.60643,260.203,0.824691
316,10257.55676,258.78,0.807708
315.9,12070.2395,260.036,0.822694
315.8,7486.714832,259.219,0.812949
315.7,13229.84744,259.733,0.819088
315.6,6701.612042,259.066,0.811122
315.5,-1087.642306,258.982,0.81012
315.4,13423.21064,259.906,0.821155
315.3,-2154.362846,258.24,0.801238
315.2,19875.86261,257.162,0.788305
315.1,4534.238824,259.205,0.812787
315,3810.42015,259.006,0.810404
314.9,21501.52483,259.127,0.811853
314.8,-219.3228861,258.616,0.805743
314.7,4624.615965,259.878,0.820817
314.6,19236.55742,258.936,0.809578
314.5,21029.86291,257.533,0.792757
314.4,25026.19037,259.263,0.813477
314.3,5733.564071,259.503,0.816344
314.2,15375.73912,259.412,0.815263
314.1,9470.230729,258.74,0.807234
314,161.7952845,258.673,0.806421
313.9,8091.230703,258.464,0.803925
313.8,2314.584374,258.882,0.808928
313.7,14120.32463,259.222,0.81299
313.6,13663.86579,259.301,0.813937
313.5,11386.72596,258.547,0.804915
313.4,9487.482902,259.201,0.812733
313.3,17265.29084,259.074,0.811217
313.2,-530.7463216,258.128,0.799894
313.1,10388.20103,258.307,0.802039
313,13356.58125,257.797,0.795926
312.9,8106.64186,258.737,0.807193
312.8,2669.31013,259.281,0.813693
312.7,849.7608941,258.228,0.801102
312.6,1890.757196,259.474,0.815993
312.5,15239.89522,258.543,0.804875
312.4,18280.11124,258.868,0.808765
312.3,6872.620702,258.686,0.806583
312.2,15983.00295,259.142,0.812029
312.1,9589.589168,258.574,0.805241
312,4771.646185,258.814,0.808115
311.9,8623.617429,259.317,0.814127
311.8,4739.878484,259.195,0.812665
311.7,7101.401977,259.251,0.813342
311.6,11894.93454,258.687,0.806597
311.5,13481.17098,259.948,0.821655
311.4,6388.879088,259.026,0.810648
311.3,8358.098841,258.957,0.809822
311.2,4644.93205,259.012,0.810485
311.1,4731.126421,258.801,0.807952
311,5531.981204,258.952,0.809768
310.9,2760.754789,259.908,0.821169
310.8,19000.02985,258.91,0.809266
310.7,2959.362855,259.291,0.813815
310.6,12389.10933,259.855,0.820547
310.5,3239.258328,258.998,0.810309
310.4,286.4950858,260.081,0.823234
310.3,7028.29284,259.258,0.813423
310.2,11731.19269,259.352,0.814546
310.1,6874.950243,259.542,0.816804
310,21731.11127,258.583,0.805349
309.9,9222.186638,258.428,0.803491
309.8,-685.6766253,258.899,0.809131
309.7,-8138.239935,258.393,0.80307
309.6,16026.58572,257.756,0.795437
309.5,8082.683776,258.776,0.807654
309.4,-2774.268388,260.075,0.823166
309.3,16374.2075,259.71,0.818818
309.2,1201.56138,259.194,0.812652
309.1,6614.851344,258.908,0.809239
309,1584.687181,258.342,0.80246
308.9,11294.96693,258.469,0.80398
308.8,-3728.916524,258.449,0.803749
308.7,8835.200132,258.36,0.802677
308.6,12933.72207,257.89,0.797041
308.5,7675.681312,259.357,0.8146
308.4,11345.88436,259.174,0.812421
308.3,7476.577936,258.651,0.806163
308.2,9875.873917,259.325,0.814221
308.1,4459.19368,259.205,0.812787
308,7271.898363,258.748,0.807329
307.9,11440.64692,258.746,0.807302
307.8,11026.98377,260.228,0.824988
307.7,11976.26447,258.222,0.801021
307.6,8277.376855,259.186,0.812557
307.5,11647.17542,258.377,0.802881
307.4,7849.973945,258.789,0.807817
307.3,20529.24908,258.038,0.798821
307.2,14273.43654,259.194,0.812652
307.1,10789.83425,258.709,0.806854
307,6746.19448,257.383,0.790961
306.9,3284.947864,258.89,0.809022
306.8,17305.16443,258.444,0.803681
306.7,-3885.382515,258.401,0.803165
306.6,7014.134659,258.533,0.804753
306.5,10229.68821,257.345,0.790498
306.4,2814.318399,257.034,0.786766
306.3,17735.59801,257.256,0.789436
306.2,4745.686504,258.575,0.805255
306.1,6319.632919,258.469,0.80398
306,9112.73214,257.567,0.793165
305.9,3314.027546,258.344,0.802487
305.8,465.0487439,257.893,0.797082
305.7,16947.99831,258.248,0.801333
305.6,5345.771725,259.088,0.811393
305.5,9785.836029,258.832,0.808332
305.4,4331.788147,258.653,0.80619
305.3,15633.05162,259.512,0.816453
305.2,8180.542589,257.177,0.788482
305.1,14096.0092,258.983,0.810133
305,12976.70776,258.74,0.807234
304.9,11391.54562,258.973,0.810011
304.8,18226.5318,258.398,0.803138
304.7,12962.10855,259.162,0.812272
304.6,11309.24498,258.381,0.802935
304.5,12211.25679,258.816,0.808142
304.4,-6430.595964,258.855,0.808603
304.3,12674.81508,258.359,0.802663
304.2,16718.12012,258.271,0.801618
304.1,16714.8859,258.678,0.806488
304,4166.153263,258.411,0.803288
303.9,17515.72779,258.095,0.7995
303.8,14655.43149,258.753,0.807383
303.7,10373.04025,259.207,0.812814
303.6,6614.154743,258.586,0.80539
303.5,21637.98391,258.881,0.808914
303.4,9875.159223,258.612,0.805702
303.3,-3088.781293,258.557,0.805037
303.2,1265.68256,259.041,0.810824
303.1,10585.52898,258.198,0.800736
303,18863.55947,258.552,0.804983
302.9,15078.68646,258.711,0.806882
302.8,10820.9551,258.969,0.809971
302.7,18540.82079,258.104,0.799609
302.6,-1373.721467,258.713,0.806909
302.5,16578.03103,258.9,0.809144
302.4,9542.220328,258.086,0.799391
302.3,9335.974535,258.564,0.805119
302.2,17145.96406,258.18,0.800519
302.1,10416.12386,257.341,0.790457
302,4372.616179,258.344,0.802487
301.9,394.4550593,259.058,0.811027
301.8,-2075.725007,258.456,0.80383
301.7,1686.813803,258.121,0.799812
301.6,20904.25994,258.569,0.805187
301.5,5277.570456,258.667,0.806353
301.4,5147.141495,258.25,0.80136
301.3,17711.81634,258.842,0.808454
301.2,9785.243466,258.44,0.80364
301.1,3719.537294,257.914,0.79734
301,16135.49854,257.99,0.79825
300.9,13924.77912,257.554,0.793016
300.8,2995.393842,257.942,0.797666
300.7,3002.276165,258.077,0.799283
300.6,6599.720636,258.568,0.805173
300.5,8690.915605,259.988,0.822127
300.4,4063.86787,258.793,0.807857
300.3,-2766.114995,257.663,0.794322
300.2,10540.33964,257.337,0.790402
300.1,-5541.952997,257.517,0.792567
300,-2470.152474,258.33,0.802324
299.9,14387.78307,260.113,0.823612
299.8,11608.6317,259.036,0.81077
299.7,7936.94272,258.356,0.802636
299.6,7114.302658,257.633,0.793968
299.5,15623.30373,258.398,0.803138
299.4,8397.560812,257.064,0.78712
299.3,22955.16063,257.793,0.795886
299.2,6636.794262,258.509,0.804468
299.1,3163.161499,258.637,0.806
299,9094.363597,257.692,0.794675
298.9,10148.44151,258.406,0.803233
298.8,11461.99501,258.442,0.803667
298.7,21496.04249,258.27,0.801605
298.6,-1576.293823,258.197,0.800722
298.5,6382.876562,258.147,0.800125
298.4,-230.0478212,259.011,0.810472
298.3,1537.621408,257.928,0.797503
298.2,1407.931567,257.853,0.796606
298.1,13861.30004,258.186,0.8006
298,3635.646681,257.665,0.794349
297.9,6684.999928,258.328,0.802297
297.8,3715.990964,258.054,0.799011
297.7,10521.59077,258.458,0.803857
297.6,17243.64646,257.46,0.791886
297.5,10653.32541,258.096,0.799514
297.4,21062.91751,258.31,0.80208
297.3,4372.240738,257.801,0.795981
297.2,9986.628887,257.854,0.796619
297.1,2231.464996,258.367,0.802758
297,11792.4958,258.415,0.803342
296.9,990.4359905,258.285,0.801781
296.8,14523.31034,258.103,0.799595
296.7,11970.4275,258.654,0.806204
296.6,2189.998715,257.755,0.795423
296.5,7242.65584,258.325,0.802256
296.4,16212.40619,258.001,0.798372
296.3,7548.397909,258.517,0.804563
296.2,12270.55379,258.251,0.801374
296.1,9539.619385,258.067,0.799174
296,16983.13367,258.208,0.800858
295.9,-3161.752466,257.818,0.796184
295.8,1820.414106,258.38,0.802921
295.7,-1742.953478,258.49,0.804237
295.6,-2175.926931,257.988,0.798223
295.5,3602.601125,257.972,0.798033
295.4,-6832.656636,257.845,0.796511
295.3,6944.022262,257.797,0.795926
295.2,12303.91146,258.156,0.800233
295.1,22235.19679,258.206,0.800831
295,12416.31068,258.331,0.802338
294.9,-2123.333587,258.368,0.802772
294.8,13490.43938,258.024,0.798658
294.7,7830.638756,257.179,0.788509
294.6,14559.13325,257.691,0.794662
294.5,14159.19857,258.275,0.801659
294.4,906.1982073,258.248,0.801333
294.3,9542.34246,259.18,0.812489
294.2,13099.75501,257.896,0.797122
294.1,12429.54586,258.268,0.801577
294,846.1480701,259.113,0.811691
293.9,384.7813579,258.024,0.798658
293.8,4178.618342,257.862,0.796715
293.7,15778.48508,258.427,0.803477
293.6,7752.350348,258.077,0.799283
293.5,8430.18117,259.02,0.81058
293.4,12844.09785,257.406,0.791233
293.3,14899.51084,258.129,0.799908
293.2,3862.83369,257.571,0.79322
293.1,6749.27264,258.105,0.799622
293,2147.793766,258.141,0.800057
292.9,15857.77316,258.755,0.80741
292.8,6279.166757,259.054,0.810986
292.7,1923.976902,257.914,0.79734
292.6,19824.37071,257.735,0.795192
292.5,16598.11484,257.798,0.79594
292.4,5763.596377,257.816,0.796157
292.3,6714.252629,258.232,0.801143
292.2,9671.145718,257.543,0.79288
292.1,5517.311882,258.058,0.799065
292,6581.631638,258.28,0.801727
291.9,15517.38878,257.747,0.795328
291.8,740.9342409,257.699,0.794757
291.7,12188.3798,257.342,0.790471
291.6,9042.726042,257.422,0.791423
291.5,6443.089541,257.913,0.797326
291.4,4762.599424,257.144,0.788087
291.3,-3562.036354,257.559,0.79307
291.2,11962.14745,257.486,0.792199
291.1,8661.146559,256.764,0.78352
291,9170.491185,256.994,0.786288
290.9,10981.87436,257.877,0.796891
290.8,3220.916021,259.258,0.813423
290.7,10757.76348,257.457,0.791845
290.6,14407.13862,257.558,0.793056
290.5,-3177.61664,257.288,0.789817
290.4,3648.194538,258.019,0.79859
290.3,20119.5439,257.538,0.792825
290.2,3197.907846,258.437,0.8036
290.1,7495.888247,258.93,0.809497
290,1667.906073,258.256,0.801428
289.9,17079.56083,258.316,0.802148
289.8,13130.33759,258.727,0.807071
289.7,-4707.51822,258.22,0.801007
289.6,5374.897772,256.8,0.783943
289.5,10195.94153,259.526,0.816615
289.4,9617.61151,257.922,0.797435
289.3,7145.921087,257.55,0.792961
289.2,13510.6114,259.991,0.822168
289.1,1934.18391,258.223,0.801034
289,6354.806725,257.633,0.793968
288.9,6981.333366,258.801,0.807952
288.8,12814.3478,258.437,0.8036
288.7,6902.499891,257.627,0.793886
288.6,22018.79826,258.39,0.803043
288.5,12586.13647,258.326,0.80227
288.4,21627.93748,258.101,0.799582
288.3,-3477.043392,257.763,0.795518
288.2,2462.103119,258.873,0.808819
288.1,-6703.618162,258.816,0.808142
288,12670.77005,258.316,0.802148
287.9,5423.438167,258.522,0.804617
287.8,-2599.306294,258.476,0.804074
287.7,3535.347504,258.668,0.806366
287.6,5239.151124,258.805,0.808006
287.5,12197.14159,257.4,0.791165
287.4,7314.71329,258.74,0.807234
287.3,15021.82531,258.989,0.810201
287.2,666.0067055,258.55,0.804956
287.1,11354.6959,258.607,0.805634
287,9318.493931,258.307,0.802039
286.9,13453.11697,258.706,0.806827
286.8,11619.27521,258.401,0.803165
286.7,499.458099,258.048,0.798943
286.6,15693.65813,257.973,0.798046
286.5,16891.4651,258.137,0.800002
286.4,4198.7985,258.594,0.805485
286.3,-1240.498187,258.084,0.799378
286.2,4402.651425,258.722,0.807017
286.1,24012.05074,258.484,0.804169
286,9285.993443,258.785,0.807763
285.9,9238.739949,258.833,0.808345
285.8,5015.103567,258.731,0.807125
285.7,8184.523163,258.806,0.80802
285.6,6221.495918,258.382,0.802948
285.5,5624.167698,258.099,0.799554
285.4,11747.05528,258.069,0.799188
285.3,2139.439083,258.72,0.80699
285.2,23133.69846,258.411,0.803288
285.1,8306.206621,258.248,0.801333
285,12066.1083,258.605,0.805607
284.9,337.6793973,258.155,0.80022
284.8,10875.3578,257.907,0.797245
284.7,927.1052717,257.745,0.795301
284.6,9725.751967,258.532,0.804739
284.5,2950.815927,258.717,0.806949
284.4,4176.120532,258.038,0.798821
284.3,6514.644897,258.914,0.809307
284.2,1292.425011,258.248,0.801333
284.1,17179.61122,258.377,0.802881
284,10647.95842,258.548,0.804929
283.9,9727.939021,258.322,0.802229
283.8,12598.67981,259.455,0.815777
283.7,5512.971246,259.202,0.812746
283.6,12909.70745,258.515,0.804536
283.5,-6376.699886,258.967,0.809944
283.4,5470.293604,259.035,0.810756
283.3,7031.613001,259.255,0.813382
283.2,-2772.456775,257.942,0.797666
283.1,5824.257713,258.902,0.809171
283,18254.51117,258.721,0.807003
282.9,12548.31196,257.921,0.797421
282.8,8751.180602,257.287,0.789803
282.7,9056.538185,258.939,0.809605
282.6,8629.739824,258.457,0.803844
282.5,-86.31062234,258.205,0.800817
282.4,-1301.505245,259.006,0.810404
282.3,21115.34349,257.731,0.795138
282.2,12876.15753,258.563,0.805105
282.1,22150.97144,258.832,0.808332
282,4919.617268,258.577,0.805282
281.9,-3501.462861,259.012,0.810485
281.8,10707.61954,259.611,0.817629
281.7,12623.20105,259.297,0.813883
281.6,10922.71985,259.501,0.816318
281.5,7921.556441,258.339,0.802433
281.4,2871.835895,259.177,0.812449
281.3,2461.966513,258.352,0.802582
281.2,11059.43677,259.57,0.817142
281.1,11628.3672,257.708,0.794866
281,8072.978863,259.238,0.813179
280.9,-1687.198291,257.096,0.787515
280.8,-1944.262001,258.293,0.801876
280.7,5640.155586,257.715,0.794947
280.6,10353.84596,259.429,0.815466
280.5,1428.332013,257.86,0.796687
280.4,10862.69686,258.173,0.800437
280.3,11637.27826,257.585,0.793383
280.2,3111.054418,258.761,0.807478
280.1,15525.28208,257.825,0.796266
280,-16415.4155,258.27,0.801605
279.9,-1462.562694,257.78,0.795722
279.8,6796.745518,257.643,0.794077
279.7,-241.4874503,257.153,0.788196
279.6,12896.38496,257.587,0.79341
279.5,10527.7722,258.156,0.800233
279.4,8659.912355,258.326,0.80227
279.3,4869.780924,257.805,0.796021
279.2,7849.076733,259.021,0.810594
279.1,6859.125196,255.953,0.773741
279,-6357.923334,257.621,0.793818
278.9,2432.006807,257.527,0.792689
278.8,-3188.191625,257.954,0.797815
278.7,5311.688053,258.624,0.805837
278.6,7578.21151,257.85,0.796565
278.5,10042.62381,258.543,0.804875
278.4,7018.137851,260.034,0.822681
278.3,2145.53954,258.389,0.80303
278.2,9426.152648,259.161,0.812259
278.1,-7117.36951,258.727,0.807071
278,8776.724132,258.897,0.809104
277.9,9639.843925,258.276,0.801673
277.8,11693.27771,258.415,0.803342
277.7,7659.801984,257.215,0.788945
277.6,12370.55668,258.842,0.808454
277.5,-1352.608362,257.627,0.793886
277.4,-9024.824764,258.42,0.803396
277.3,6097.383405,258.556,0.805024
277.2,5160.530249,257.807,0.796049
277.1,7880.70353,258.022,0.798631
277,3692.944341,258.139,0.80003
276.9,1860.931608,257.935,0.797585
276.8,-303.9689045,258.131,0.799935
276.7,6277.048684,258.036,0.798794
276.6,16369.45795,258.762,0.807491
276.5,8082.281195,257.843,0.796483
276.4,13131.01383,257.721,0.795015
276.3,6386.721436,259.341,0.814411
276.2,10639.20341,258.141,0.800057
276.1,13166.04063,257.78,0.795722
276,18387.63154,258.55,0.804956
275.9,11615.01871,258.069,0.799188
275.8,18374.64989,258.252,0.801388
275.7,4376.268808,258.107,0.799649
275.6,9705.772195,258.318,0.802175
275.5,9379.145678,257.919,0.797394
275.4,12611.12249,257.809,0.796076
275.3,9050.990258,259.118,0.811745
275.2,16511.13475,258.667,0.806353
275.1,9842.902997,256.632,0.781924
275,12410.18828,258.044,0.798889
274.9,-5652.370975,258.899,0.809131
274.8,-2863.948929,258.619,0.805783
274.7,413.8893111,258.096,0.799514
274.6,7465.531841,258.623,0.805824
274.5,-700.5314067,256.802,0.783971
274.4,-488.3364635,257.363,0.790716
274.3,2019.467725,258.06,0.799079
274.2,16366.91129,257.602,0.793587
274.1,7745.248641,257.497,0.792335
274,11356.35372,257.015,0.786534
273.9,12588.70349,256.496,0.780286
273.8,5931.357249,257.273,0.78964
273.7,-3348.995538,257.713,0.79492
273.6,16083.62554,259.147,0.812097
273.5,6580.453297,257.697,0.79473
273.4,1351.608695,258.401,0.803165
273.3,6740.703096,258.539,0.80482
273.2,11421.26423,257.192,0.788659
273.1,8024.354401,258.341,0.802446
273,6747.43841,257.788,0.795818
272.9,3150.674707,258.075,0.799269
272.8,1591.46999,255.819,0.772127
272.7,11668.78135,257.785,0.79579
272.6,10328.88368,257.531,0.792743
272.5,1525.157233,257.061,0.787092
272.4,14604.48014,257.779,0.795709
272.3,2114.689407,257.507,0.792444
272.2,6734.585224,258.159,0.800274
272.1,-4260.689653,258.227,0.801089
272,4923.491543,258.312,0.802107
271.9,14272.64721,257.926,0.797476
271.8,6998.664698,257.86,0.796687
271.7,4805.666529,257.996,0.798318
271.6,7738.929479,257.563,0.793125
271.5,12928.92955,257.487,0.792213
271.4,-341.2551295,257.917,0.797367
271.3,-4326.023098,257.766,0.795559
271.2,1817.317853,257.502,0.79239
271.1,-10485.26147,257.368,0.790784
271,3264.534978,257.782,0.79575
270.9,10934.28614,257.84,0.796443
270.8,8448.21815,257.713,0.79492
270.7,4182.273912,257.107,0.787637
270.6,2479.463853,257.891,0.797054
270.5,1054.243926,258.124,0.799853
270.4,3104.965948,257.696,0.794716
270.3,12207.33728,257.871,0.796823
270.2,6260.632206,257.667,0.794376
270.1,9848.4464,257.828,0.796307
270,21209.58812,257.329,0.790307
269.9,1891.275123,258.365,0.802745
269.8,2708.256436,257.619,0.793791
269.7,9157.977253,257.798,0.79594
269.6,6641.984841,257.745,0.795301
269.5,-6236.156873,257.576,0.793274
269.4,19296.01725,257.467,0.791968
269.3,-4136.950319,257.494,0.792295
269.2,4622.304518,257.773,0.795641
269.1,6979.248088,257.529,0.792716
269,-3775.697324,256.834,0.784352
268.9,7640.32657,257.418,0.791383
268.8,-6050.31537,257.586,0.793397
268.7,1298.737163,257.398,0.791138
268.6,-6244.836561,257.303,0.789994
268.5,2921.780348,258.509,0.804468
268.4,-115.0725369,258.263,0.801523
268.3,4586.800504,258.464,0.803925
268.2,7311.255166,257.827,0.796293
268.1,2791.697652,258.054,0.799011
268,1050.593558,257.956,0.797843
267.9,-4219.124988,257.071,0.787215
267.8,-8537.319698,258.697,0.806719
267.7,701.836402,257.873,0.796837
267.6,2733.386076,257.869,0.796796
267.5,18130.52079,258.183,0.800559
267.4,15064.89015,257.964,0.797938
267.3,1808.48369,257.818,0.796184
267.2,-8628.715731,258.1,0.799568
267.1,9891.389112,257.606,0.793642
267,4642.646159,257.638,0.794022
266.9,963.8023265,257.662,0.794308
266.8,595.7880091,258.055,0.799025
266.7,9281.933709,257.858,0.79666
266.6,-2473.703328,257.819,0.796198
266.5,2070.83071,258.237,0.801211
266.4,-13376.13356,257.84,0.796443
266.3,8501.95591,257.318,0.790185
266.2,4316.756953,258.472,0.80402
266.1,14742.96343,257.609,0.793669
266,7302.877865,258.185,0.800586
265.9,2182.327514,257.995,0.798305
265.8,2759.23335,258.235,0.801184
265.7,-7726.671118,258.276,0.801673
265.6,-3031.388642,257.985,0.798182
265.5,1420.673929,258.363,0.802718
265.4,3013.362971,258.549,0.804942
265.3,9163.170094,258.419,0.803383
265.2,-4215.200277,258.096,0.799514
265.1,8002.818971,258.339,0.802433
265,10072.85357,257.989,0.798237
264.9,3482.376457,258.044,0.798889
264.8,-544.9768765,258.39,0.803043
264.7,901.2699843,258.075,0.799269
264.6,-12086.84121,257.891,0.797054
264.5,-2808.02321,258.284,0.801768
264.4,-5147.269959,258.848,0.808521
264.3,1509.395514,258.125,0.799867
264.2,-1866.169231,258.397,0.803125
264.1,11217.04717,258.571,0.8052
264,-1475.275655,258.605,0.805607
263.9,5394.651374,258.438,0.803613
263.8,-2536.913046,258.829,0.808291
263.7,6754.417986,259.151,0.812137
263.6,4971.432591,257.741,0.79526
263.5,-4235.074631,258.161,0.800301
263.4,7020.716178,258.329,0.80231
263.3,-3261.415881,257.67,0.794403
263.2,13797.67417,259.236,0.813152
263.1,-5976.462137,258.797,0.807912
263,5673.863817,259.144,0.812056
262.9,1071.204341,258.268,0.801577
262.8,-9570.968673,258.526,0.804671
262.7,-5176.96369,258.491,0.804251
262.6,-6583.796075,259.6,0.817507
262.5,-181.3305614,258.006,0.79844
262.4,6262.522979,257.691,0.794662
262.3,3692.437722,259.306,0.813991
262.2,-1577.716652,259.106,0.811609
262.1,-1921.694856,258.921,0.809388
262,-5933.29778,258.22,0.801007
261.9,2557.087323,258.375,0.802853
261.8,-15429.6352,258.786,0.807776
261.7,4831.223629,258.852,0.808562
261.6,-5477.072115,258.614,0.805715
261.5,10658.01163,258.575,0.805255
261.4,-3369.285161,259.076,0.811244
261.3,24070.03821,257.051,0.78697
261.2,7063.050495,257.362,0.790702
261.1,6853.254527,257.624,0.793859
261,4340.233298,258.172,0.800423
260.9,1479.731185,258.032,0.798753
260.8,5004.878466,259.275,0.813626
260.7,4917.201783,258.754,0.807396
260.6,3981.662668,258.953,0.809781
260.5,-2284.226837,259.134,0.811934
260.4,3249.438196,259.734,0.819102
260.3,-5152.917399,259.733,0.819088
260.2,-4818.922296,259.262,0.813464
260.1,9291.204377,259.037,0.810783
260,7161.30058,259.921,0.82133
259.9,2756.434961,260.184,0.824462
259.8,6316.245585,260.329,0.826188
259.7,12291.19397,260.237,0.825096
259.6,8550.062242,260.17,0.8243
259.5,-16287.85617,259.182,0.812516
259.4,9413.351481,259.137,0.811975
259.3,-326.9476772,259.248,0.813301
259.2,2052.671599,258.913,0.809293
259.1,1577.709867,259.407,0.815195
259,-1358.129148,259.657,0.818183
258.9,11930.65341,259.375,0.814816
258.8,2726.919904,259.793,0.819804
258.7,-485.0267965,259.049,0.810919
258.6,5718.749321,260.073,0.823139
258.5,-3172.427644,259.683,0.818494
258.4,-3543.86503,259.949,0.821668
258.3,805.030768,258.824,0.808237
258.2,9052.444525,259.826,0.820196
258.1,-4102.502515,260.451,0.827645
258,6720.433828,260.054,0.82291
257.9,-4735.898361,259.723,0.818967
257.8,-7607.468734,259.851,0.820493
257.7,3998.719657,259.777,0.819615
257.6,6312.829754,258.634,0.80596
257.5,2443.190865,259.753,0.819332
257.4,14438.34316,259.04,0.810811
257.3,2012.463496,260.028,0.8226
257.2,-1061.614774,260.536,0.828656
257.1,-9826.740959,260.289,0.825716
257,9915.984993,260.304,0.825892
256.9,7590.503796,260.474,0.827914
256.8,14134.2182,260.159,0.824165
256.7,5496.040685,260.644,0.829936
256.6,1359.011433,260.169,0.824287
256.5,-4491.241831,261.122,0.835616
256.4,-13258.14118,261.265,0.837311
256.3,6686.971443,259.96,0.82179
256.2,5593.420019,260.643,0.829922
256.1,-8421.62972,260.868,0.832602
256,2617.241498,260.892,0.832885
255.9,2747.422125,260.734,0.831
255.8,7139.69013,260.964,0.833733
255.7,8023.843643,260.911,0.833114
255.6,-1916.176332,261.348,0.838292
255.5,8112.728069,261.243,0.837056
255.4,9560.933553,261.094,0.83528
255.3,-5546.365554,262.191,0.84828
255.2,332.5860709,261.59,0.841168
255.1,1352.535988,261.371,0.838574
255,-13231.97342,261.409,0.839018
254.9,6348.089505,261.268,0.837351
254.8,14976.64126,261.307,0.837808
254.7,5530.75763,261.915,0.84502
254.6,-99.17737803,260.641,0.829895
254.5,-4190.425722,261.563,0.840845
254.4,18077.48641,261.886,0.844672
254.3,-6709.177396,261.643,0.841799
254.2,8741.324156,261.23,0.836894
254.1,-4965.319242,261.775,0.843356
254,3928.714238,261.092,0.835253
253.9,5674.628269,261.582,0.841074
253.8,17419.96331,260.994,0.834096
253.7,-9436.056589,261.282,0.837512
253.6,-7338.060718,261.762,0.843209
253.5,3272.462203,261.348,0.838292
253.4,5683.016878,262.122,0.847462
253.3,-4121.919126,262.145,0.847743
253.2,19003.58071,262.222,0.848655
253.1,1302.109343,262.083,0.847006
253,7831.81393,262.618,0.85333
252.9,3473.413379,261.903,0.844873
252.8,-9780.63188,261.982,0.845812
252.7,1256.310116,262.174,0.848079
252.6,4256.883228,262.286,0.849406
252.5,12027.00594,261.955,0.84549
252.4,7723.87793,262.49,0.851817
252.3,-1821.233517,262.326,0.849875
252.2,-8811.558685,262.541,0.85242
252.1,-6196.140109,262.412,0.850893
252,3307.518401,262.173,0.848065
251.9,10045.15238,262.821,0.855726
251.8,3322.513407,262.183,0.848186
251.7,263.4882682,262.441,0.851241
251.6,-3004.481313,261.582,0.841074
251.5,9940.550342,262.031,0.846389
251.4,-4059.953337,262.319,0.849794
251.3,9219.214777,260.309,0.825946
251.2,-11989.9979,262.503,0.851978
251.1,-7826.110852,262.146,0.847757
251,-6094.632059,262.262,0.849124
250.9,-8226.323722,262.312,0.849714
250.8,1401.705133,263.035,0.858254
250.7,-8050.205904,262.502,0.851964
250.6,1250.850396,262.25,0.848977
250.5,9101.666142,262.763,0.855044
250.4,6286.110146,262.651,0.853719
250.3,167.4736377,262.112,0.847354
250.2,8825.331473,262.364,0.85033
250.1,-9386.772098,264.339,0.873611
250,388.5719507,263.653,0.865547
249.9,-10581.6434,261.078,0.835092
249.8,-1901.172279,261.74,0.84294
249.7,3020.430752,262.35,0.850169
249.6,-5469.777938,262.616,0.853304
249.5,-3019.668563,262.624,0.853397
249.4,2615.830203,262.69,0.854187
249.3,6815.313995,263.28,0.861141
249.2,-10256.24046,261.936,0.845262
249.1,-1519.681681,262.489,0.851804
249,748.5968474,263.098,0.859002
248.9,2169.747993,262.907,0.856743
248.8,4222.503275,262.035,0.846442
248.7,-6227.208948,262.607,0.853196
248.6,-10980.37034,262.21,0.848507
248.5,-12585.46882,262.747,0.854856
248.4,-12950.64404,263.125,0.859323
248.3,6214.717632,263.06,0.858548
248.2,-3731.888385,262.96,0.857371
248.1,530.2442264,262.698,0.854281
248,3491.588322,262.742,0.854803
247.9,-6191.373371,262.821,0.855726
247.8,-9552.859319,262.662,0.853852
247.7,-6983.35984,261.8,0.843652
247.6,-13561.54014,261.692,0.842376
247.5,300.7686128,263.221,0.860446
247.4,-14291.39436,262.742,0.854803
247.3,-4010.881444,263.216,0.860392
247.2,-5958.705608,262.745,0.854829
247.1,-16139.57071,263.144,0.859537
247,-988.3380467,263.471,0.863398
246.9,-6721.019606,262.384,0.850571
246.8,6464.184326,263.154,0.859657
246.7,1231.61472,262.464,0.851509
246.6,-16180.1771,264.508,0.875595
246.5,-4353.525251,264.067,0.870414
246.4,-11507.83042,263.72,0.866334
246.3,-5974.367812,263.249,0.86078
246.2,-13272.00534,264.456,0.874983
246.1,-9412.035177,263.656,0.865573
246,-14213.01775,263.703,0.866134
245.9,-14418.73883,263.64,0.865387
245.8,-14766.43977,263.676,0.865814
245.7,-7345.291342,265.481,0.88701
245.6,-13945.53669,263.585,0.864746
245.5,499.1482475,263.382,0.862343
245.4,-17982.5497,263.606,0.864986
245.3,-10024.20235,264.048,0.870188
245.2,-16628.80597,263.545,0.864266
245.1,-16206.39009,264.441,0.87481
245,-13042.76042,263.438,0.863011
244.9,-17095.66407,264.286,0.872986
244.8,-19001.97491,264.135,0.871214
244.7,-9648.117188,263.276,0.8611
244.6,-7803.724642,263.738,0.866548
244.5,-23816.52536,264.162,0.871534
244.4,-11847.05003,264.443,0.874836
244.3,-17379.48357,264.212,0.87212
244.2,-15395.70985,264.452,0.874943
244.1,-13854.06941,263.846,0.867815
244,-28302.22605,264.008,0.869721
243.9,-16626.7026,263.987,0.869468
243.8,-31693.87028,264.299,0.873145
243.7,-10461.53182,264.295,0.873092
243.6,-28310.36813,263.981,0.869401
243.5,-13583.41747,264.52,0.875741
243.4,-16044.95064,265.011,0.881499
243.3,-30933.97402,264.988,0.881234
243.2,-19564.15872,265.006,0.881446
243.1,-27248.25578,264.493,0.875422
243,-16707.15092,264.86,0.879732
242.9,-26724.47095,264.686,0.877684
242.8,-14274.40907,265.094,0.882469
242.7,-26369.83792,264.86,0.879732
242.6,-13963.00825,265.073,0.88223
242.5,-27203.90404,264.95,0.880782
242.4,-24987.23276,265.932,0.892286
242.3,-26805.32637,265.452,0.886664
242.2,-37245.2206,266.063,0.893823
242.1,-27858.12055,265.224,0.883996
242,-50774.31227,266.035,0.893492
241.9,-29588.20049,265.417,0.886253
241.8,-38194.15796,265.352,0.885497
241.7,-39996.92862,264.818,0.87924
241.6,-24477.66264,265.366,0.885656
241.5,-31077.95322,265.31,0.885005
241.4,-43462.53917,265.778,0.890484
241.3,-54238.7015,265.839,0.8912
241.2,-33989.0878,266.023,0.893346
241.1,-40461.27624,265.713,0.889728
241,-38088.35609,265.925,0.892207
240.9,-42694.85366,266.27,0.896233
240.8,-47292.66633,266.434,0.898151
240.7,-45786.26756,266.412,0.8979
240.6,-40375.35463,266.665,0.900849
240.5,-53828.88323,266.666,0.900862
240.4,-50655.73185,267.471,0.910236
240.3,-56441.83656,266.999,0.904747
240.2,-47493.75321,267.428,0.909735
240.1,-47895.90435,267.091,0.905816
240,-53282.16485,266.449,0.898323
239.9,-57210.17797,266.637,0.900518
239.8,-72673.98731,267.471,0.910236
239.7,-60797.24128,267.275,0.907954
239.6,-54693.50479,267.348,0.908811
239.5,-41831.54388,267.421,0.909656
239.4,-58271.54396,267.913,0.915375
239.3,-65218.37071,268.341,0.920349
239.2,-69729.74159,268.34,0.920336
239.1,-73547.20328,268.378,0.920783
239,-53238.92134,268.684,0.924332
238.9,-70637.94591,268.442,0.921519
238.8,-70895.71075,268.668,0.924148
238.7,-86014.34093,269.616,0.935114
238.6,-84098.46314,269.762,0.936804
238.5,-74978.19731,268.886,0.926669
238.4,-72591.61655,268.85,0.926249
238.3,-81365.16527,269.566,0.934538
238.2,-89453.24091,269.945,0.938924
238.1,-92835.59864,269.395,0.932559
238,-71018.09081,270.075,0.940416
237.9,-94597.6815,270.02,0.939788
237.8,-107394.7771,270.308,0.943109
237.7,-94189.76305,269.95,0.938976
237.6,-104883.1701,270.897,0.9499
237.5,-107983.9474,270.706,0.947694
237.4,-103638.562,270.886,0.94977
237.3,-89530.81689,271.212,0.953525
237.2,-121316.159,271.433,0.956066
237.1,-94914.31813,271.088,0.952091
237,-109194.8564,271.677,0.958866
236.9,-110585.1174,271.442,0.956171
236.8,-102378.5744,272.115,0.9639
236.7,-120010.7114,272.036,0.96299
236.6,-119509.0685,272.423,0.967434
236.5,-128670.0447,273.811,0.983309
236.4,-120125.3791,272.206,0.96494
236.3,-128905.2605,271.923,0.961689
236.2,-129541.2478,273.587,0.980747
236.1,-105254.7658,273.337,0.977886
236,-118121.9739,272.945,0.973403
235.9,-144844.5224,273.439,0.979052
235.8,-130836.744,273.314,0.977627
235.7,-137772.4432,273.663,0.981614
235.6,-131205.8518,273.78,0.982947
235.5,-143981.009,274.219,0.987961
235.4,-137876.9333,274.344,0.989382
235.3,-153366.5711,273.975,0.985171
235.2,-148716.7622,274.964,0.996438
235.1,-148557.0869,274.73,0.993782
235,-158593.5634,274.95,0.996283
234.9,-152305.8384,275.746,1.00532
234.8,-165417.7613,275.585,1.00349
234.7,-167744.1359,275.304,1.0003
234.6,-159222.5395,275.654,1.00428
234.5,-162220.1837,276.346,1.01213
234.4,-178053.1461,276.097,1.0093
234.3,-184885.2599,276.867,1.01803
234.2,-177724.9749,276.542,1.01435
234.1,-162677.0451,276.323,1.01187
234,-177921.5157,276.013,1.00835
233.9,-179149.6135,276.855,1.01788
233.8,-196307.7002,276.915,1.01856
233.7,-192994.3241,277.946,1.0302
233.6,-199840.008,278.106,1.032
233.5,-197271.6326,278.689,1.03857
233.4,-195227.9693,278.722,1.03894
233.3,-206344.4029,278.9,1.04094
233.2,-228315.8188,279.159,1.04386
233.1,-213965.3943,279.851,1.05161
233,-207030.8259,279.417,1.04675
232.9,-214286.3282,279.938,1.05259
232.8,-216113.0954,279.701,1.04994
232.7,-211080.3823,279.99,1.05317
232.6,-234773.8491,280.638,1.06043
232.5,-230064.3315,280.851,1.06281
232.4,-234226.7462,280.202,1.05555
232.3,-235450.773,281.039,1.06491
232.2,-245840.7517,280.968,1.06411
232.1,-241535.172,281.289,1.06769
232,-255189.4482,282.29,1.07886
231.9,-258506.6693,281.608,1.07126
231.8,-241889.3527,283.372,1.09088
231.7,-258972.3513,284.025,1.09811
231.6,-267790.003,282.161,1.07742
231.5,-264050.072,283.567,1.09304
231.4,-265181.8218,283.682,1.09431
231.3,-258346.0893,284.155,1.09955
231.2,-279959.0272,283.464,1.0919
231.1,-267571.976,283.818,1.09581
231,-272957.739,284.157,1.09958
230.9,-289736.3141,284.82,1.10691
230.8,-267329.5228,285.737,1.11702
230.7,-265258.7193,284.956,1.10841
230.6,-290445.8063,285.545,1.11491
230.5,-297272.2659,284.981,1.10868
230.4,-284082.9932,286.163,1.12171
230.3,-297320.2137,285.42,1.11352
230.2,-281713.1942,285.957,1.11944
230.1,-293311.3678,286.478,1.12517
230,-301477.6527,286.726,1.1279
229.9,-310202.1227,286.322,1.12345
229.8,-302242.3302,285.993,1.11984
229.7,-308751.2485,286.221,1.12234
229.6,-322771.4662,286.292,1.12313
229.5,-322776.2157,286.873,1.12952
229.4,-330611.8415,287.008,1.131
229.3,-310628.9037,287.429,1.13561
229.2,-325945.5222,287.272,1.13389
229.1,-319534.5351,287.91,1.14088
229,-326157.8949,288.327,1.14544
228.9,-323602.6373,288.29,1.14503
228.8,-333682.086,289.535,1.15863
228.7,-329215.9263,288.936,1.15209
228.6,-344886.2732,289.925,1.16287
228.5,-344995.2866,290.031,1.16403
228.4,-354642.5263,290.574,1.16993
228.3,-352770.9776,290.356,1.16757
228.2,-364847.9511,290.847,1.17289
228.1,-342748.0712,292.289,1.18852
228,-370261.9851,291.348,1.17833
227.9,-373185.2198,291.935,1.18468
227.8,-351157.4878,292.189,1.18743
227.7,-368069.5026,292.311,1.18875
227.6,-371497.9989,292.567,1.19152
227.5,-381839.8036,293.404,1.20055
227.4,-377333.1596,293.668,1.2034
227.3,-390696.5825,293.378,1.20027
227.2,-385936.6292,293.556,1.20219
227.1,-389349.746,293.56,1.20222
227,-386110.3271,293.666,1.20337
226.9,-376004.1905,294.364,1.21088
226.8,-397796.2543,294.712,1.21462
226.7,-386248.5163,295.377,1.22175
226.6,-381273.2502,296.345,1.2321
226.5,-381499.193,294.905,1.21668
226.4,-393644.0172,293.92,1.2061
226.3,-420271.8009,296.075,1.22922
226.2,-404368.7261,295.891,1.22726
226.1,-416986.922,296.813,1.2371
226,-396819.4303,296.486,1.23362
225.9,-406189.6129,296.883,1.23785
225.8,-418057.6062,297.243,1.24169
225.7,-423274.4208,297.482,1.24424
225.6,-435331.2652,298.113,1.25096
225.5,-435962.9553,298.244,1.25234
225.4,-426377.9122,298.119,1.25102
225.3,-436417.5551,298.79,1.25815
225.2,-455847.2834,299.092,1.26135
225.1,-443680.747,298.747,1.25769
225,-413780.2976,298.72,1.2574
224.9,-422062.6072,299.574,1.26646
224.8,-420853.2814,299.846,1.26934
224.7,-440868.5614,299.762,1.26845
224.6,-426874.3532,300.538,1.27666
224.5,-435920.6617,300.529,1.27656
224.4,-442024.7375,300.424,1.27545
224.3,-435199.1825,301.245,1.28412
224.2,-448686.9984,301.387,1.28561
224.1,-431453.145,301.848,1.29047
224,-436952.8971,301.389,1.28563
223.9,-431288.7201,302.479,1.2971
223.8,-442907.0228,302.221,1.29439
223.7,-437022.5572,302.883,1.30134
223.6,-449484.9227,303.048,1.30307
223.5,-439163.6993,303.304,1.30576
223.4,-433624.3676,303.594,1.3088
223.3,-433094.9059,303.527,1.3081
223.2,-467424.8757,304.059,1.31366
223.1,-431686.3253,304.516,1.31844
223,-459034.005,305.149,1.32504
222.9,-443822.3289,304.992,1.32341
222.8,-448267.4548,305.614,1.3299
222.7,-456263.8868,304.684,1.3202
222.6,-440112.2522,306.392,1.33798
222.5,-445097.0175,305.285,1.32646
222.4,-439312.5185,306.987,1.34416
222.3,-456597.2599,305.351,1.32716
222.2,-457936.859,307.332,1.34775
222.1,-451334.7591,307.712,1.35168
222,-455037.146,307.849,1.3531
221.9,-447083.6862,308.916,1.36413
221.8,-438417.3416,308.319,1.35796
221.7,-445536.0115,308.338,1.35816
221.6,-424148.7903,309.387,1.369
221.5,-459497.8776,309.027,1.36528
221.4,-446532.2861,308.778,1.36271
221.3,-451824.415,308.951,1.3645
221.2,-427793.2779,309.759,1.37283
221.1,-450882.4211,309.823,1.37348
221,-464297.6366,310.505,1.3805
220.9,-464519.2823,309.585,1.37103
220.8,-450885.5874,312.131,1.39717
220.7,-447343.5544,312.182,1.39769
220.6,-446338.0069,311.948,1.39531
220.5,-479099.4945,312.267,1.39856
220.4,-451253.3383,312.543,1.40139
220.3,-441550.0087,312.872,1.40475
220.2,-450395.253,312.439,1.40033
220.1,-442682.6631,313.209,1.4082
220,-459107.5099,313.154,1.40763
219.9,-435069.8139,313.872,1.41495
219.8,-471275.1771,314.435,1.42069
219.7,-462463.8582,313.608,1.41226
219.6,-442002.5729,314.334,1.41966
219.5,-439275.653,315.199,1.42845
219.4,-452627.5412,315.386,1.43034
219.3,-458896.0419,314.758,1.42397
219.2,-455764.7317,315.208,1.42854
219.1,-447251.5036,315.946,1.43602
219,-433124.0818,315.551,1.43202
218.9,-444474.6003,316.615,1.4428
218.8,-427115.9017,316.62,1.44284
218.7,-440072.2203,317.042,1.44711
218.6,-434327.9795,317.689,1.45364
218.5,-436167.4121,316.982,1.44651
218.4,-416415.6191,319.068,1.46752
218.3,-452885.6001,319.225,1.46909
218.2,-434000.2605,318.097,1.45775
218.1,-454538.4433,318.801,1.46484
218,-441471.0757,319.365,1.47051
217.9,-427724.7487,319.193,1.46878
217.8,-451395.1462,319.664,1.47351
217.7,-434125.5582,319.74,1.47427
217.6,-453394.2542,319.582,1.47268
217.5,-444259.7397,321.424,1.49112
217.4,-435048.3278,322.374,1.50059
217.3,-445721.9225,322.071,1.49758
217.2,-443966.6247,321.219,1.48907
217.1,-443064.8888,323.126,1.50808
217,-442187.5792,321.968,1.49655
216.9,-421765.1949,324.248,1.51922
216.8,-452048.3224,323.782,1.5146
216.7,-433977.1913,323.681,1.51359
216.6,-452243.0539,324.888,1.52556
216.5,-433505.4027,324.632,1.52302
216.4,-432533.3283,325.661,1.5332
216.3,-407197.8744,325.698,1.53357
216.2,-436660.9129,325.096,1.52762
216.1,-449377.7186,326.611,1.54258
216,-443143.5956,326.623,1.54269
215.9,-446973.768,327.453,1.55086
215.8,-430125.759,328.025,1.55648
215.7,-429643.7928,328.816,1.56424
215.6,-424611.7583,328.253,1.55872
215.5,-434944.29,328.878,1.56485
215.4,-439124.3459,329.069,1.56672
215.3,-422019.4089,329.539,1.57132
215.2,-442451.9707,330.15,1.57729
215.1,-452163.6686,330.592,1.5816
215,-419273.0385,330.968,1.58527
214.9,-430124.402,330.517,1.58087
214.8,-436722.8832,331.668,1.59209
214.7,-432996.7486,331.815,1.59352
214.6,-443304.1756,332.266,1.5979
214.5,-425232.1399,332.682,1.60194
214.4,-394711.9873,333.031,1.60532
214.3,-436335.908,333.522,1.61008
214.2,-444566.1988,333.309,1.60801
214.1,-445547.0938,334.994,1.6243
214,-415286.5833,334.416,1.61872
213.9,-439227.9313,335.615,1.63029
213.8,-437309.7919,336.137,1.63531
213.7,-420521.9438,335.738,1.63148
213.6,-447858.9936,337.584,1.64921
213.5,-440460.1002,336.07,1.63467
213.4,-437013.0581,335.724,1.63134
213.3,-449497.5881,336.803,1.64172
213.2,-431958.4066,337.931,1.65253
213.1,-441505.6796,338.273,1.65581
213,-440339.3259,339.019,1.66294
212.9,-433870.2134,339.468,1.66723
212.8,-455919.8837,340.245,1.67464
212.7,-452073.8795,340.097,1.67322
212.6,-461979.178,340.337,1.67551
212.5,-431117.9625,342.653,1.6975
212.4,-413462.304,341.552,1.68706
212.3,-424328.3685,342.492,1.69597
212.2,-419019.7292,342.859,1.69945
212.1,-439319.5298,343.63,1.70673
212,-443186.3416,344.602,1.7159
211.9,-442851.1591,344.588,1.71577
211.8,-430798.6119,346.071,1.72971
211.7,-416131.5508,345.801,1.72718
211.6,-409115.7877,346.627,1.73493
211.5,-454566.4883,347.255,1.74081
211.4,-419578.3667,347.379,1.74198
211.3,-459530.6721,348.383,1.75136
211.2,-444639.7037,348.831,1.75554
211.1,-424205.3325,350.022,1.76663
211,-431786.292,349.565,1.76238
210.9,-414860.2547,351.334,1.77881
210.8,-429114.7835,351.761,1.78277
210.7,-429447.9305,352.317,1.78792
210.6,-426401.2076,352.35,1.78822
210.5,-420306.8571,353.493,1.79878
210.4,-414530.2741,354.226,1.80553
210.3,-461802.7661,354.34,1.80658
210.2,-417961.9367,354.979,1.81245
210.1,-421580.641,356.496,1.82637
210,-467460.6104,356.649,1.82777
209.9,-432187.0635,355.448,1.81676
209.8,-418214.7936,358.328,1.84311
209.7,-435446.1591,359.825,1.85674
209.6,-438543.3177,360.308,1.86112
209.5,-447056.772,360.281,1.86089
209.4,-427571.6323,361.191,1.86914
209.3,-404177.3871,362.585,1.88174
209.2,-426394.6487,363.644,1.89129
209.1,-435219.3116,364.589,1.89979
209,-449586.0202,364.852,1.90216
208.9,-437574.4096,367.402,1.92499
208.8,-425422.5742,368.208,1.93218
208.7,-437606.2994,367.782,1.92838
208.6,-421007.0764,369.04,1.93959
208.5,-433160.2688,369.273,1.94166
208.4,-409714.0047,368.862,1.938
208.3,-391613.4717,371.217,1.9589
208.2,-438182.3519,371.631,1.96257
208.1,-369191.5272,373.041,1.97502
208,-372514.8548,376.396,2.00448
207.9,-383535.1666,376.095,2.00185
207.8,-378407.0102,376.962,2.00944
207.7,-389265.1588,378.21,2.02032
207.6,-407026.8906,378.862,2.026
207.5,-379319.6022,379.298,2.02979
207.4,-365352.5342,381.173,2.04606
207.3,-400406.0186,381.794,2.05143
207.2,-399524.8641,382.792,2.06005
207.1,-375690.494,384.562,2.07529
207,-369678.9214,385.19,2.08068
206.9,-367984.0108,385.635,2.0845
206.8,-359335.7597,387.837,2.10333
206.7,-339367.749,388.4,2.10813
206.6,-347216.0403,389.783,2.1199
206.5,-319083.3279,390.19,2.12336
206.4,-350534.8445,392.429,2.14232
206.3,-296301.0961,393.906,2.15478
206.2,-333756.7217,394.86,2.16281
206.1,-278073.6822,395.59,2.16894
206,-358488.5305,396.533,2.17684
205.9,-328628.3392,399.427,2.201
205.8,-317269,400.028,2.20601
205.7,-283273.0819,400.482,2.20977
205.6,-282704.7192,402.723,2.22834
205.5,-296830.784,404.374,2.24197
205.4,-254541.474,405.945,2.25489
205.3,-242852.8327,406.454,2.25907
205.2,-311701.6234,409.244,2.28188
205.1,-277758.1765,409.965,2.28777
205,-223885.62,412.268,2.30647
204.9,-228916.2976,413.566,2.31698
204.8,-201449.653,415.426,2.33198
204.7,-220687.59,416.318,2.33917
204.6,-194132.4066,418.058,2.35313
204.5,-175025.8737,420.011,2.36874
204.4,-201275.9552,422.777,2.39075
204.3,-173033.3246,423.983,2.4003
204.2,-127574.8665,425.215,2.41005
204.1,-158215.1826,426.689,2.42168
204,-142284.7414,428.26,2.43402
203.9,-155957.5635,431.037,2.45576
203.8,-186510.7367,433.203,2.47264
203.7,-164867.9444,435.043,2.48692
203.6,-146423.8607,436.816,2.50062
203.5,-65754.02943,438.893,2.51662
203.4,-111652.2507,440.35,2.52781
203.3,-125224.812,441.872,2.53947
203.2,-61367.86572,444.144,2.5568
203.1,-33333.62735,445.851,2.56977
203,-96699.4476,447.633,2.58327
202.9,-76615.00514,449.955,2.60079
202.8,-79560.44955,451.488,2.61231
202.7,-70873.45572,453.401,2.62665
202.6,-90507.41473,455.057,2.63902
202.5,-68098.04518,456.903,2.65276
202.4,-100900.311,458.788,2.66675
202.3,-47443.72462,460.866,2.68211
202.2,3460.431277,463.525,2.70168
202.1,-47927.83942,466.171,2.72106
202,-49496.63822,469.145,2.74274
201.9,-16355.84936,471.618,2.76067
201.8,-23454.96025,473.997,2.77785
201.7,-28870.67927,475.994,2.79221
201.6,-15162.32603,478.895,2.81299
201.5,20207.00346,481.235,2.82967
201.4,-27161.92707,483.227,2.84381
201.3,107824.7018,485.363,2.85893
201.2,-2705.185061,486.614,2.86775
201.1,58622.64875,490.142,2.89254
201,53119.43624,492.624,2.90988
200.9,-9554.23895,495.318,2.92863
200.8,19980.83444,497.29,2.94229
200.7,49803.32342,499.174,2.95531
200.6,57186.67901,502.518,2.97831
200.5,110811.2411,505.597,2.99937
200.4,99280.51111,508.377,3.01829
200.3,36793.01825,510.607,3.0334
200.2,42870.54176,513.651,3.05395
200.1,61129.96984,516.254,3.07143
200,33461.77472,518.042,3.0834
199.9,108898.1678,522.377,3.11227
199.8,85090.6214,525.978,3.1361
199.7,99802.73538,528.641,3.15363
199.6,34151.70332,530.206,3.1639
199.5,144361.8777,533.466,3.18521
199.4,111685.0678,534.835,3.19412
199.3,176689.1207,537.072,3.20865
199.2,103309.0337,539.321,3.2232
199.1,76382.6617,543.068,3.24733
199,120585.633,544.891,3.25902
198.9,108680.1183,547.797,3.27759
198.8,98500.68032,552.108,3.30497
198.7,139208.3903,555.132,3.32408
198.6,85009.04224,558.299,3.34399
198.5,36210.70087,561.342,3.36303
198.4,161970.7193,565.303,3.38769
198.3,70545.84989,567.505,3.40133
198.2,169238.4346,571.251,3.42444
198.1,146746.83,573.768,3.4399
198,171358.543,576.599,3.45721
197.9,157587.5636,579.88,3.47719
197.8,134092.4244,583.004,3.49611
197.7,101113.8372,585.948,3.51387
197.6,154371.8924,588.801,3.53101
197.5,166764.1455,591.492,3.54712
197.4,106926.4715,593.677,3.56015
197.3,139893.886,597.584,3.58334
197.2,147965.881,601.054,3.60383
197.1,154721.0974,604.806,3.62588
197,106274.675,608.229,3.64589
196.9,178806.0628,610.811,3.66092
196.8,148238.1885,614.193,3.68052
196.7,141615.7334,617.765,3.70114
196.6,207545.3605,621.022,3.71983
196.5,144226.4024,624.625,3.74043
196.4,92469.52146,627.909,3.75911
196.3,164146.9176,631.665,3.78037
196.2,155023.4854,635.621,3.80266
196.1,108984.9715,638.66,3.81969
196,102603.6126,641.092,3.83327
195.9,96257.061,645.348,3.85694
195.8,127120.7869,648.51,3.87444
195.7,87011.06781,652.255,3.89507
195.6,129910.8532,654.697,3.90846
195.5,77485.95943,657.302,3.92271
195.4,132909.2438,660.621,3.94079
195.3,166316.557,662.941,3.95338
195.2,122425.9704,666.093,3.97043
195.1,155537.5676,668.08,3.98114
195,66773.96125,671.051,3.9971
194.9,139086.9376,673.776,4.01169
194.8,133319.4013,675.912,4.02309
194.7,187427.3997,678.811,4.03852
194.6,93352.19131,681.672,4.05368
194.5,88730.1107,684.016,4.06607
194.4,93950.61192,688.099,4.08756
194.3,80391.48501,689.319,4.09396
194.2,102971.6574,692.688,4.11159
194.1,114419.587,695.79,4.12774
194,139103.2217,699.192,4.1454
193.9,70355.77744,702.752,4.1638
193.8,156979.3951,705.491,4.1779
193.7,113860.3162,708.58,4.19374
193.6,93586.38933,711.136,4.20681
193.5,138273.6338,714.724,4.22508
193.4,136845.6026,715.39,4.22847
193.3,76362.71359,717.327,4.23829
193.2,89122.01638,718.174,4.24258
193.1,93405.09224,723.43,4.2691
193,135675.7659,723.614,4.27003
192.9,5355.768396,726.467,4.28435
192.8,73199.73982,729.998,4.30201
192.7,38706.38557,731.585,4.30993
192.6,147431.6698,735.174,4.32777
192.5,34045.75897,737.984,4.34168
192.4,120639.9136,741.759,4.36031
192.3,40253.26859,744.87,4.3756
192.2,48534.63505,746.696,4.38455
192.1,102014.8946,748.832,4.39499
192,107849.2864,752.284,4.41182
191.9,81289.69266,753.948,4.41991
191.8,135783.9652,757.061,4.435
191.7,77088.85186,759.512,4.44684
191.6,74304.28599,761.181,4.45488
191.5,81986.94914,763.914,4.46803
191.4,92479.15626,765.558,4.47591
191.3,93017.14452,768.769,4.49127
191.2,103605.5866,771.515,4.50436
191.1,44970.09141,774.818,4.52006
191,67683.40951,778.647,4.53819
190.9,51270.75327,779.972,4.54444
190.8,110137.9812,784.794,4.56712
190.7,73495.36534,789.357,4.58847
190.6,80797.72981,792.643,4.60379
190.5,73037.1469,795.251,4.6159
190.4,93643.83626,798.862,4.63262
190.3,38393.41287,800.528,4.64031
190.2,35325.13606,802.995,4.65167
190.1,82224.42662,806.271,4.66672
190,19686.2719,809.765,4.68271
,,,
##### Extended Information,,,
[Comments],,,
Sample name,Protein_AMSS,,
Comment,,,
User,ScharfMinor,,
Division,,,
Company,Saint Mary's College,,
,,,
[Detailed Information],,,
Creation date,9/27/22 14:37,,
,,,
Data array type,Linear data array * 3,,
Horizontal axis,Wavelength [nm],,
Vertical axis(1),CD [mdeg],,
Vertical axis(2),HT [V],,
Vertical axis(3),Abs,,
Start,320 nm,,
End,190 nm,,
Data interval,0.1 nm,,
Data points,1301,,
,,,
[Measurement Information],,,
Instrument name,J-1500,,
Model name,J-1500,,
Serial No.,B051061638,,
,,,
Detector,PM-539,,
Detector S/N,B051061638,,
Lock-in amp.,X mode,,
HT volt,Auto,,
,,,
Accessory,PTC-517,,
Accessory S/N,B026561646,,
Temperature,22.10 C,,
Control sensor,Holder,,
Monitor sensor,Holder,,
,,,
Measurement date,9/27/22 14:37,,
,,,
CD Overload detect,846,,
Photometric mode,CD,HT,Abs
Measure range,320 - 190 nm,,
Data pitch,0.1 nm,,
CD scale,20 mdeg/0.05 dOD,,
FL scale,20 mdeg/0.05 dOD,,
D.I.T.,8 msec,,
Bandwidth,1.00 nm,,
Start mode,Immediately,,
Scanning mode,Continuous,,
Scanning speed,50 nm/min,,
Baseline correction,None,,
Shutter control,Auto,,
No. of cycle,1-Jan,,
N2 Flowmeter,Manual,,
,,,
Solvent,NaPO4 buffer,,