TITLE,CC.SJ.9_28_22_PHOSPHATEBUFFER_CONTROL,,
DATA TYPE,,,
ORIGIN,JASCO,,
OWNER,,,
DATE,22/09/28,,
TIME,13:58:08,,
SPECTROMETER/DATA SYSTEM,,,
LOCALE,1033,,
RESOLUTION,,,
DELTAX,-0.1,,
XUNITS,NANOMETERS,,
YUNITS,CD [mdeg],,
Y2UNITS,HT [V],,
Y3UNITS,ABSORBANCE,,
FIRSTX,320,,
LASTX,190,,
NPOINTS,1301,,
FIRSTY,-0.19391,,
MAXY,6.42178,,
MINY,-3.32288,,
XYDATA,,,
320,-0.092295,208.503,0.151398
319.9,1.551053,208.644,0.153422
319.8,0.03667766667,208.212,0.147248
319.7,0.1973122333,208.236,0.147589
319.6,0.825562,208.419,0.150199
319.5,0.96427,208.292,0.148384
319.4,1.164362667,208.324,0.148838
319.3,1.259533333,207.771,0.140918
319.2,1.324448333,208.558,0.152192
319.1,-0.190399,207.883,0.142526
319,1.3852831,208.448,0.15062
318.9,1.433895667,208.219,0.147346
318.8,0.9112073333,208.073,0.145253
318.7,0.2629406333,208.304,0.148562
318.6,1.857924333,208.49,0.15122
318.5,0.7792603333,208.225,0.147427
318.4,1.311072667,207.95,0.143484
318.3,1.141646333,208.685,0.154005
318.2,1.288847333,208.622,0.153098
318.1,1.582393333,207.707,0.140008
318,0.7882788,208.746,0.154879
317.9,1.375038667,208.053,0.144961
317.8,0.7807644467,208.18,0.146778
317.7,1.070422667,208.236,0.147589
317.6,0.09275,208.122,0.145951
317.5,0.5110508667,208.273,0.148108
317.4,-0.01699933333,208.339,0.149064
317.3,0.5480172333,207.714,0.140105
317.2,0.7005126667,207.922,0.143094
317.1,0.375889,207.861,0.142217
317,0.2959941,207.686,0.139699
316.9,0.1022509,208.507,0.151463
316.8,-0.1187973333,208.317,0.14874
316.7,0.5252566667,208.361,0.149372
316.6,1.38521,207.844,0.141974
316.5,1.141544667,207.845,0.14199
316.4,0.6958033333,207.36,0.135032
316.3,0.3838713667,208.2,0.14707
316.2,0.8431656667,208.069,0.145188
316.1,0.5810013333,208.274,0.148124
316,0.687566,208.086,0.145432
315.9,0.8498943333,207.563,0.137943
315.8,1.66886,207.602,0.138496
315.7,0.4225986667,207.865,0.142266
315.6,1.050795667,207.808,0.141454
315.5,1.522128267,208.319,0.148773
315.4,0.8131546667,208.052,0.144945
315.3,-0.101266,208.112,0.145805
315.2,0.8935983333,207.807,0.141438
315.1,0.7122613333,207.406,0.135683
315,0.67312,207.417,0.135846
314.9,1.039658,207.701,0.139927
314.8,1.795143333,207.95,0.143484
314.7,0.9664543333,207.63,0.138903
314.6,0.4507286667,207.561,0.137911
314.5,0.8938176667,207.75,0.140625
314.4,0.7549946667,207.964,0.143695
314.3,1.625096667,207.636,0.138984
314.2,0.06188133333,207.609,0.138594
314.1,0.72008,208.016,0.144442
314,0.06615,207.593,0.138366
313.9,0.4595290333,207.766,0.140853
313.8,2.136746667,207.61,0.13861
313.7,1.071738,207.312,0.134332
313.6,0.8606802,206.473,0.122268
313.5,1.308255667,208.039,0.144766
313.4,0.8830146667,208.503,0.151398
313.3,0.9368673333,207.399,0.135585
313.2,-0.1255626667,208.355,0.149291
313.1,0.9005166667,207.061,0.130733
313,1.479712667,207.501,0.137049
312.9,0.594491,207.186,0.132525
312.8,1.176353333,207.171,0.132313
312.7,1.326027333,206.421,0.121517
312.6,1.019546333,207.551,0.137765
312.5,1.138849333,207.428,0.136008
312.4,1.07499,207.262,0.133616
312.3,0.187855,207.39,0.135455
312.2,1.190696667,207.637,0.139
312.1,0.3870562667,207.997,0.144166
312,0.106793,208.397,0.149891
311.9,1.564932333,206.928,0.12881
311.8,2.169843333,206.792,0.126854
311.7,1.02589,207.39,0.135455
311.6,1.685968667,208.032,0.144669
311.5,1.040623333,207.2,0.13272
311.4,0.8922076667,207.833,0.141811
311.3,1.232597,207.333,0.134641
311.2,0.7296773333,207.674,0.139537
311.1,0.7514596667,207.508,0.137147
311,0.8504313333,207.499,0.137017
310.9,1.008868513,207.554,0.137814
310.8,1.349549,207.49,0.136886
310.7,0.336389,207.444,0.136236
310.6,-0.2376039,207.348,0.134853
310.5,1.470211333,207.367,0.13513
310.4,0.616129,207.065,0.130782
310.3,0.355022,207.834,0.141827
310.2,1.918803333,207.364,0.135081
310.1,0.9555336667,207.764,0.14082
310,0.763466,207.186,0.132525
309.9,1.324076667,207.456,0.136398
309.8,0.5686513,207.59,0.138334
309.7,2.33779,207.544,0.137667
309.6,1.753983333,207.177,0.132395
309.5,1.51965,207.696,0.139846
309.4,-0.06176633333,207.527,0.137423
309.3,0.8243166667,207.772,0.140934
309.2,-0.6260693333,208.369,0.149486
309.1,1.6225,207.681,0.139634
309,1.066342667,207.762,0.140788
308.9,1.546929,207.213,0.132916
308.8,1.94874,207.948,0.143468
308.7,0.6855546667,207.756,0.140707
308.6,1.635946667,207.948,0.143468
308.5,0.4664633333,207.411,0.135764
308.4,0.04866833333,207.377,0.135276
308.3,0.1848473333,207.164,0.132216
308.2,0.3778636667,207.351,0.134902
308.1,1.258893333,207.153,0.132053
308,1.368177667,207.263,0.133632
307.9,0.7345586667,207.456,0.136398
307.8,0.8127623333,207.988,0.144036
307.7,0.951204,207.571,0.138057
307.6,1.479926667,207.996,0.14415
307.5,0.9308543333,207.524,0.137374
307.4,0.683132,207.282,0.133909
307.3,0.9630393333,206.848,0.127669
307.2,1.312564667,207.627,0.138854
307.1,1.582956333,207.003,0.129902
307,0.010292,208.028,0.144604
306.9,0.2969488333,207.406,0.135683
306.8,1.534783,207.99,0.144068
306.7,0.518899,207.419,0.135878
306.6,0.70811,207.713,0.140089
306.5,-0.8157156667,207.794,0.141259
306.4,0.466393,207.522,0.137358
306.3,0.902293,207.8,0.14134
306.2,0.263368,207.822,0.141649
306.1,0.967378,207.515,0.137244
306,0.8382603333,207.677,0.139569
305.9,1.310731,207.377,0.135276
305.8,0.9595523333,207.107,0.131385
305.7,0.5421276667,207.18,0.132444
305.6,0.5432393333,207.019,0.13013
305.5,1.444493967,207.9,0.14277
305.4,0.695387,207.462,0.136496
305.3,1.286039333,207.674,0.139537
305.2,0.853582,207.33,0.134592
305.1,0.5811343333,208.22,0.147362
305,0.8106698,207.391,0.135471
304.9,0.8887656667,207.145,0.131939
304.8,0.02607233333,206.878,0.128093
304.7,1.149453667,208.275,0.14814
304.6,0.4999166667,207.885,0.142558
304.5,1.392165333,207.45,0.136317
304.4,0.725485,207.585,0.138252
304.3,1.122420667,207.525,0.137391
304.2,1.362036333,207.381,0.135325
304.1,1.1867618,207.193,0.132623
304,0.5881878133,207.789,0.141178
303.9,-0.2185386667,207.324,0.134511
303.8,1.330553,206.721,0.125842
303.7,0.918155,206.824,0.127327
303.6,1.76952,207.136,0.131808
303.5,0.8940536667,207.4,0.135602
303.4,0.485102,207.11,0.131434
303.3,1.438005,207.49,0.136886
303.2,0.3916726667,207.326,0.134544
303.1,1.378976667,206.839,0.127539
303,0.7339006667,207.339,0.134723
302.9,0.7831046667,206.64,0.124667
302.8,0.4737153333,206.989,0.12969
302.7,1.49674,206.862,0.127865
302.6,0.5215023333,207.384,0.135374
302.5,0.9698636667,207.305,0.134234
302.4,0.09875706333,207.263,0.133632
302.3,0.1482251667,206.504,0.122709
302.2,1.002643,206.776,0.126625
302.1,0.5745038667,207.633,0.138952
302,1.652927333,207.333,0.134641
301.9,1.715074333,207.234,0.133209
301.8,0.3852733333,207.18,0.132444
301.7,0.1373533333,207.299,0.134153
301.6,0.6463128333,206.938,0.128957
301.5,0.9435446667,207.1,0.131287
301.4,0.56277585,206.621,0.12439
301.3,1.117170667,206.749,0.126234
301.2,1.141255667,206.78,0.126691
301.1,0.014085,206.929,0.128826
301,1.085821667,206.989,0.12969
300.9,0.2110531667,206.818,0.127229
300.8,1.134959,206.7,0.125532
300.7,1.042366,206.727,0.125924
300.6,0.861503,206.828,0.127376
300.5,0.2915146667,207.093,0.131189
300.4,0.8897633333,207.212,0.132899
300.3,0.5457327667,206.695,0.125467
300.2,1.333593967,206.398,0.12119
300.1,0.8217105667,206.729,0.125956
300,-0.2359166667,207.232,0.133193
299.9,0.5207003333,206.5,0.12266
299.8,0.954856,206.852,0.127718
299.7,1.416416667,206.724,0.125875
299.6,0.6940033333,206.376,0.120863
299.5,0.667224,207.264,0.133649
299.4,0.8203093333,206.938,0.128957
299.3,1.03843,206.317,0.120013
299.2,0.8014953333,206.974,0.129478
299.1,0.2374973,206.59,0.12395
299,0.423481,207.124,0.131629
298.9,1.2616829,206.729,0.125956
298.8,0.7512533667,206.87,0.127979
298.7,0.148927,205.966,0.114944
298.6,0.2216026667,206.368,0.120749
298.5,0.8566416667,207.144,0.131922
298.4,0.615174,206.039,0.116008
298.3,0.5326603333,206.93,0.128843
298.2,0.7524556333,207.354,0.134934
298.1,0.577211,206.839,0.127539
298,1.036559667,207.375,0.135243
297.9,0.670786,206.659,0.124945
297.8,0.459338,206.684,0.125304
297.7,0.2277576667,206.358,0.120602
297.6,0.1263553333,207.326,0.134544
297.5,1.027279667,206.7,0.125532
297.4,0.131999,206.682,0.125271
297.3,1.461243,206.781,0.126707
297.2,0.1810193333,206.489,0.122496
297.1,1.404817,206.606,0.124178
297,1.137236333,207.085,0.131075
296.9,0.4329938333,206.273,0.119376
296.8,0.5496986667,206.329,0.120193
296.7,1.122796667,206.764,0.126462
296.6,0.188895,206.116,0.11712
296.5,0.2359451,207.025,0.130212
296.4,0.2168996667,206.953,0.129169
296.3,1.442229333,206.785,0.126756
296.2,0.4074623333,206.583,0.123851
296.1,0.294324,206.345,0.120422
296,1.905719,206.843,0.127587
295.9,0.7532076667,206.523,0.122986
295.8,0.7480523333,206.858,0.127816
295.7,1.203671467,206.24,0.118902
295.6,-0.0002923333333,206.176,0.117987
295.5,0.4412460333,206.489,0.122496
295.4,1.414634667,206.966,0.129365
295.3,0.86315,206.15,0.117611
295.2,0.7368139333,206.803,0.127017
295.1,0.2651865333,207.026,0.130228
295,0.54326,206.321,0.120079
294.9,2.296033333,205.884,0.113766
294.8,1.383233333,206.188,0.11815
294.7,1.018458667,206.082,0.116629
294.6,0.525376,206.116,0.11712
294.5,0.9273113333,206.832,0.127441
294.4,0.1549953333,206.792,0.126854
294.3,1.166498,206.812,0.127147
294.2,0.5913,205.941,0.114584
294.1,1.46784,205.951,0.114732
294,0.2770843333,206.097,0.116842
293.9,1.70601,206.513,0.122839
293.8,0.47652,206.341,0.120357
293.7,0.109953,206.23,0.118755
293.6,0.243026,206.644,0.124733
293.5,0.0851631,206.42,0.1215
293.4,1.151254667,206.838,0.127522
293.3,-0.2597766667,206.406,0.121304
293.2,0.5100078667,206.699,0.125516
293.1,0.8380763333,206.258,0.119164
293,1.491734,206.364,0.1207
292.9,1.42346,206.316,0.119997
292.8,-0.5577753333,206.199,0.118314
292.7,0.6956643333,206.839,0.127539
292.6,1.74423,206.227,0.118722
292.5,1.215761333,206.148,0.117578
292.4,0.945745,205.755,0.111899
292.3,-0.002950966667,206.202,0.118363
292.2,0.7444946667,205.976,0.115092
292.1,1.201002,206.12,0.117169
292,1.09056,205.586,0.109458
291.9,0.263499,205.423,0.107098
291.8,0.5843631333,205.642,0.110261
291.7,0.96542,206.049,0.116155
291.6,1.535601667,205.765,0.112047
291.5,0.838831,205.239,0.10444
291.4,1.079489,206.14,0.117463
291.3,0.6609809067,205.537,0.108754
291.2,1.066829667,204.598,0.0951396
291.1,0.7939753333,204.848,0.0987739
291,0.1579323333,205.031,0.101419
290.9,0.9496833333,206.069,0.116433
290.8,0.8567103333,205.34,0.1059
290.7,0.745939,205.941,0.114584
290.6,0.362041,205.91,0.114143
290.5,0.443023,206.59,0.12395
290.4,0.8335255333,205.374,0.106393
290.3,-0.789947,206.013,0.115632
290.2,1.842463333,205,0.100976
290.1,-0.165202,205.801,0.112571
290,1.0641105,206.183,0.118085
289.9,0.6514786667,206.814,0.12718
289.8,-0.07508566667,206.545,0.123297
289.7,0.7755002,205.161,0.103308
289.6,0.4714263333,205.933,0.11447
289.5,1.564365,207.189,0.132574
289.4,0.8975416667,206.006,0.115534
289.3,0.8402026667,205.689,0.11095
289.2,0.9672023333,205.768,0.112096
289.1,0.7152023333,205.621,0.109967
289,0.6422656667,206.038,0.115991
288.9,0.4530004,205.892,0.11388
288.8,1.722767333,206.576,0.123753
288.7,0.7699176667,205.365,0.106261
288.6,1.068699,205.689,0.11095
288.5,0.432242,205.306,0.105408
288.4,1.023268333,207.166,0.132232
288.3,0.6743586667,206.255,0.119115
288.2,0.3112463333,206.296,0.119719
288.1,0.2880676667,206.281,0.119491
288,1.088588333,206.431,0.121664
287.9,0.7847776667,205.742,0.111719
287.8,-0.09414766667,206.366,0.120716
287.7,0.6538656667,206.424,0.121565
287.6,1.226999667,205.259,0.104719
287.5,1.165411867,205.048,0.101666
287.4,1.0001188,206.523,0.122986
287.3,0.9740493333,206.213,0.11851
287.2,0.8694346667,206.006,0.115534
287.1,1.008526,205.695,0.111032
287,0.352449,206.502,0.122676
286.9,0.2196543333,206.112,0.117055
286.8,0.7837263333,205.849,0.113259
286.7,0.5792596667,206.026,0.115812
286.6,0.5836106667,205.986,0.115239
286.5,0.556963,205.632,0.11013
286.4,0.4216086667,205.643,0.110278
286.3,1.231146,205.629,0.110081
286.2,-0.3301076667,206.096,0.116826
286.1,0.8438743333,206.831,0.127424
286,0.651575,206.171,0.117905
285.9,0.6794116667,206.026,0.115812
285.8,-0.093171,206.18,0.118036
285.7,0.499878,205.606,0.109753
285.6,0.916604,206.247,0.119
285.5,0.4649113333,206.368,0.120749
285.4,0.7877953533,205.485,0.108
285.3,0.3749137,206.027,0.115828
285.2,0.9766883333,207.01,0.13
285.1,1.11984,205.521,0.108524
285,0.9759016667,205.94,0.114568
284.9,0.8494666667,205.907,0.114093
284.8,0.9216026667,206.015,0.115664
284.7,1.512763333,206.081,0.116613
284.6,0.7869146667,206.581,0.123819
284.5,0.7150766667,206.31,0.119915
284.4,0.12840455,206.014,0.115648
284.3,0.3233520167,205.793,0.112456
284.2,0.9584873333,205.843,0.113177
284.1,0.5769993333,205.474,0.107836
284,0.9373836667,206.173,0.117938
283.9,1.263006667,206.097,0.116842
283.8,0.2352733333,205.724,0.111457
283.7,0.3575268,205.74,0.111687
283.6,-0.04800233333,206.168,0.117872
283.5,1.212495333,206.086,0.116679
283.4,0.2381744,206.703,0.125581
283.3,0.3264213333,206.061,0.116319
283.2,0.7294246667,205.362,0.106212
283.1,0.9004406667,205.447,0.107442
283,1.544456667,206.54,0.123231
282.9,0.6063348353,206.251,0.119066
282.8,0.9470633333,205.365,0.106261
282.7,0.4843113333,206.24,0.118902
282.6,0.759525,205.736,0.111621
282.5,1.2867507,206.291,0.119638
282.4,0.4143116,206.843,0.127587
282.3,0.737144,205.919,0.114273
282.2,1.159076,205.941,0.114584
282.1,0.841731,204.683,0.0963734
282,0.5134300667,205.852,0.113308
281.9,1.317062,206.039,0.116008
281.8,-0.05985286667,205.912,0.114175
281.7,0.845221,204.919,0.099793
281.6,0.01558266667,206.099,0.116875
281.5,1.711906667,207.127,0.131678
281.4,1.33223,206.061,0.116319
281.3,0.68965,206.54,0.123231
281.2,0.5565644667,206.513,0.122839
281.1,0.7710056667,205.666,0.110622
281,2.074353333,205.819,0.112833
280.9,0.43848,205.672,0.110704
280.8,0.1365763333,205.598,0.109639
280.7,0.54725,205.788,0.112374
280.6,0.6937269,206.844,0.127604
280.5,1.500443333,205.087,0.10224
280.4,0.378274,205.575,0.109294
280.3,0.9670496667,205.98,0.115157
280.2,1.379186333,207.262,0.133616
280.1,0.8833683333,205.739,0.11167
280,0.9606601667,205.823,0.112882
279.9,0.9278344333,205.722,0.111424
279.8,0.2245141333,205.158,0.103258
279.7,0.2110583333,205.749,0.111818
279.6,0.4300093333,205.784,0.112325
279.5,0.6238763333,206.286,0.119572
279.4,0.9733226667,206.089,0.116727
279.3,-0.3360676667,205.838,0.113095
279.2,1.035778667,206.218,0.118592
279.1,0.5292459667,205.529,0.108639
279,1.524738333,205.593,0.109557
278.9,1.065009,205.689,0.11095
278.8,1.063274,205.836,0.113079
278.7,0.2047713667,206.074,0.116515
278.6,-0.4981435333,205.833,0.113029
278.5,0.9435686667,205.768,0.112096
278.4,1.2717439,206.261,0.119213
278.3,0.965819,205.649,0.110376
278.2,-0.1049231333,206.59,0.12395
278.1,0.8138036333,206.23,0.118755
278,0.25951,206.093,0.116777
277.9,0.7193033333,206.437,0.121745
277.8,0.250993,205.925,0.114355
277.7,1.306478667,206.094,0.116793
277.6,1.418277667,206.562,0.123541
277.5,-0.4492926667,206.072,0.116482
277.4,0.1218843333,206.428,0.121615
277.3,0.574759,205.11,0.102569
277.2,0.4232780333,206.245,0.118984
277.1,0.504098,206.269,0.119327
277,0.752738,205.548,0.108901
276.9,1.189336667,205.853,0.113324
276.8,0.4438421667,205.912,0.114175
276.7,0.8632853333,206.025,0.115795
276.6,-0.1010283667,206.167,0.117856
276.5,0.8888356667,205.703,0.111146
276.4,0.4042613333,205.508,0.108328
276.3,0.4296198,206.059,0.116286
276.2,0.4225623333,206.217,0.118575
276.1,0.995928,206.052,0.116188
276,1.606376667,206.443,0.121827
275.9,0.7098293333,205.814,0.112751
275.8,-0.6644443333,206.028,0.115844
275.7,0.734274,206.3,0.119768
275.6,1.255538333,205.682,0.110851
275.5,0.09411566667,206.477,0.122317
275.4,0.3985066667,206.125,0.117251
275.3,0.5474876667,205.903,0.114044
275.2,0.5093563333,206.19,0.118183
275.1,0.4058783333,205.903,0.114044
275,1.216013833,205.664,0.110589
274.9,0.2861256667,206,0.115435
274.8,0.3484766667,206.231,0.118771
274.7,0.401065,205.686,0.1109
274.6,1.000213667,205.92,0.11429
274.5,0.8549166667,205.994,0.115353
274.4,0.398751,205.349,0.106032
274.3,0.07541133333,205.81,0.112702
274.2,-0.3802903333,206.248,0.119017
274.1,0.86108,205.882,0.113733
274,0.7081356667,206.121,0.117186
273.9,-0.1380744667,205.926,0.114371
273.8,0.0213755,206.153,0.117643
273.7,0.856587,206.333,0.120242
273.6,-0.9495660333,206.145,0.117529
273.5,0.692905,205.989,0.115288
273.4,0.4584233333,206.693,0.125435
273.3,0.07550933333,206.379,0.120912
273.2,-0.1667113333,206.536,0.123166
273.1,1.733266667,206.685,0.12532
273,0.1113663333,206.275,0.119409
272.9,0.9708113333,206.559,0.123509
272.8,0.09870533333,206.049,0.116155
272.7,-0.278673,206.08,0.116597
272.6,0.4314183333,205.791,0.112424
272.5,0.5912426667,206.242,0.118935
272.4,0.7780066667,205.838,0.113095
272.3,0.7809436667,206.107,0.116989
272.2,-0.03740343333,206.39,0.121075
272.1,0.9325073333,206.468,0.122186
272,1.219079333,206.642,0.1247
271.9,0.5108156667,206.599,0.12408
271.8,-0.097892,206.783,0.126723
271.7,0.937561,207.074,0.130913
271.6,0.4457316333,205.41,0.106917
271.5,0.7362803333,206.137,0.117415
271.4,0.3114993333,206.247,0.119
271.3,0.2848813333,206.236,0.118853
271.2,0.7845583333,206.656,0.124896
271.1,1.38129,205.809,0.112686
271,0.817692,206.676,0.12519
270.9,0.365986,206.767,0.126495
270.8,0.6195783333,206.447,0.121892
270.7,0.5060363333,206.844,0.127604
270.6,0.9085756667,206.679,0.125239
270.5,0.3396357,206.652,0.124847
270.4,0.843845,206.857,0.1278
270.3,-0.4089038667,206.695,0.125467
270.2,0.8938423333,206.571,0.123672
270.1,0.1353493333,206.797,0.126935
270,0.7377393333,206.274,0.119393
269.9,0.972915,206.26,0.119196
269.8,0.614174,206.421,0.121517
269.7,0.9857066667,206.41,0.121353
269.6,-0.1432613333,206.492,0.122545
269.5,0.0265494,206.786,0.126772
269.4,0.322411,206.48,0.122366
269.3,0.7668889333,206.466,0.12217
269.2,0.09612733333,206.907,0.128517
269.1,-0.043488,207.204,0.132786
269,0.094772,207.345,0.134804
268.9,0.391487,207.286,0.133958
268.8,-0.576797,207.073,0.130896
268.7,1.985703333,207.42,0.135894
268.6,0.7074786667,207.656,0.139277
268.5,0.1711487333,207.42,0.135894
268.4,0.0671531,207.311,0.134316
268.3,0.2857687,206.567,0.123623
268.2,0.8368096667,206.923,0.128745
268.1,0.6906366667,206.739,0.126103
268,0.6370973333,207.352,0.134918
267.9,0.058089,207.436,0.136122
267.8,0.032518,207.413,0.13578
267.7,0.4823063333,207.163,0.132199
267.6,1.021196667,207.088,0.131124
267.5,1.2543007,207.411,0.135764
267.4,0.19125,206.932,0.128876
267.3,0.5362047333,206.8,0.126968
267.2,0.22547,207.571,0.138057
267.1,0.7542423333,207.545,0.137683
267,-0.128106,207.807,0.141438
266.9,0.3073956667,206.886,0.128207
266.8,0.8081316667,207.104,0.131352
266.7,0.820825,207.844,0.141974
266.6,0.8139186667,207.614,0.138675
266.5,-0.407715,208.377,0.149599
266.4,0.726408,206.614,0.124292
266.3,0.8226070333,207.45,0.136317
266.2,0.184614,207.675,0.139553
266.1,0.362558,207.911,0.142932
266,0.7161566667,207.565,0.137976
265.9,-0.0312007,208.072,0.145237
265.8,0.897288,207.697,0.139862
265.7,1.089165,207.544,0.137667
265.6,0.4471836333,207.829,0.141762
265.5,0.2832698333,208.377,0.149599
265.4,1.079445333,207.798,0.141308
265.3,1.222350333,207.121,0.131597
265.2,0.9340066667,207.633,0.138952
265.1,1.053241,207.993,0.144101
265,1.078541333,207.274,0.133795
264.9,0.5122873333,207.995,0.144133
264.8,0.2394003333,207.528,0.137439
264.7,0.104159,207.775,0.140983
264.6,1.026380067,207.52,0.137326
264.5,0.6527216667,208.143,0.146259
264.4,0.1400996667,208.06,0.145058
264.3,0.3826279,207.309,0.1343
264.2,0.9282626667,207.655,0.13926
264.1,1.140012,208.066,0.145156
264,0.645205,207.948,0.143468
263.9,0.9756513333,208.164,0.146551
263.8,-0.2247153333,207.945,0.143419
263.7,1.272721567,208.62,0.153082
263.6,1.000981667,207.792,0.141227
263.5,0.4599693,208.337,0.149032
263.4,0.712493,208.19,0.146924
263.3,0.1399541333,208.363,0.149405
263.2,0.8922123333,207.576,0.138123
263.1,0.2297326667,208.987,0.158325
263,-0.1367823333,208.36,0.149356
262.9,0.4399743333,209.511,0.165787
262.8,0.9027663333,207.936,0.143289
262.7,1.41835,207.281,0.133893
262.6,0.6485584667,208.52,0.151641
262.5,0.3564906667,208.359,0.14934
262.4,0.283954,208.636,0.153309
262.3,1.3059,208.825,0.156012
262.2,-0.205483,208.897,0.157031
262.1,1.171084333,208.205,0.147135
262,0.4297056667,209.436,0.164722
261.9,0.7169176667,208.999,0.158486
261.8,-0.5901106667,208.475,0.151009
261.7,1.195217667,209.142,0.160523
261.6,0.358324,208.566,0.152305
261.5,0.462817,208.863,0.156546
261.4,0.9889863333,208.385,0.149713
261.3,0.064864,208.522,0.151673
261.2,1.36269,208.422,0.150248
261.1,-0.544308,209.698,0.168448
261,0.116026,208.65,0.153503
260.9,0.643035,208.895,0.156998
260.8,0.7374173333,208.48,0.151074
260.7,0.1717886667,208.627,0.153179
260.6,-0.2677934333,208.733,0.154685
260.5,0.4682576667,208.717,0.154458
260.4,-0.2554046333,209.217,0.161605
260.3,0.1939833333,209.357,0.163592
260.2,0.1149036667,209.358,0.163608
260.1,-0.4073776667,209.016,0.158729
260,1.079464333,209.329,0.163188
259.9,-0.09416933333,209.006,0.158583
259.8,0.3077413333,209.335,0.163285
259.7,0.5205966667,208.87,0.156643
259.6,1.153122667,209.431,0.164641
259.5,0.3488143333,209.374,0.163834
259.4,0.4840606667,209.144,0.160555
259.3,1.716749,209.655,0.167836
259.2,0.2877207667,208.728,0.15462
259.1,0.539823,209.347,0.163446
259,0.2444773333,209.324,0.163123
258.9,-0.06800266667,209.594,0.166965
258.8,-0.3736363333,209.033,0.158971
258.7,-0.285039,209.415,0.164415
258.6,1.002816333,209.617,0.167303
258.5,0.9660425,209.631,0.167497
258.4,0.5023226333,209.833,0.170366
258.3,0.3697616667,209.858,0.170721
258.2,0.3847144667,210.126,0.174538
258.1,0.3383613333,209.716,0.168706
258,0.45948,209.264,0.162268
257.9,0.2409393333,209.74,0.169045
257.8,0.2413463333,209.817,0.170141
257.7,0.719316,209.772,0.169496
257.6,1.329661667,210.312,0.177177
257.5,0.8705663333,209.983,0.172509
257.4,1.283265733,210.235,0.176083
257.3,0.7271853333,210.34,0.177579
257.2,1.126027333,209.027,0.158891
257.1,1.252472467,210.771,0.183685
257,-0.1801255,210.166,0.175101
256.9,0.4123927667,210.734,0.183155
256.8,0.4492663333,210.336,0.177514
256.7,1.710216667,210.296,0.176951
256.6,0.9498666667,209.931,0.171768
256.5,0.6295723333,210.232,0.176034
256.4,-0.7386186667,209.38,0.163915
256.3,-0.1168247,209.863,0.170801
256.2,0.9162576667,210.368,0.177965
256.1,1.361539667,209.965,0.172251
256,-0.0398814,210.487,0.179653
255.9,0.782506,210.398,0.178399
255.8,0.557405,210.752,0.183412
255.7,1.164524667,210.279,0.17671
255.6,0.5862613333,210.913,0.185692
255.5,-0.7664673333,210.117,0.174409
255.4,1.127912333,210.102,0.1742
255.3,0.7226867333,210.809,0.184231
255.2,0.6807606667,210.754,0.183444
255.1,0.8739403333,210.744,0.1833
255,0.9962122333,210.609,0.181388
254.9,0.8532026667,210.381,0.178158
254.8,1.086579,210.289,0.176855
254.7,0.7497576667,210.65,0.181967
254.6,0.427845,210.825,0.184456
254.5,0.987475,211.23,0.190182
254.4,0.0752276,210.788,0.183926
254.3,0.974221,210.855,0.184873
254.2,-0.4667883333,211.733,0.197291
254.1,0.9079626667,210.969,0.186494
254,1.008839,211.094,0.188258
253.9,0.6475173333,211.499,0.193994
253.8,0.95610377,211.906,0.199738
253.7,0.350998,211.118,0.188595
253.6,0.6539573333,210.795,0.184022
253.5,1.218658,211.357,0.191976
253.4,1.488624,211.367,0.192121
253.3,1.154416667,211.43,0.193018
253.2,0.029633,211.141,0.188932
253.1,-0.433829,211.855,0.199018
253,1.534045,211.56,0.194843
252.9,0.1951177667,211.773,0.197851
252.8,0.4673785333,211.441,0.193162
252.7,1.520916667,211.635,0.195915
252.6,0.2311376667,211.566,0.194939
252.5,0.5788106667,211.705,0.196891
252.4,0.9208093333,211.388,0.192425
252.3,0.8379733333,211.822,0.198554
252.2,1.853326667,211.861,0.199098
252.1,1.055533333,212.144,0.203093
252,0.7458843667,211.659,0.196251
251.9,-0.140907463,211.284,0.190951
251.8,0.6386793333,212.122,0.202773
251.7,0.2256196,211.481,0.193738
251.6,0.5962933333,212.348,0.205966
251.5,-0.173867,212.326,0.205647
251.4,1.1802906,212.275,0.204929
251.3,0.4270602333,211.932,0.200105
251.2,1.253465,212.048,0.201735
251.1,-0.5139563333,211.749,0.197515
251,0.6718643333,211.91,0.199786
250.9,0.5219106667,211.682,0.196571
250.8,1.212387,211.565,0.194923
250.7,0.5964191333,213.352,0.220077
250.6,1.79443,212.141,0.203045
250.5,-0.730587,211.979,0.20076
250.4,0.82657,212.252,0.20461
250.3,0.375592,212.985,0.214923
250.2,0.8722126,212.473,0.207721
250.1,0.6551896667,212.563,0.208997
250,0.3593412733,212.499,0.208088
249.9,0.4636033333,212.442,0.207291
249.8,-0.3387589967,212.315,0.205503
249.7,1.031290667,212.191,0.203747
249.6,0.368231,212.316,0.205519
249.5,1.023420667,212.066,0.201991
249.4,0.329565,212.388,0.206525
249.3,0.45838,212.729,0.211324
249.2,-0.5191046667,213.05,0.215831
249.1,-0.1137696667,212.957,0.214525
249,1.384461333,211.8,0.198235
248.9,0.759093,213.247,0.218599
248.8,0.70121,212.366,0.206222
248.7,1.342209,213.164,0.217438
248.6,0.671193,213.298,0.219314
248.5,-0.2830826667,213.114,0.216738
248.4,1.394865,212.48,0.207817
248.3,1.62804,212.472,0.207705
248.2,0.2301213333,213.473,0.221778
248.1,0.797447,212.849,0.213013
248,0.329872,213.045,0.215767
247.9,0.801427,212.286,0.205089
247.8,0.9486733333,213.273,0.218964
247.7,0.7830753333,212.542,0.208694
247.6,0.2269315,212.798,0.212296
247.5,1.249537667,213.148,0.217215
247.4,0.66329,212.658,0.21032
247.3,-0.4070003333,213.09,0.216404
247.2,-0.04378,212.757,0.211722
247.1,0.42385,213.078,0.216229
247,0.9648266667,213.788,0.226192
246.9,0.5404603333,213.138,0.217072
246.8,-0.087471,213.274,0.21898
246.7,0.8883893333,213.469,0.221714
246.6,-0.5617392333,213.734,0.225431
246.5,1.363099667,213.877,0.22743
246.4,1.305323333,213.086,0.21634
246.3,-0.496887,213.28,0.21906
246.2,0.276977,213.93,0.228175
246.1,0.2436603333,213.716,0.225176
246,0.8771326667,214.461,0.235606
245.9,0.6685276667,213.394,0.220666
245.8,1.147315,213.937,0.22827
245.7,1.384962667,213.366,0.220268
245.6,0.8425456667,214.606,0.237632
245.5,0.8759726667,213.479,0.221857
245.4,0.08814566667,213.244,0.218567
245.3,1.019647033,213.344,0.219966
245.2,0.7136446667,213.814,0.226557
245.1,1.319187667,213.827,0.226732
245,0.7206796667,214.127,0.230934
244.9,0.5368016667,213.428,0.221142
244.8,1.535633333,213.851,0.227065
244.7,-0.201229,213.698,0.224922
244.6,1.231434,214.567,0.237078
244.5,0.9250646667,214.108,0.230665
244.4,0.4543046667,213.533,0.22262
244.3,0.957254,213.898,0.227731
244.2,-0.008256666667,214.663,0.238423
244.1,0.729782,213.996,0.229095
244,0.8205482333,214.544,0.236762
243.9,1.42111,214.282,0.233104
243.8,-0.2007254,214.49,0.236002
243.7,0.393298,214.29,0.233215
243.6,0.2595926333,214.698,0.238913
243.5,0.5977853333,214.987,0.242943
243.4,0.9352827333,214.874,0.241363
243.3,1.038740333,214.398,0.23472
243.2,1.4279603,214.672,0.238549
243.1,0.4406916667,214.535,0.236635
243,0.853187,214.5,0.236144
242.9,0.908904,215.31,0.247442
242.8,0.580037,213.97,0.22873
242.7,1.517657333,214.792,0.240225
242.6,1.302478333,213.929,0.228159
242.5,-0.317772,214.006,0.229238
242.4,-0.09958833333,215.286,0.247111
242.3,1.342967667,216.033,0.257494
242.2,0.1794813333,214.913,0.241916
242.1,0.2161366667,216.367,0.262132
242,0.5492823333,214.77,0.239909
241.9,0.1223296667,215.415,0.248909
241.8,0.3919456667,215.384,0.248468
241.7,0.6153146667,214.749,0.239624
241.6,0.2947693333,214.707,0.239039
241.5,1.145736667,215.573,0.251101
241.4,0.5433543333,216.189,0.259664
241.3,0.7211533333,216.179,0.259523
241.2,1.349138133,215.792,0.254141
241.1,0.6470989,215.924,0.255983
241,-0.364437,216.221,0.260105
240.9,1.196775667,215.952,0.256377
240.8,0.638468,216.257,0.260608
240.7,1.545826,215.708,0.252976
240.6,1.134278333,216.749,0.267424
240.5,-0.3196056,215.29,0.247158
240.4,-0.04582866667,214.612,0.237711
240.3,1.289083667,216.467,0.263515
240.2,0.2109119667,215.141,0.245091
240.1,0.928665,216.479,0.263687
240,0.633312,216.765,0.267644
239.9,0.69774,217.039,0.271438
239.8,0.13002,216.993,0.270796
239.7,-0.3084673333,216.937,0.270027
239.6,0.3979563333,216.572,0.264975
239.5,0.3680566333,216.378,0.262289
239.4,0.5925267,216.137,0.258941
239.3,1.354363667,216.419,0.262855
239.2,0.1407876667,217.357,0.27584
239.1,-0.03831633333,217.265,0.274556
239,-1.035927,217.244,0.274274
238.9,0.5937073333,216.817,0.268365
238.8,0.249215,217.103,0.272316
238.7,-0.4730893333,217.258,0.274462
238.6,-0.013758,217.325,0.275386
238.5,0.3139983333,218.433,0.290665
238.4,0.257331,217.987,0.284533
238.3,0.6879946667,217.87,0.282909
238.2,0.8596966667,217.931,0.283752
238.1,-0.3714686667,218.453,0.290946
238,0.9332786667,219.211,0.30136
237.9,0.5637683333,218.223,0.28778
237.8,1.272725333,219.743,0.308644
237.7,0.401164,217.83,0.282362
237.6,0.6518512667,218.693,0.29425
237.5,0.7942166667,218.688,0.294172
237.4,0.2087,218.373,0.289839
237.3,0.5689066667,218.696,0.294281
237.2,0.907083,218.611,0.293112
237.1,0.5256466667,218.052,0.285423
237,1.69595,218.374,0.289855
236.9,0.9803604333,218.149,0.286766
236.8,-0.1013864333,218.561,0.292427
236.7,0.70402,219.244,0.301811
236.6,1.210242343,219.017,0.298701
236.5,1.550012,217.986,0.284517
236.4,0.9437656667,218.654,0.293704
236.3,1.423347667,219.185,0.301003
236.2,1.755958333,219.513,0.305493
236.1,0.377099,218.697,0.294296
236,0.9680333333,218.862,0.29657
235.9,0.4711193333,219.713,0.30824
235.8,-0.1763143333,219.269,0.302153
235.7,0.07625133333,220.047,0.312815
235.6,0.7118843333,219.454,0.304686
235.5,0.306107,219.558,0.306114
235.4,2.318603333,219.864,0.310304
235.3,0.7394592667,220.382,0.317383
235.2,1.126365333,219.772,0.309047
235.1,1.412403333,220.805,0.323167
235,0.618537,219.709,0.308178
234.9,1.482715267,220.164,0.314411
234.8,-0.04071733333,220.407,0.317724
234.7,0.055033,220.201,0.314922
234.6,0.2874986667,220.137,0.314039
234.5,0.8786049333,220.829,0.323492
234.4,1.390381,221.007,0.325916
234.3,0.8516953333,221.263,0.329405
234.2,1.42381,220.59,0.32023
234.1,1.246863,220.907,0.324558
234,1.314690333,221.067,0.326735
233.9,0.1280436667,220.65,0.321049
233.8,0.7216078333,221.427,0.331641
233.7,0.4668898,220.65,0.321049
233.6,1.00969,221.423,0.331579
233.5,1.625385333,221.448,0.331918
233.4,1.167952333,222.181,0.341879
233.3,1.067042333,221.375,0.330931
233.2,1.1512712,221.534,0.333089
233.1,0.6939853333,221.608,0.334091
233,2.279485667,221.24,0.329096
232.9,0.37687,221.464,0.332134
232.8,1.490606667,221.86,0.337525
232.7,0.252845,221.796,0.336648
232.6,-0.211777,221.468,0.332196
232.5,1.152551,222.412,0.345013
232.4,1.205003333,221.494,0.33255
232.3,0.5807083333,221.797,0.336663
232.2,0.7530066667,221.782,0.336463
232.1,1.203672667,221.802,0.33674
232,0.5704303333,222.274,0.343139
231.9,0.07092433333,221.942,0.338633
231.8,0.9436646667,222.958,0.35241
231.7,0.9215796667,222.694,0.348836
231.6,1.165372,223.149,0.354984
231.5,0.6093966667,223.087,0.354157
231.4,1.056267333,223.1,0.354325
231.3,0.91689,222.716,0.349128
231.2,0.9625346667,222.742,0.349481
231.1,1.471384667,222.616,0.347777
231,0.6393481767,223.306,0.357112
230.9,-0.2648010667,224.063,0.367325
230.8,0.6528343333,222.926,0.35198
230.7,0.6000083333,223.968,0.366042
230.6,1.49063,223.248,0.356332
230.5,0.545478,223.522,0.360035
230.4,0.3419472333,223.265,0.356561
230.3,0.7016366667,222.928,0.351995
230.2,0.7988483333,223.75,0.363109
230.1,1.778995,224.181,0.368913
230,1.478503333,224.186,0.368989
229.9,0.6659264333,223.471,0.359347
229.8,0.147844,224.454,0.372588
229.7,1.972084667,224.375,0.371521
229.6,-0.2288333333,223.154,0.35506
229.5,0.5663335,224.521,0.373488
229.4,2.177396667,224.028,0.366852
229.3,0.354548,223.987,0.366302
229.2,0.6090772667,224.769,0.376824
229.1,-0.776091,224.454,0.372588
229,1.7082301,223.292,0.356929
228.9,1.076824,224.293,0.370423
228.8,0.1277383333,224.743,0.376474
228.7,0.6725853333,225.471,0.386253
228.6,0.3992136667,224.762,0.376733
228.5,1.635583667,224.814,0.377433
228.4,1.467505,225.381,0.385038
228.3,1.429165667,225.604,0.38803
228.2,1.078958667,225.344,0.384551
228.1,1.089487967,225.094,0.381192
228,1.180589,225.858,0.391429
227.9,0.5450856667,225.126,0.381617
227.8,1.084669,227.257,0.410112
227.7,0.1575980667,226.638,0.401863
227.6,0.8084,225.985,0.393127
227.5,0.9628369333,226.625,0.401682
227.4,0.2891873533,226.467,0.399579
227.3,1.448266,226.18,0.395733
227.2,0.8015853333,226.206,0.396082
227.1,-0.1742616667,226.246,0.396627
227,0.6835056667,227.361,0.4115
226.9,1.077283333,227.8,0.417333
226.8,0.2888893333,226.266,0.396885
226.7,0.728169,226.617,0.401576
226.6,0.378526,227.094,0.407938
226.5,0.1495086667,226.746,0.4033
226.4,0.5401444667,227.782,0.417092
226.3,0.3306476667,227.178,0.409055
226.2,1.607133333,227.843,0.417905
226.1,0.7924859667,227.26,0.410157
226,1.048807667,227.606,0.414756
225.9,1.311178667,227.735,0.416474
225.8,1.686229,228.168,0.422224
225.7,0.63674,227.955,0.419395
225.6,0.4588816667,228.893,0.431837
225.5,0.892427,228.173,0.422284
225.4,0.969642,228.443,0.425877
225.3,0.9053301333,228.927,0.432287
225.2,1.434234,228.253,0.423352
225.1,0.790233,229.115,0.434776
225,0.504562,228.697,0.429241
224.9,2.113263333,228.147,0.421938
224.8,1.191306,229.128,0.434941
224.7,0.4805443333,230.006,0.446538
224.6,1.325514667,229.891,0.445029
224.5,1.416602,229.801,0.443833
224.4,1.025809,229.132,0.435001
224.3,1.434558733,230.043,0.447031
224.2,0.9589093333,228.638,0.42846
224.1,1.625406667,228.548,0.427259
224,0.601538,229.962,0.445955
223.9,1.095174,230.06,0.447255
223.8,1.401696667,230.12,0.448047
223.7,0.935935,229.181,0.435645
223.6,2.023069667,229.92,0.445402
223.5,1.592809333,229.806,0.443908
223.4,1.592911667,230.972,0.45926
223.3,1.582013667,229.924,0.445462
223.2,1.199590667,229.242,0.436454
223.1,1.388904667,230.685,0.455477
223,0.9150923667,230.904,0.458367
222.9,0.579443,231.173,0.461895
222.8,0.4294463333,231.239,0.462758
222.7,1.557983333,230.722,0.455968
222.6,1.072841,231.597,0.467455
222.5,1.431722233,230.86,0.457786
222.4,1.264217333,231.47,0.465791
222.3,2.212755333,232.103,0.47409
222.2,1.103526667,231.159,0.461716
222.1,1.005976667,232.134,0.47449
222,1.095586667,231.851,0.470781
221.9,1.158052667,232.115,0.474238
221.8,1.140222667,232.043,0.473304
221.7,1.45044,232.328,0.477025
221.6,1.469371667,231.624,0.467812
221.5,0.847248,231.261,0.463055
221.4,1.438350333,232.198,0.475335
221.3,-0.3111516667,233.116,0.487323
221.2,2.314116667,232.42,0.47824
221.1,1.70634,232.141,0.474579
221,0.622046,232.556,0.480017
220.9,1.174172333,233.282,0.48948
220.8,0.7413623,233.044,0.486377
220.7,2.4522,233.067,0.486688
220.6,0.06690476667,233.107,0.487205
220.5,2.416886667,233.261,0.489214
220.4,1.700346667,232.766,0.482755
220.3,-0.1089523333,232.756,0.482621
220.2,1.613234667,233.852,0.4969
220.1,0.828104,233.819,0.496473
220,1.2508189,234.225,0.50176
219.9,1.468655,234.389,0.503879
219.8,1.738709667,233.458,0.491783
219.7,1.23458,235.173,0.514044
219.6,0.6806446667,233.931,0.497932
219.5,1.001972667,233.557,0.493067
219.4,0.7185684667,233.896,0.497475
219.3,1.166963,234.619,0.506864
219.2,2.557666667,234.458,0.504776
219.1,0.870917,235.302,0.515716
219,0.142928,234.878,0.510228
218.9,0.8779606667,234.886,0.510331
218.8,2.182083333,235.085,0.512914
218.7,2.34202,235.232,0.514807
218.6,-0.3039266667,234.1,0.500126
218.5,0.913529,235.343,0.516244
218.4,0.4696113333,235.091,0.512988
218.3,0.923688,235.04,0.512327
218.2,0.706139,235.354,0.516391
218.1,2.232350667,235.605,0.519643
218,0.1664263333,236.315,0.528801
217.9,1.243954333,236.06,0.525512
217.8,0.4360846667,235.719,0.521108
217.7,2.261840667,236.715,0.533955
217.6,0.8107903333,236.044,0.525308
217.5,1.370280333,236.233,0.527749
217.4,1.929523333,236.327,0.528962
217.3,1.853334667,236.327,0.528962
217.2,1.195590667,236.331,0.529005
217.1,1.038437667,236.382,0.529663
217,1.767393667,237.056,0.538344
216.9,0.5410763333,237.582,0.545099
216.8,1.907273333,237.48,0.54379
216.7,0.7120628667,236.759,0.534524
216.6,2.919956667,236.707,0.533853
216.5,1.419162333,238.593,0.558066
216.4,0.007813666667,237.467,0.54363
216.3,1.020973667,237.047,0.538227
216.2,0.6828503333,237.578,0.545056
216.1,1.40079,238.335,0.55476
216,2.451409667,238.615,0.558341
215.9,2.826763333,239.158,0.565278
215.8,0.14411,238.197,0.552989
215.7,1.898482667,237.59,0.545201
215.6,0.1836018667,238.574,0.55782
215.5,0.3896823333,238.433,0.556007
215.4,1.316693333,238.6,0.558153
215.3,0.78685,238.538,0.557356
215.2,1.717815333,238.464,0.556413
215.1,1.026964333,239.316,0.567302
215,0.6121316667,238.51,0.556993
214.9,2.209056667,238.981,0.56302
214.8,1.104267,238.991,0.56315
214.7,0.7616999,239.172,0.565466
214.6,2.751113333,238.862,0.5615
214.5,0.8592026667,238.941,0.562513
214.4,1.442374333,239.453,0.569051
214.3,1.363934333,239.907,0.574828
214.2,0.6529596667,239.61,0.571045
214.1,2.246416667,239.798,0.573442
214,1.647892,239.632,0.571334
213.9,1.23816,239.789,0.573327
213.8,0.06331033333,240.755,0.58562
213.7,1.128606,240.79,0.586065
213.6,0.706276,240.233,0.578981
213.5,0.1063946667,239.666,0.571767
213.4,1.963053667,240.781,0.58595
213.3,2.601606333,240.686,0.584742
213.2,0.980653,239.979,0.575751
213.1,1.018366333,240.367,0.580682
213,0.286094,240.886,0.587274
212.9,-0.2022746667,240.491,0.582266
212.8,3.103933333,239.986,0.575838
212.7,2.68138,241.07,0.589617
212.6,0.7217166667,240.462,0.581891
212.5,0.86796,241.615,0.596523
212.4,1.677640333,241.435,0.594242
212.3,1.487802667,241.412,0.593955
212.2,1.245163667,242.049,0.602014
212.1,1.433109667,242.552,0.608368
212,1.227534667,241.228,0.591614
211.9,2.389836667,241.136,0.59045
211.8,0.590056,241.76,0.598359
211.7,2.711976667,242.229,0.60429
211.6,0.4037533333,242.676,0.609926
211.5,-0.164826,242.336,0.605636
211.4,2.676033333,242.491,0.607596
211.3,1.265728667,242.458,0.607181
211.2,2.743242,242.522,0.607982
211.1,2.737173333,242.811,0.611626
211,3.2241935,243.198,0.616509
210.9,1.106257667,243.275,0.617479
210.8,1.044894333,243.267,0.61738
210.7,1.8038,243.262,0.617308
210.6,1.251083333,243.662,0.62234
210.5,0.6564283333,243.631,0.621955
210.4,1.014901667,243.324,0.618093
210.3,2.172183333,243.799,0.624063
210.2,1.228007,244.27,0.629982
210.1,0.0513858,243.762,0.623608
210,0.2439003333,244.54,0.633364
209.9,0.9854963333,244.202,0.629129
209.8,0.3546287333,244.459,0.632355
209.7,1.697368333,243.492,0.620203
209.6,2.71536,245.02,0.639381
209.5,1.322718333,244.235,0.629541
209.4,2.624855667,244.667,0.634954
209.3,3.272653333,245.329,0.64325
209.2,0.4872192,245.817,0.649336
209.1,1.532703333,245.148,0.640983
209,1.960336667,245.816,0.649322
208.9,0.40274,245.392,0.644029
208.8,1.894557633,245.055,0.63982
208.7,2.178963333,245.718,0.648105
208.6,1.690470333,246.076,0.652573
208.5,1.92785148,246.261,0.654875
208.4,1.908566667,245.776,0.648827
208.3,3.214223333,246.502,0.657882
208.2,0.6777711667,246.216,0.65431
208.1,-0.7037421333,246.691,0.660237
208,2.043326667,247.576,0.671233
207.9,2.883108667,246.646,0.659673
207.8,1.81035,247.649,0.672133
207.7,1.478913333,247.412,0.669194
207.6,2.119363333,247.873,0.674915
207.5,2.395428,247.912,0.675392
207.4,0.5343119333,248.175,0.678649
207.3,3.354776667,247.598,0.6715
207.2,2.31177,248.137,0.678186
207.1,1.006011667,248.338,0.680669
207,3.046788667,247.963,0.676024
206.9,3.267533333,248.299,0.680192
206.8,1.372322,249.05,0.689478
206.7,1.775519667,248.507,0.682757
206.6,1.010375333,248.939,0.688107
206.5,0.7042585667,248.866,0.687197
206.4,1.904468333,248.978,0.688583
206.3,1.899966667,249.565,0.695824
206.2,1.994901333,249.633,0.696662
206.1,0.9042836667,249.537,0.695475
206,0.5453186667,249.801,0.698728
205.9,1.171468333,250.407,0.706186
205.8,2.598803333,250.686,0.709611
205.7,0.895398,250.059,0.701908
205.6,1.753811667,250.537,0.707788
205.5,2.336776667,250.225,0.703957
205.4,1.484442667,250.09,0.702285
205.3,2.12401,250.73,0.710153
205.2,1.53369,251.005,0.713532
205.1,2.205444667,251.48,0.719352
205,0.070686,251.202,0.71595
204.9,3.980333333,251.441,0.71888
204.8,0.7111913,252.089,0.72681
204.7,2.33485,251.361,0.717894
204.6,1.027000333,251.686,0.721877
204.5,1.222182333,252.572,0.732706
204.4,1.800707,253.242,0.740869
204.3,4.88467,252.674,0.73395
204.2,1.406789333,253.251,0.740979
204.1,1.81836,253.043,0.738454
204,2.26113,252.771,0.735138
203.9,-0.2238123333,253.375,0.742497
203.8,2.707993333,253.431,0.743173
203.7,4.019143333,253.728,0.746783
203.6,2.015567667,254.357,0.754421
203.5,0.4770476667,254.593,0.757293
203.4,0.655991,254.373,0.754614
203.3,1.332013333,254.271,0.753376
203.2,0.4694286667,254.491,0.756057
203.1,2.061539,254.267,0.753335
203,1.40956,254.564,0.756936
202.9,-0.6408266667,255.316,0.766047
202.8,0.2508116667,255.123,0.763703
202.7,1.020241667,255.711,0.770813
202.6,0.7086846667,256.104,0.775559
202.5,0.401348,255.226,0.76495
202.4,2.233174633,256.698,0.782715
202.3,0.2928594333,256.046,0.774862
202.2,1.777628,256.619,0.781774
202.1,0.1368096667,256.112,0.775655
202,-0.09144166667,257.483,0.792158
201.9,2.105843333,256.9,0.785157
201.8,-0.4284106667,257.343,0.790484
201.7,2.298224667,257.56,0.793084
201.6,1.888926667,257.469,0.791995
201.5,2.668261333,257.979,0.798114
201.4,1.768264667,258.224,0.801048
201.3,2.330149,258.404,0.803206
201.2,0.1515443333,258.726,0.807058
201.1,2.839113333,258.538,0.804807
201,0.1116723333,259.13,0.811894
200.9,2.911925,259.676,0.818413
200.8,-0.18789196,259.07,0.811176
200.7,3.134583333,259.514,0.81648
200.6,1.57205,259.411,0.815249
200.5,2.564676667,260.226,0.824961
200.4,1.371601,260.14,0.823936
200.3,2.415206667,260.925,0.833275
200.2,1.292811,260.709,0.830703
200.1,2.83161,260.821,0.832037
200,1.756166667,261.132,0.835737
199.9,1.911673,261.165,0.836128
199.8,1.71297,261.787,0.843504
199.7,0.8496383333,261.419,0.839139
199.6,1.433542667,261.213,0.836692
199.5,1.672915667,261.018,0.834379
199.4,1.159150333,261.807,0.843732
199.3,1.270328667,261.502,0.84012
199.2,1.696043333,262.175,0.848092
199.1,-0.109944,261.569,0.840912
199,2.349513667,262.217,0.848588
198.9,-0.6245366667,262.092,0.847113
198.8,2.537401667,262.069,0.846845
198.7,2.580813667,262.631,0.853491
198.6,1.493820667,262.115,0.847381
198.5,0.93933,262.805,0.855539
198.4,3.383613333,262.608,0.85321
198.3,0.8701306667,263.11,0.859136
198.2,1.539105667,263.06,0.858548
198.1,1.551221667,263.392,0.862463
198,2.91133,263.568,0.864546
197.9,3.987796667,263.557,0.864412
197.8,1.924008333,263.721,0.866347
197.7,0.734964,264.395,0.874264
197.6,2.655979,263.37,0.862209
197.5,0.4516553333,264.665,0.877444
197.4,2.991161187,264.044,0.870148
197.3,1.765891667,264.196,0.871933
197.2,1.884312333,264.39,0.874211
197.1,1.017325467,264.393,0.874251
197,2.21686,264.331,0.873518
196.9,3.102251667,265.162,0.883266
196.8,-0.59169569,264.648,0.877245
196.7,-0.6819133333,265.335,0.885298
196.6,1.799133667,265.108,0.882642
196.5,1.061846,265.439,0.886518
196.4,2.426353333,265.431,0.886426
196.3,2.699473333,265.074,0.882243
196.2,1.79707,266.092,0.894154
196.1,3.769376667,265.896,0.891862
196,0.3287067,266.013,0.893227
195.9,2.018488,266.467,0.898535
195.8,1.543558533,266.409,0.89786
195.7,0.6587313333,265.966,0.892684
195.6,2.056319,266.177,0.895147
195.5,0.2118133333,265.964,0.892657
195.4,1.936436667,267.244,0.907598
195.3,2.092522333,266.637,0.900518
195.2,1.650689,266.508,0.899011
195.1,1.355673667,267.544,0.911093
195,3.868843333,267.113,0.906067
194.9,0.45688,266.622,0.900347
194.8,2.074121333,267.129,0.906251
194.7,1.915843333,266.088,0.894114
194.6,1.015454667,266.629,0.900426
194.5,0.30951,266.53,0.899276
194.4,2.597480333,266.962,0.904311
194.3,-0.2122399667,266.722,0.90151
194.2,0.955248,266.901,0.903597
194.1,2.893673333,266.626,0.900386
194,1.084901,266.594,0.900016
193.9,1.70989,266.492,0.898826
193.8,1.271044,267.713,0.913057
193.7,0.457025,266.866,0.903188
193.6,1.51829,267.248,0.907637
193.5,3.46224,267.625,0.912029
193.4,2.471043333,267.297,0.908218
193.3,2.815044667,268.266,0.919481
193.2,3.874126667,268.151,0.918139
193.1,1.917532,267.907,0.915309
193,0.9736196667,267.608,0.911831
192.9,0.881427,268.28,0.919639
192.8,1.065629667,268.148,0.918113
192.7,0.4231066667,268.092,0.917455
192.6,-0.6123866667,268.19,0.9186
192.5,1.933617333,267.472,0.910249
192.4,0.9442116667,268.382,0.920823
192.3,0.348522,268.503,0.922229
192.2,0.6396966667,268.228,0.919034
192.1,2.1457961,267.901,0.915243
192,0.1370626667,268.624,0.923635
191.9,4.1274,268.917,0.927024
191.8,0.4155726667,267.772,0.913742
191.7,0.1705766667,268.263,0.919442
191.6,0.897846,268.376,0.920757
191.5,0.6805533333,267.846,0.914598
191.4,2.869496667,268.446,0.921572
191.3,0.95986,267.961,0.915941
191.2,0.7252133333,268.57,0.923005
191.1,1.84285,268.914,0.926997
191,1.365437667,268.37,0.920691
190.9,1.628133333,269.041,0.928467
190.8,3.025422333,269.233,0.930684
190.7,-0.7601696667,270.218,0.942077
190.6,0.6669476667,269.988,0.939421
190.5,1.972770667,269.729,0.936424
190.4,0.5382706333,269.641,0.935403
190.3,2.0702,269.499,0.933765
190.2,0.6264423333,269.837,0.937668
190.1,-0.03770733333,269.873,0.938087
190,-0.2055140333,269.287,0.931314
,,,
##### Extended Information,,,
[Comments],,,
Sample name,,,
Comment,,,
User,,,
Division,,,
Company,,,
,,,
[Detailed Information],,,
Creation date,,,
,,,
Data array type,,,
Horizontal axis,,,
Vertical axis(1),,,
Vertical axis(2),,,
Vertical axis(3),,,
Start,,,
End,,,
Data interval,,,
Data points,,,
,,,
[Measurement Information],,,
Instrument name,J-1500,,
Model name,J-1500,,
Serial No.,B051061638,,
,,,
Detector,PM-539,,
Detector S/N,B051061638,,
Lock-in amp.,X mode,,
HT volt,Auto,,
,,,
Accessory,PTC-517,,
Accessory S/N,B026561646,,
Temperature,24.98 C,,
Control sensor,Holder,,
Monitor sensor,Holder,,
,,,
Measurement date,9/28/2022 1:57 PM,,
,,,
Photometric mode,CD,HT,Abs
Measure range,320 - 190 nm,,
Data pitch,0.1 nm,,
CD scale,20 mdeg/0.05 dOD,,
FL scale,20 mdeg/0.05 dOD,,
D.I.T.,8 msec,,
Bandwidth,2.00 nm,,
Start mode,Immediately,,
Scanning mode,Continuous,,
Scanning speed,200 nm/min,,
Baseline correction,None,,
Shutter control,Auto,,
No. of cycle,1/1,,
N2 Flowmeter,Manual,,
,,,
Solvent,NaPO4 buffer,,