TITLE,AZNTEA_ADDITIVE&PROTEIN_928,,
DATA TYPE,,,
ORIGIN,JASCO,,
OWNER,,,
DATE,22/09/28,,
TIME,15:55:35,,
SPECTROMETER/DATA SYSTEM,,,
LOCALE,1033,,
RESOLUTION,,,
DELTAX,-0.1,,
XUNITS,NANOMETERS,,
YUNITS,CD [mdeg],,
Y2UNITS,HT [V],,
Y3UNITS,ABSORBANCE,,
FIRSTX,320,,
LASTX,190,,
NPOINTS,1301,,
FIRSTY,2.04193,,
MAXY,51.60477,,
MINY,-66.95696,,
XYDATA,,,
320,1.742733333,208.122,0.1459483333
319.9,1.241108667,209.0483333,0.159197
319.8,1.424944,208.3496667,0.1492056667
319.7,1.377520333,208.2413333,0.1476573333
319.6,1.924979667,208.735,0.1547136667
319.5,1.643205567,208.025,0.1445593333
319.4,1.755147,207.998,0.1441743333
319.3,1.311453133,207.947,0.143446
319.2,0.3960283333,208.103,0.1456696667
319.1,1.327561333,208.5573333,0.1521646667
319,1.858645333,208.823,0.1559733333
318.9,1.547131333,208.3033333,0.148545
318.8,1.038323,208.4606667,0.150793
318.7,1.272183333,208.491,0.15123
318.6,0.358092,208.6503333,0.153506
318.5,1.76099,208.1376667,0.1461736667
318.4,1.889056667,208.396,0.149874
318.3,1.592889667,208.323,0.148825
318.2,1.742928333,208.53,0.1517886667
318.1,0.7654149,208.0223333,0.14452
318,2.110126667,208.4456667,0.1505823333
317.9,1.848513333,208.4913333,0.1512393333
317.8,1.388107667,208.4676667,0.1508916667
317.7,0.9380563333,208.2416667,0.1476643333
317.6,1.150389333,208.5663333,0.152309
317.5,0.8662413333,208.3666667,0.149441
317.4,1.839116667,208.5586667,0.1522016667
317.3,0.7355766667,208.6916667,0.1540953333
317.2,1.996646667,208.5683333,0.1523366667
317.1,2.047195333,208.445,0.1505696667
317,1.75774,208.1266667,0.1460156667
316.9,1.461188,208.4933333,0.151266
316.8,1.66242,208.042,0.1447996667
316.7,1.002450333,208.2326667,0.1475336667
316.6,1.129916133,207.8653333,0.142276
316.5,0.537163,208.1723333,0.146669
316.4,1.49561,208.1856667,0.146863
316.3,1.681125667,208.1483333,0.1463266667
316.2,1.129535667,208.3003333,0.1485033333
316.1,1.108923,208.384,0.149697
316,0.754258,208.3163333,0.148734
315.9,1.164490667,208.4156667,0.150148
315.8,1.567223333,208.189,0.1468993333
315.7,1.080923667,207.9606667,0.1436403333
315.6,1.83781,208.4873333,0.1511683333
315.5,0.9559173333,207.7,0.139904
315.4,1.280966667,207.8576667,0.1421683333
315.3,1.303608333,208.5573333,0.1521776667
315.2,0.726266,207.7703333,0.1409106667
315.1,0.644392,208.2306667,0.147502
315,1.271086667,208.1863333,0.1468753333
314.9,0.4003286667,208.8603333,0.1565033333
314.8,1.554623333,208.2006667,0.1470806667
314.7,1.179019667,207.7243333,0.1402493333
314.6,1.389414667,208.1293333,0.1460533333
314.5,2.27385,207.6596667,0.139321
314.4,1.725786667,207.9693333,0.1437633333
314.3,0.6431503,208.0153333,0.144425
314.2,1.616366667,208.06,0.145062
314.1,1.94454,207.1286667,0.131698
314,1.1705566,207.8976667,0.1427363333
313.9,1.2369,208.2206667,0.1473663333
313.8,1.358463,207.908,0.1428883333
313.7,1.587484667,208.1483333,0.1463276667
313.6,1.6034,207.965,0.1437023333
313.5,1.558015,208.1136667,0.1458306667
313.4,1.880546433,207.229,0.1331423333
313.3,1.980523333,207.8696667,0.142341
313.2,1.709706,208.0756667,0.1452816667
313.1,1.771283333,207.7993333,0.1413233333
313,1.237863333,207.1883333,0.1325563333
312.9,1.596587333,207.7753333,0.1409826667
312.8,1.374291,208.0143333,0.1444126667
312.7,0.67396,207.4676667,0.1365676667
312.6,0.5339576667,207.87,0.142335
312.5,1.072580667,207.7073333,0.1400066667
312.4,1.076459667,207.803,0.1413826667
312.3,1.834886667,207.7906667,0.141199
312.2,1.988809,207.6996667,0.1398943333
312.1,2.37401,207.9826667,0.1439566667
312,1.90134,208.036,0.1447203333
311.9,1.299506667,208.006,0.144284
311.8,0.6026413333,207.932,0.143229
311.7,1.642943333,208.1536667,0.1464066667
311.6,1.525753333,208.183,0.1468223333
311.5,1.496696667,207.8693333,0.142332
311.4,1.621533333,208.1153333,0.1458586667
311.3,1.050584167,208.3986667,0.1499093333
311.2,1.062356,207.4706667,0.136609
311.1,1.410793333,207.8933333,0.142674
311,1.573136667,207.6666667,0.139415
310.9,1.111984333,207.248,0.1334106667
310.8,2.230573333,207.6366667,0.138993
310.7,1.296267,208.214,0.147267
310.6,0.557656,207.8106667,0.1414906667
310.5,0.842607,207.589,0.1383086667
310.4,1.126281567,208.244,0.1476966667
310.3,0.8530802667,207.873,0.1423843333
310.2,1.259248333,207.6603333,0.139335
310.1,1.338433667,207.7403333,0.140477
310,1.064307,207.7033333,0.1399533333
309.9,0.6713223333,208.1293333,0.1460576667
309.8,1.388980667,207.2233333,0.1330616667
309.7,0.956691,207.8943333,0.1426876667
309.6,1.2265003,207.9796667,0.1439153333
309.5,1.154886667,207.132,0.131748
309.4,1.465634333,207.7373333,0.1404373333
309.3,1.340398,207.763,0.140808
309.2,0.745614,207.7093333,0.140034
309.1,1.228155333,207.8726667,0.142383
309,1.070716667,207.824,0.1416796667
308.9,0.3676103333,208.058,0.145021
308.8,1.478731333,207.8876667,0.142592
308.7,1.78524,208.0853333,0.145424
308.6,0.9129186667,207.6236667,0.1388103333
308.5,2.55132,207.9263333,0.143148
308.4,2.31703,207.8926667,0.1426643333
308.3,1.770713333,207.7076667,0.1400166667
308.2,1.055342333,207.57,0.138035
308.1,2.230983333,208.019,0.1444646667
308,2.38156,207.9683333,0.143752
307.9,2.362386667,207.653,0.139227
307.8,0.3017896667,207.7186667,0.1401673333
307.7,0.6897433333,207.9816667,0.1439376667
307.6,1.710069667,208.1093333,0.145769
307.5,2.011433333,207.578,0.1381473333
307.4,1.300019667,207.698,0.139876
307.3,1.857509667,207.7486667,0.140598
307.2,0.8780506667,207.4956667,0.1369783333
307.1,1.537946667,207.4863333,0.136835
307,2.819246667,207.865,0.1422706667
306.9,1.535403333,207.7193333,0.140181
306.8,1.938408667,207.481,0.1367616667
306.7,1.647357333,207.5016667,0.1370573333
306.6,1.315401,207.2646667,0.133649
306.5,1.715474667,207.7026667,0.1399406667
306.4,1.537913333,207.4323333,0.1360656667
306.3,0.6522388667,207.388,0.1354276667
306.2,1.863643333,207.619,0.1387456667
306.1,2.112696667,207.813,0.1415213333
306,0.7190261,207.9816667,0.1439426667
305.9,1.365738667,207.7723333,0.1409363333
305.8,1.2525,207.6786667,0.139591
305.7,1.645933333,207.949,0.1434726667
305.6,1.553195667,207.9896667,0.1440596667
305.5,1.510946667,207.7486667,0.1406036667
305.4,1.940846667,207.2783333,0.1338543333
305.3,1.348696,207.4953333,0.136966
305.2,2.3004,207.7756667,0.1409836667
305.1,0.2420256667,207.422,0.1359106667
305,1.623942667,207.7216667,0.1402093333
304.9,0.263461,207.7716667,0.1409333333
304.8,0.9103776667,207.7506667,0.1406363333
304.7,1.833904,207.776,0.1409936667
304.6,0.4321144667,207.3933333,0.1354996667
304.5,0.7279263333,207.6766667,0.1395603333
304.4,1.787853333,207.2213333,0.133035
304.3,1.186377633,207.478,0.136712
304.2,1.16615,207.4116667,0.1357693333
304.1,1.323182667,207.6216667,0.1387826667
304,2.224226667,207.0126667,0.130022
303.9,1.038893,207.224,0.1330726667
303.8,0.7320933333,207.5463333,0.137699
303.7,1.108109667,207.685,0.1396863333
303.6,0.8387423333,207.7493333,0.1406126667
303.5,-0.1028418667,207.8113333,0.1414986667
303.4,1.123159,207.7856667,0.141132
303.3,0.9467066667,207.619,0.1387453333
303.2,1.538348333,207.3653333,0.1351013333
303.1,0.800335,207.5386667,0.137589
303,0.4107113333,207.294,0.134073
302.9,1.123619333,207.3323333,0.134628
302.8,2.026033333,207.6133333,0.1386623333
302.7,1.669033,207.8073333,0.1414406667
302.6,1.798940333,207.494,0.1369436667
302.5,0.7380386667,207.8083333,0.1414516667
302.4,1.192937,207.6663333,0.1394126667
302.3,0.9559386667,207.4836667,0.1367823333
302.2,1.518074333,207.3806667,0.1353236667
302.1,1.646716667,207.4453333,0.1362433333
302,0.6544030333,207.4576667,0.1364233333
301.9,0.404233,207.1956667,0.1326653333
301.8,1.222673333,207.1063333,0.1313793333
301.7,0.5424363333,206.9516667,0.129157
301.6,1.47227,207.1286667,0.131704
301.5,0.821745,207.464,0.136516
301.4,0.6104236667,207.4906667,0.1369023333
301.3,1.354603667,206.9853333,0.129641
301.2,1.587029,207.8286667,0.1417376667
301.1,1.862402667,206.9763333,0.1295076667
301,2.08283,207.3763333,0.135259
300.9,0.979083,207.084,0.1310553333
300.8,1.419650333,207.5593333,0.137881
300.7,1.270300667,207.64,0.1390373333
300.6,1.59385,207.5583333,0.1378726667
300.5,0.8667096667,207.645,0.139111
300.4,1.266668333,207.093,0.1311846667
300.3,1.021134667,207.3236667,0.134504
300.2,1.280506,207.6793333,0.1396073333
300.1,1.398044,207.0853333,0.131079
300,1.48746,206.9566667,0.1292246667
299.9,1.149939333,207.533,0.1375126667
299.8,0.9066433333,207.385,0.1353796667
299.7,1.388840667,207.3313333,0.134613
299.6,0.8689443333,207.3403333,0.134743
299.5,0.9892840333,207.6626667,0.1393653333
299.4,1.802372,207.1626667,0.132194
299.3,1.775071,207.0363333,0.130364
299.2,-0.08387666667,207.4983333,0.1370083333
299.1,0.944063,207.24,0.1333026667
299,2.31239,207.1726667,0.1323313333
298.9,0.539284,207.4196667,0.13588
298.8,0.79375,207.2263333,0.1331053333
298.7,1.416711333,207.5726667,0.138075
298.6,1.997298,207.2693333,0.133727
298.5,1.826286667,207.0313333,0.1302976667
298.4,0.8097186667,206.7803333,0.1266836667
298.3,1.382194,207.2356667,0.133237
298.2,1.449975333,207.2023333,0.1327573333
298.1,1.533481667,207.017,0.1300896667
298,1.835353333,207.059,0.1306976667
297.9,1.616184,206.789,0.1268133333
297.8,0.8964676667,207.166,0.1322363333
297.7,0.7202406667,206.92,0.1286936667
297.6,1.853897,207.0813333,0.131021
297.5,0.7731174333,206.9526667,0.1291653333
297.4,0.2063739,207.1436667,0.1319166667
297.3,1.144287333,207.3346667,0.1346606667
297.2,0.772331,206.9373333,0.128946
297.1,0.9011428,206.996,0.129793
297,0.862637,207.0086667,0.129978
296.9,0.9628066667,207.2966667,0.134111
296.8,0.8950373333,207.3836667,0.1353676667
296.7,1.210746,207.075,0.1309276667
296.6,1.876370333,207.1496667,0.132003
296.5,0.3108203333,207.0116667,0.1300203333
296.4,1.376759675,207.203,0.132766
296.3,0.241286,207.2606667,0.1335963333
296.2,0.9983953333,207.152,0.1320393333
296.1,1.131321333,207.204,0.132778
296,1.95827,207.256,0.1335223333
295.9,1.656671667,207.0783333,0.130975
295.8,0.7957458,206.823,0.1273023333
295.7,1.58178,207.2793333,0.1338623333
295.6,1.41898,207.117,0.1315293333
295.5,1.179649667,207.4263333,0.1359736667
295.4,1.399015333,207.2993333,0.1341466667
295.3,1.466546,206.9233333,0.1287486667
295.2,1.103588333,206.9266667,0.128792
295.1,0.4359113333,207.0073333,0.129952
295,1.192666,206.7136667,0.125728
294.9,0.4991523333,206.9813333,0.129577
294.8,0.987001,207.222,0.133038
294.7,0.6069833333,207.3023333,0.1341993333
294.6,2.122145,206.8726667,0.1280163333
294.5,1.061074333,206.898,0.1283856667
294.4,0.8690313333,207.186,0.1325296667
294.3,0.9021493333,206.8966667,0.1283613333
294.2,0.912421,207.2306667,0.133164
294.1,0.616594,207.2816667,0.1339026667
294,1.540343333,207.4006667,0.1356083333
293.9,1.23244,207.4446667,0.136236
293.8,2.249886667,206.617,0.12434
293.7,1.064635333,206.9146667,0.1286253333
293.6,0.8617337,206.5556667,0.1234586667
293.5,1.196193333,207.1423333,0.131895
293.4,1.488268667,206.7873333,0.1267906667
293.3,0.5625534333,207.4573333,0.136424
293.2,1.708742333,207.2413333,0.1333106667
293.1,1.466376667,207.3223333,0.134483
293,1.664471667,206.886,0.1282113333
292.9,1.76379,207.129,0.1317036667
292.8,1.472013333,206.8406667,0.1275593333
292.7,1.199394667,207.001,0.1298596667
292.6,1.307721667,207.156,0.1320896667
292.5,1.361971,206.643,0.1247076667
292.4,2.016361667,207.117,0.131528
292.3,0.9104316667,206.7206667,0.1258293333
292.2,-0.2622216667,206.372,0.1208066667
292.1,1.848279667,206.669,0.1250833333
292,0.925019,206.7383333,0.126086
291.9,1.157459333,206.4983333,0.122629
291.8,0.488306,206.6923333,0.1254283333
291.7,1.077686333,206.954,0.1291846667
291.6,0.654469,206.9046667,0.1284753333
291.5,1.815433333,206.4646667,0.1221393333
291.4,1.709133333,206.5346667,0.1231536667
291.3,1.157554333,206.61,0.1242356667
291.2,1.255483667,206.6093333,0.124232
291.1,1.597676667,206.9303333,0.1288446667
291,0.9477100667,206.6426667,0.1247096667
290.9,1.657835,207.2293333,0.1331483333
290.8,1.563775,206.781,0.126691
290.7,0.9144362,206.6053333,0.124171
290.6,1.327247,206.8286667,0.127388
290.5,1.027767667,206.4386667,0.1217633333
290.4,0.9300963333,206.9713333,0.1294403333
290.3,1.67314,206.802,0.1270046667
290.2,0.5372573333,206.9273333,0.1288093333
290.1,0.5944226667,207.0043333,0.129917
290,1.652972667,206.7826667,0.126728
289.9,2.29562,207.4316667,0.136048
289.8,1.353349667,207.4703333,0.136608
289.7,0.4028733333,207.262,0.133613
289.6,0.7333923333,206.804,0.1270323333
289.5,0.8656163333,207.1386667,0.1318453333
289.4,1.39277,207.7323333,0.1403706667
289.3,1.490463333,207.4943333,0.136955
289.2,1.298593333,206.8406667,0.127559
289.1,1.372303667,207.1136667,0.1314786667
289,0.39718,207.6233333,0.1388043333
288.9,1.390167,207.0423333,0.130449
288.8,2.1819,206.747,0.1262113333
288.7,0.509626,207.6586667,0.139305
288.6,1.029023,207.099,0.1312706667
288.5,0.972409,207.196,0.132671
288.4,0.9378596667,207.3426667,0.134773
288.3,0.8155658667,207.5166667,0.1372753333
288.2,0.9420193333,207.5923333,0.1383583333
288.1,1.64527,207.6103333,0.13862
288,1.110064333,207.256,0.1335263333
287.9,0.2312706667,207.5683333,0.1380173333
287.8,0.875262,207.3463333,0.134829
287.7,1.3082617,207.71,0.140048
287.6,1.918704,207.481,0.1367606667
287.5,1.339255,207.2056667,0.132805
287.4,0.1164566667,207.535,0.137536
287.3,1.312393467,207.3883333,0.1354383333
287.2,0.9335091,207.545,0.1376753333
287.1,0.1005566667,207.374,0.1352133333
287,1.802046667,207.259,0.1335643333
286.9,1.065323333,207.624,0.1388153333
286.8,0.7781626667,207.5073333,0.1371366667
286.7,0.8975953333,207.224,0.1330726667
286.6,0.293729,207.7096667,0.1400386667
286.5,2.1231,207.9,0.1427733333
286.4,0.8275423333,207.8316667,0.1417903333
286.3,0.9538646667,207.4743333,0.1366676667
286.2,2.0965,207.602,0.1385
286.1,1.388532333,207.489,0.136871
286,0.9880693333,208.098,0.1456086667
285.9,0.3744771,207.5143333,0.1372426667
285.8,1.154982667,207.3696667,0.135161
285.7,1.119697,207.3586667,0.135003
285.6,1.184946333,207.5906667,0.1383383333
285.5,0.6469383333,207.694,0.1398173333
285.4,1.631344,208.208,0.1471793333
285.3,0.70289,207.658,0.1392893333
285.2,-0.2540300333,207.865,0.1422676667
285.1,-0.3733326667,207.47,0.136604
285,0.6106643333,207.9083333,0.1428936667
284.9,0.2292493333,207.326,0.1345376667
284.8,0.8469673333,207.5513333,0.1377663333
284.7,1.274625,207.585,0.138256
284.6,1.491525333,207.6826667,0.1396536667
284.5,0.255623,207.3986667,0.1355733333
284.4,1.249428667,207.6503333,0.1391916667
284.3,1.019603667,207.712,0.1400756667
284.2,1.869807667,207.698,0.1398756667
284.1,0.4434403333,207.6853333,0.1396936667
284,0.6364693333,207.536,0.1375416667
283.9,-0.1129413333,207.447,0.1362786667
283.8,1.21373,207.3923333,0.1354896667
283.7,1.468238333,207.8373333,0.1418756667
283.6,0.5170137867,207.8493333,0.1420436667
283.5,1.068784,207.2946667,0.1340863333
283.4,1.808420803,207.6246667,0.1388116667
283.3,0.7509166667,207.837,0.1418683333
283.2,1.684707,207.9386667,0.1433226667
283.1,1.339424333,208.0416667,0.1447993333
283,0.814657,207.661,0.1393433333
282.9,0.6132202333,207.5996667,0.138467
282.8,1.389151333,207.925,0.1431266667
282.7,0.631196,207.6076667,0.1385723333
282.6,0.5368633333,207.6483333,0.1391573333
282.5,0.8250013333,207.4463333,0.13626
282.4,0.8898363333,207.9176667,0.1430286667
282.3,0.284013,207.6703333,0.1394683333
282.2,1.192281233,208.082,0.1453796667
282.1,0.5796176667,208.0303333,0.1446326667
282,0.516632,207.6583333,0.139308
281.9,0.757111,207.69,0.139764
281.8,-0.1296583333,207.6936667,0.139817
281.7,1.294655,207.6173333,0.1387183333
281.6,1.34218,207.784,0.1411073333
281.5,1.087159333,207.5776667,0.138149
281.4,0.2273717333,207.5753333,0.138115
281.3,0.3431373333,207.5633333,0.1379446667
281.2,0.2723053,207.761,0.140781
281.1,2.022646667,207.9146667,0.1429773333
281,0.5810363333,207.454,0.1363646667
280.9,0.8780073333,207.524,0.1373786667
280.8,1.003818667,208.3426667,0.1491033333
280.7,1.134486333,208.193,0.14697
280.6,2.062953333,207.879,0.142468
280.5,0.670002,207.4746667,0.136668
280.4,0.3574699,207.888,0.1425926667
280.3,1.407316667,207.3323333,0.1346293333
280.2,1.379774333,207.7286667,0.1403133333
280.1,0.623833,207.6726667,0.1395146667
280,1.336502333,208.0043333,0.1442683333
279.9,1.448924333,207.8533333,0.1420993333
279.8,1.162484826,207.9346667,0.1432653333
279.7,0.535407,207.8036667,0.1413913333
279.6,1.523375333,208.159,0.14648
279.5,1.046806,208.053,0.1449626667
279.4,0.923155,208.0686667,0.145186
279.3,0.6016776667,207.378,0.1352856667
279.2,1.404878333,207.6113333,0.1386333333
279.1,1.568451333,207.7976667,0.141307
279,0.7421134667,208.1876667,0.146886
278.9,0.9394663333,207.551,0.137764
278.8,1.323921,207.392,0.1354833333
278.7,0.08463733333,207.4773333,0.1367063333
278.6,0.9233073333,208.0546667,0.1449836667
278.5,1.371689333,207.6426667,0.139087
278.4,0.490027,208.0943333,0.1455503333
278.3,-0.1115093333,207.5016667,0.1370616667
278.2,0.1844496667,207.847,0.1420086667
278.1,1.427386,207.4396667,0.1361696667
278,0.900672,207.769,0.1408956667
277.9,-0.1238533333,208.0143333,0.1444073333
277.8,1.46235,207.737,0.1404336667
277.7,0.4739556667,208.1236667,0.145981
277.6,0.1673126667,208.2336667,0.1475496667
277.5,0.3822706667,208.1486667,0.1463336667
277.4,0.4084701667,207.7533333,0.1406736667
277.3,0.7440903333,207.918,0.143028
277.2,1.051324333,208.4256667,0.1502953333
277.1,0.792459,207.9073333,0.1428693333
277,0.2295673333,207.6393333,0.139026
276.9,0.5668203333,208.1233333,0.1459666667
276.8,1.071128333,208.0993333,0.145626
276.7,0.4132566667,207.9246667,0.1431186667
276.6,0.4310853667,207.5156667,0.13726
276.5,1.104658667,207.6976667,0.1398723333
276.4,1.257815333,207.6893333,0.139746
276.3,0.2459236667,207.4256667,0.1359533333
276.2,0.637306,208.3436667,0.1491236667
276.1,-0.2592486667,207.9843333,0.143981
276,1.407786,207.9023333,0.1427993333
275.9,0.236709,207.2633333,0.1336356667
275.8,1.127801,207.995,0.1441326667
275.7,0.325569,207.3853333,0.1353886667
275.6,0.8506016667,207.964,0.1436893333
275.5,0.1436767667,207.713,0.1400856667
275.4,0.8455893333,207.8613333,0.1422156667
275.3,1.346583,208.1913333,0.1469493333
275.2,-0.01460566667,208.256,0.1478636667
275.1,0.8239306667,207.8573333,0.1421546667
275,0.3876486667,207.747,0.140581
274.9,0.7577566667,207.902,0.1428
274.8,0.9787092,208.2376667,0.14761
274.7,-0.03071866667,207.5313333,0.1374876667
274.6,1.114383333,207.7343333,0.1403926667
274.5,0.982576,207.8283333,0.1417406667
274.4,1.122008333,207.9773333,0.1438823333
274.3,0.9335541667,207.8773333,0.1424496667
274.2,0.631447,208.3696667,0.1494953333
274.1,0.9678333333,207.7503333,0.140622
274,0.381794,207.998,0.1441773333
273.9,1.361482,207.5853333,0.138262
273.8,1.287396333,208.164,0.146554
273.7,-0.02272366667,208.108,0.1457503333
273.6,1.245067667,208.3486667,0.1491913333
273.5,1.240456333,208.046,0.144861
273.4,0.769218275,207.8116667,0.141496
273.3,0.8209584667,207.8666667,0.1422973333
273.2,-0.1913890333,207.941,0.1433613333
273.1,0.17613,207.3753333,0.135241
273,0.2638416667,207.986,0.1439996667
272.9,0.6993513,208.2556667,0.1478633333
272.8,0.9618733333,207.9203333,0.143058
272.7,1.301092,207.8416667,0.1419353333
272.6,0.4102273333,207.9366667,0.1432983333
272.5,1.001958,207.782,0.141072
272.4,1.224317333,208.1703333,0.146641
272.3,0.6950976667,207.5396667,0.1376066667
272.2,1.446635667,207.9236667,0.1431146667
272.1,1.411585333,207.8476667,0.142016
272,0.2136486667,207.558,0.1378643333
271.9,1.056906667,208.4046667,0.149998
271.8,1.141404667,208.464,0.1508453333
271.7,0.532603,208.4283333,0.1503386667
271.6,-0.1966506667,208.045,0.1448386667
271.5,1.459670667,208.6716667,0.153813
271.4,0.2993606667,208.0636667,0.1451093333
271.3,0.9123540333,207.9493333,0.143484
271.2,0.9961546667,207.9776667,0.1438816667
271.1,1.138608667,208.3623333,0.1493906667
271,1.184419,207.7803333,0.1410433333
270.9,-0.205895,208.347,0.14917
270.8,1.416256667,207.7576667,0.1407336667
270.7,0.5993026667,208.673,0.1538263333
270.6,-0.4306591,208.1246667,0.1459786667
270.5,0.22573,208.2973333,0.1484546667
270.4,0.2997499667,208.1493333,0.146341
270.3,0.2850772667,208.622,0.153091
270.2,0.218429,208.5023333,0.1513933333
270.1,0.8423468667,208.38,0.149639
270,0.5843626667,208.1893333,0.146915
269.9,1.569313333,208.2133333,0.147261
269.8,-0.1300423333,208.5673333,0.152321
269.7,0.54251,207.6343333,0.138964
269.6,1.151034333,208.1983333,0.14704
269.5,0.8193223333,208.4583333,0.1507633333
269.4,0.313463,208.747,0.154881
269.3,1.38981,208.4616667,0.150811
269.2,0.6292213333,208.5533333,0.15212
269.1,-1.022356,208.5263333,0.151736
269,0.947722,208.355,0.1492843333
268.9,1.626402,208.7566667,0.155028
268.8,-0.3785826667,208.349,0.149194
268.7,0.8305933333,208.647,0.153464
268.6,0.9547076667,208.5326667,0.151829
268.5,0.9147946667,208.7106667,0.1543703333
268.4,1.684428333,208.9056667,0.157158
268.3,0.9288586667,208.4303333,0.150363
268.2,0.2763756667,208.2296667,0.147488
268.1,0.5776726667,208.7576667,0.1550363333
268,1.323753333,208.6083333,0.1529093333
267.9,0.7672486667,208.4803333,0.151077
267.8,0.806365,208.6203333,0.1530783333
267.7,0.7738743933,208.5003333,0.1513623333
267.6,1.220790667,208.7353333,0.1547256667
267.5,0.113561,208.7006667,0.1542233333
267.4,0.763038,209.2756667,0.1624313333
267.3,0.9976496667,209.147,0.1605983333
267.2,1.006572367,208.7176667,0.1544686667
267.1,0.017406,208.5893333,0.1526236667
267,0.4815123333,208.407,0.1500293333
266.9,1.428168,208.4776667,0.15104
266.8,0.7107474,209.207,0.1614486667
266.7,0.1931373333,209.0393333,0.1590666667
266.6,1.430413333,209.1866667,0.161163
266.5,-0.3622473333,208.9856667,0.158297
266.4,-0.3721249667,208.9016667,0.1570976667
266.3,0.116324,208.529,0.151771
266.2,0.8166166,209.314,0.1629816667
266.1,-0.00045,208.8896667,0.1569283333
266,0.6046287333,209.0913333,0.1598043333
265.9,0.6052246667,209.353,0.1635306667
265.8,0.1523856667,209.127,0.160318
265.7,-0.1960746667,209.5166667,0.1658663333
265.6,0.180767,209.4923333,0.1655216667
265.5,0.5900463333,209.6326667,0.1675136667
265.4,1.393394667,209.2443333,0.1619866667
265.3,0.4108146667,208.7183333,0.15448
265.2,0.5781083333,209.0156667,0.1587173333
265.1,0.9308133333,209.3276667,0.163173
265,0.5945993333,209.461,0.1650716667
264.9,0.4909016667,209.5986667,0.167031
264.8,0.9331886667,209.1963333,0.1613023333
264.7,1.257419333,209.166,0.1608673333
264.6,0.742077,209.102,0.1599536667
264.5,0.3081758667,209.3546667,0.163559
264.4,0.1951813333,208.9366667,0.1576016667
264.3,0.2845232333,209.3296667,0.1632016667
264.2,1.56878,209.6563333,0.167856
264.1,-0.3198383333,209.4006667,0.164215
264,0.8292447,209.5216667,0.165937
263.9,-0.06857,209.7343333,0.1689606667
263.8,0.40321,209.6616667,0.1679283333
263.7,0.874881,209.9453333,0.1719656667
263.6,1.165111333,209.4743333,0.1652646667
263.5,0.9714776667,209.9103333,0.171462
263.4,-0.9839817667,209.11,0.1600693333
263.3,0.9187436667,209.454,0.1649713333
263.2,0.4640073333,209.9256667,0.1716836667
263.1,1.006460667,209.5483333,0.1663183333
263,0.4258006667,209.9716667,0.1723423333
262.9,0.3765123333,209.5573333,0.1664473333
262.8,0.1675196667,209.4,0.164209
262.7,0.3400699333,209.5603333,0.166477
262.6,0.09080766667,209.714,0.168673
262.5,1.158455667,209.7326667,0.1689356667
262.4,-0.8869086667,210.0296667,0.173168
262.3,0.5681821667,209.485,0.1654206667
262.2,0.8364836333,210.099,0.1741456667
262.1,-0.5332918667,210.2753333,0.1766563333
262,0.4494126667,210.1096667,0.1742996667
261.9,-0.119318,210.1416667,0.1747576667
261.8,0.08253533333,210.1913333,0.1754576667
261.7,0.8098,210.258,0.176409
261.6,0.2182886667,209.9613333,0.1721933333
261.5,0.3251126667,209.977,0.172414
261.4,-0.094559,210.2613333,0.1764576667
261.3,0.7284268,210.295,0.176934
261.2,1.147999733,209.7773333,0.1695816667
261.1,0.5304994,210.273,0.1766226667
261,0.21928,210.289,0.1768486667
260.9,0.653906,210.3073333,0.1771123333
260.8,1.158705333,210.431,0.1788626667
260.7,0.852786,210.565,0.180767
260.6,1.278343333,210.058,0.173562
260.5,-0.1764763333,210.588,0.181086
260.4,1.180736667,211.0863333,0.18815
260.3,0.208232,209.9046667,0.171392
260.2,0.189164,210.205,0.175658
260.1,-0.1770983333,210.1906667,0.175454
260,0.83820247,210.5606667,0.1807013333
259.9,0.5862473333,210.956,0.1863003333
259.8,0.658498,210.7096667,0.1828176667
259.7,0.2471365667,210.4916667,0.1797146667
259.6,0.1198336667,210.9006667,0.1855196667
259.5,0.02059906667,211.0603333,0.187781
259.4,1.147018667,210.7216667,0.182982
259.3,0.420843,211.034,0.187409
259.2,0.782659,210.804,0.1841466667
259.1,0.926316,210.8303333,0.1845223333
259,0.6697104667,211.0823333,0.1880863333
258.9,0.1096096667,210.546,0.1804933333
258.8,0.478298,210.5813333,0.180988
258.7,0.3606593333,210.6166667,0.1814833333
258.6,1.114583333,210.874,0.1851456667
258.5,-0.5696903333,210.8166667,0.1843323333
258.4,1.155144667,211.1883333,0.1895926667
258.3,-0.2192963333,210.8206667,0.1843776667
258.2,0.9599581,210.5743333,0.1808946667
258.1,1.266599667,211.427,0.1929733333
258,1.066122067,211.1573333,0.189155
257.9,1.180391933,210.8466667,0.1847533333
257.8,-0.11121762,211.1063333,0.1884246667
257.7,-0.2454136667,211.3463333,0.1918263333
257.6,-0.02877333333,211.144,0.1889623333
257.5,-0.06863566667,211.4433333,0.193189
257.4,0.4004903333,210.9603333,0.1863623333
257.3,0.9351033333,210.918,0.185766
257.2,1.529603333,211.447,0.193244
257.1,0.006754,211.5093333,0.1941303333
257,0.07558266667,211.1773333,0.1894376667
256.9,-0.1391713333,211.056,0.1877223333
256.8,0.6632056667,211.6396667,0.195969
256.7,0.5604316667,211.3186667,0.1914263333
256.6,0.8033846667,211.8656667,0.1991606667
256.5,0.9221636667,211.684,0.196595
256.4,0.1949223333,211.6186667,0.1956723333
256.3,0.704449,211.7733333,0.1978656667
256.2,0.6830316667,211.706,0.1968886667
256.1,1.751203333,211.6746667,0.196462
256,0.218341,211.3633333,0.1920703333
255.9,1.335659,211.2766667,0.1908386667
255.8,0.004965466667,211.853,0.198989
255.7,-0.08958133333,211.796,0.1981726667
255.6,-1.179509333,211.445,0.1932196667
255.5,0.6246333333,212.032,0.201511
255.4,1.070923667,211.7133333,0.1970066667
255.3,-0.084762,211.683,0.1965843333
255.2,-0.5318198,211.9143333,0.1998426667
255.1,-0.1143982333,211.9833333,0.2008213333
255,0.9821632333,212.1846667,0.203661
254.9,1.456851667,211.9476667,0.2003163333
254.8,1.821664333,212.347,0.2059503333
254.7,0.5076256667,211.9966667,0.201009
254.6,0.09501403333,212.1373333,0.2029963333
254.5,-0.03986866667,212.231,0.204316
254.4,0.7875936667,212.061,0.2019173333
254.3,0.9156666667,211.9623333,0.2005303333
254.2,1.223189,212.0126667,0.2012313333
254.1,-0.303307,212.086,0.202266
254,1.37997,212.2386667,0.2044206667
253.9,1.368253333,212.298,0.205255
253.8,0.432483,212.3193333,0.2055566667
253.7,0.779817,212.371,0.2062826667
253.6,1.394463333,212.759,0.211743
253.5,-0.9108343333,212.4996667,0.208102
253.4,1.214768667,212.4476667,0.2073646667
253.3,0.5127145333,212.538,0.208639
253.2,0.4413203333,212.3373333,0.2058116667
253.1,1.046608333,212.0183333,0.2013176667
253,0.8180673333,212.754,0.2116736667
252.9,0.938804,212.986,0.2149276667
252.8,1.000904,213.0433333,0.2157333333
252.7,-0.136075,212.7576667,0.2117273333
252.6,0.3592403333,212.494,0.2080176667
252.5,1.550762333,212.5713333,0.2091043333
252.4,0.6553496667,212.5376667,0.2086246667
252.3,0.171561,212.6043333,0.2095693333
252.2,-0.02172246667,212.811,0.2124806667
252.1,0.5297126667,212.809,0.2124443333
252,0.5398463333,212.7683333,0.2118766667
251.9,1.428732667,212.9676667,0.2146763333
251.8,0.7099496667,213.1133333,0.2167243333
251.7,-0.2222202,213.629,0.2239563333
251.6,0.006007,213.2296667,0.2183596667
251.5,1.164451,213.3653333,0.2202606667
251.4,-0.4225133333,213.2476667,0.218606
251.3,0.2255843333,213.101,0.2165523333
251.2,0.9791163733,213.3323333,0.2197933333
251.1,0.215136,213.4243333,0.2210873333
251,0.4181896667,213.6156667,0.2237683333
250.9,1.079741,213.3396667,0.2199023333
250.8,0.8964323333,213.1913333,0.2178176667
250.7,0.1813323333,213.0073333,0.2152336667
250.6,0.1861866667,213.0216667,0.2154373333
250.5,0.8271313333,213.6276667,0.2239386667
250.4,0.03035533333,213.3633333,0.220234
250.3,-0.6611459,213.9083333,0.227866
250.2,0.1546362,213.4126667,0.2209246667
250.1,1.272307667,213.8296667,0.2267726667
250,0.6443698667,213.345,0.219976
249.9,-0.6727673333,213.467,0.2216873333
249.8,-0.3752063333,213.93,0.228172
249.7,-0.3025053333,214.0043333,0.229215
249.6,0.178204,213.6303333,0.2239786667
249.5,0.109223,213.6143333,0.223758
249.4,1.203006333,213.5943333,0.223472
249.3,-0.6737906667,213.404,0.2208076667
249.2,-0.3418336667,214.174,0.2315886667
249.1,0.7229883333,213.977,0.2288356667
249,0.2590426667,214.072,0.230164
248.9,-1.212025667,213.87,0.2273336667
248.8,-0.1900456667,213.966,0.2286803333
248.7,-0.5852076667,213.8503333,0.2270563333
248.6,0.3752996667,214.539,0.236691
248.5,-0.2744043333,213.9186667,0.2280126667
248.4,1.045248,214.1193333,0.2308266667
248.3,-0.2898419667,214.3876667,0.234577
248.2,-0.5450173333,214.0006667,0.2291593333
248.1,-1.065468,214.3833333,0.2345123333
248,-1.273817333,213.932,0.2282006667
247.9,0.05033666667,214.071,0.2301483333
247.8,0.568473,214.663,0.2384176667
247.7,-1.271379333,214.206,0.2320373333
247.6,0.009212333333,214.447,0.2354023333
247.5,-0.5035653333,214.249,0.2326336667
247.4,-0.7496096667,214.566,0.237067
247.3,0.4644233333,214.3406667,0.233921
247.2,0.2290276667,214.3926667,0.2346443333
247.1,-2.485313333,214.8083333,0.240449
247,-0.6673333333,214.789,0.240168
246.9,-0.2814323667,214.5796667,0.2372593333
246.8,-0.7439363333,214.7846667,0.2401196667
246.7,-0.0756656,214.9696667,0.2426983333
246.6,-1.401796177,214.845,0.2409546667
246.5,-1.297176,215.0503333,0.243825
246.4,-0.4375353333,214.692,0.2388273333
246.3,-0.677183,214.902,0.2417556667
246.2,-0.6178765333,215.0996667,0.2445096667
246.1,-0.9643466667,215.425,0.249036
246,-0.887271,215.308,0.2474156667
245.9,-0.5387792333,215.24,0.246466
245.8,-0.715784,215.5666667,0.251006
245.7,-0.7977786667,215.0813333,0.2442583333
245.6,-1.077371333,215.2936667,0.247215
245.5,-1.490237333,215.469,0.249654
245.4,-1.644252333,215.4106667,0.248843
245.3,-1.286191533,215.5646667,0.250984
245.2,-0.7311333333,215.4473333,0.249353
245.1,-1.194641667,215.3826667,0.2484546667
245,-0.755549,215.5763333,0.2511466667
244.9,-1.022816667,215.515,0.2502956667
244.8,-2.11242,215.798,0.2542356667
244.7,-2.131902667,215.6823333,0.2526183333
244.6,-1.501246333,215.433,0.249154
244.5,-1.515742667,216.3513333,0.261906
244.4,-1.379366667,216.019,0.2572986667
244.3,-2.020466667,216.186,0.2596126667
244.2,-2.88474,215.8106667,0.2544056667
244.1,-1.518396333,216.087,0.2582373333
244,-2.026847333,215.9416667,0.2562266667
243.9,-2.635656667,215.952,0.256358
243.8,-2.203993333,216.072,0.2580276667
243.7,-2.304456667,216.0713333,0.2580266667
243.6,-3.682616667,216.3736667,0.2622263333
243.5,-2.261143333,216.154,0.2591673333
243.4,-4.207393333,216.5633333,0.2648473333
243.3,-1.735202,216.6433333,0.2659523333
243.2,-1.92305,216.759,0.2675556667
243.1,-2.84618,217.0943333,0.272202
243,-2.944463333,216.9613333,0.270342
242.9,-3.559403333,216.8853333,0.269304
242.8,-4.006283333,216.6836667,0.2665163333
242.7,-2.651966667,217.0543333,0.271646
242.6,-4.604596667,216.7653333,0.2676533333
242.5,-4.173566667,217.096,0.2722163333
242.4,-2.92886,216.967,0.2704443333
242.3,-3.63537,217.559,0.2786183333
242.2,-4.583243333,217.7416667,0.2811416667
242.1,-4.642276667,217.686,0.280376
242,-2.604626667,217.1833333,0.273432
241.9,-4.10305,217.3916667,0.2763143333
241.8,-5.0908,217.5956667,0.2791306667
241.7,-5.54017,218.5113333,0.291744
241.6,-5.131533333,217.9953333,0.284637
241.5,-4.5063,217.6126667,0.2793653333
241.4,-4.225586667,217.9793333,0.2844063333
241.3,-5.709723333,218.4713333,0.29119
241.2,-6.014006667,218.2066667,0.2875466667
241.1,-5.53189,218.447,0.2908563333
241,-6.51533,218.664,0.293843
240.9,-5.07805,218.3823333,0.2899713333
240.8,-5.09071,218.384,0.289993
240.7,-6.28065,219.0416667,0.2990306667
240.6,-5.436126667,219.4093333,0.3040783333
240.5,-6.768013333,218.716,0.2945606667
240.4,-7.905486667,219.0683333,0.2993946667
240.3,-5.785586667,219.4876667,0.3051513333
240.2,-5.978933333,219.5623333,0.3061756667
240.1,-8.182323333,219.9143333,0.310994
240,-7.67875,219.396,0.303892
239.9,-7.586316667,219.788,0.309257
239.8,-6.952946667,220.217,0.315129
239.7,-7.382053333,219.922,0.311099
239.6,-7.317146667,220.442,0.318206
239.5,-8.1094,220.2856667,0.3160703333
239.4,-7.628813333,220.4663333,0.3185363333
239.3,-8.318776667,220.725,0.322066
239.2,-7.673416667,221.0996667,0.3271773333
239.1,-8.760006667,221.4566667,0.3320363333
239,-8.950316667,220.8333333,0.3235446667
238.9,-9.11933,221.3613333,0.330746
238.8,-8.487956667,221.2353333,0.3290246667
238.7,-9.60087,221.7063333,0.335435
238.6,-9.924353333,221.7646667,0.336226
238.5,-10.78455667,221.3696667,0.3308543333
238.4,-10.43129,221.7283333,0.3357333333
238.3,-10.574,222.1526667,0.3414893333
238.2,-11.00461667,221.7716667,0.336313
238.1,-12.31993333,222.5803333,0.3472893333
238,-10.78750667,222.635,0.3480373333
237.9,-12.79093333,222.4993333,0.3461916667
237.8,-11.77986667,222.7553333,0.349664
237.7,-12.3807,222.871,0.3512286667
237.6,-10.717,223.5513333,0.360426
237.5,-11.88869333,223.3143333,0.3572243333
237.4,-14.09136667,223.3843333,0.3581673333
237.3,-14.29706667,223.9003333,0.3651286667
237.2,-13.36086667,223.569,0.3606563333
237.1,-14.7449,223.7553333,0.3631753333
237,-12.8967,223.9193333,0.365384
236.9,-14.96183333,223.6703333,0.3620316667
236.8,-14.7644,224.5766667,0.3742363333
236.7,-14.9151,224.6736667,0.375535
236.6,-14.2611,225.2063333,0.382686
236.5,-14.5431,224.6073333,0.3746473333
236.4,-15.92446667,225.616,0.3881893333
236.3,-16.93346667,225.2226667,0.382912
236.2,-16.57703333,225.5226667,0.3869396667
236.1,-16.8635,225.8263333,0.391004
236,-17.5321,225.4943333,0.386565
235.9,-16.30233333,225.736,0.3897993333
235.8,-16.55173333,226.0353333,0.393802
235.7,-18.0325,226.2323333,0.396435
235.6,-18.99293333,226.2986667,0.39732
235.5,-17.50496667,226.707,0.4027756667
235.4,-16.3529,226.0976667,0.394633
235.3,-18.37686667,227.3916667,0.4119003333
235.2,-19.07823333,227.252,0.4100403333
235.1,-19.72986667,227.484,0.4131303333
235,-19.54646667,227.7686667,0.4169196667
234.9,-18.9754,227.983,0.4197623333
234.8,-21.2527,227.4736667,0.4129853333
234.7,-20.293,228.0796667,0.4210486667
234.6,-19.83283333,228.5826667,0.427724
234.5,-22.3154,228.3096667,0.4240986667
234.4,-22.3333,228.8153333,0.4308053333
234.3,-21.22693333,228.5793333,0.4276723333
234.2,-23.59733333,228.8173333,0.430835
234.1,-21.80606667,229.2283333,0.4362683333
234,-23.5682,229.5106667,0.440002
233.9,-24.63403333,229.5496667,0.440516
233.8,-23.16076667,229.838,0.444325
233.7,-24.86123333,230.873,0.457952
233.6,-26.212,230.5996667,0.4543533333
233.5,-25.4713,230.4366667,0.4522126667
233.4,-25.83503333,230.7843333,0.4567766667
233.3,-25.14923333,230.3613333,0.4512126667
233.2,-24.9796,231.064,0.4604526667
233.1,-26.43703333,231.1923333,0.4621456667
233,-26.37533333,231.2003333,0.462256
232.9,-26.80913333,231.7433333,0.4693743333
232.8,-27.57466667,231.998,0.4727133333
232.7,-29.0383,232.358,0.4774153333
232.6,-26.8137,232.1463333,0.4746573333
232.5,-29.15256667,232.5473333,0.4798966667
232.4,-29.22003333,232.9253333,0.4848276667
232.3,-29.48383333,233.203,0.488452
232.2,-29.59306667,233.1493333,0.4877546667
232.1,-30.3732,233.767,0.4957973333
232,-30.28713333,233.6363333,0.494103
231.9,-31.58996667,234.169,0.50102
231.8,-31.44636667,234.5696667,0.506226
231.7,-33.74843333,234.5096667,0.505446
231.6,-33.6219,234.3626667,0.503539
231.5,-33.75943333,234.5763333,0.506315
231.4,-33.2154,235.0713333,0.5127293333
231.3,-33.93203333,235.107,0.5131913333
231.2,-33.336,235.217,0.514612
231.1,-34.32283333,236.0526667,0.5254043333
231,-33.7179,234.916,0.5107066667
230.9,-34.6306,235.7573333,0.521609
230.8,-36.90746667,236.49,0.5310596667
230.7,-35.3569,236.6803333,0.5335026667
230.6,-36.701,236.6813333,0.533522
230.5,-36.88696667,236.5616667,0.5319783333
230.4,-36.49056667,237.1786667,0.539922
230.3,-36.9998,237.297,0.5414383333
230.2,-37.27456667,236.871,0.5359666667
230.1,-37.19043333,237.0426667,0.5381723333
230,-38.6578,237.1146667,0.5390973333
229.9,-39.51406667,237.9616667,0.5499723333
229.8,-38.03753333,238.0913333,0.5516326667
229.7,-38.20576667,237.932,0.549596
229.6,-40.97393333,238.27,0.5539256667
229.5,-40.46323333,238.6646667,0.558973
229.4,-40.96016667,239.199,0.5657813333
229.3,-42.0694,238.6853333,0.5592393333
229.2,-40.97806667,239.409,0.5684763333
229.1,-42.66933333,239.5483333,0.5702576667
229,-41.66173333,239.622,0.571202
228.9,-42.9625,239.9613333,0.575517
228.8,-43.9596,240.4983333,0.5823463333
228.7,-42.6603,240.5083333,0.582481
228.6,-43.73263333,240.589,0.5835026667
228.5,-45.32136667,241.0613333,0.5895056667
228.4,-43.66003333,241.2043333,0.5913173333
228.3,-47.27256667,241.558,0.5957926667
228.2,-44.3664,241.8833333,0.5999163333
228.1,-45.98156667,241.7883333,0.5987083333
228,-46.24133333,242.7883333,0.6113426667
227.9,-46.03883333,243.0316667,0.6144073333
227.8,-46.35286667,243.141,0.6157853333
227.7,-46.19906667,243.7173333,0.6230423333
227.6,-47.66333333,243.3736667,0.61872
227.5,-46.86143333,243.6246667,0.6218746667
227.4,-45.74516667,243.7466667,0.623403
227.3,-48.64996667,244.0563333,0.627298
227.2,-49.7582,244.5266667,0.6331956667
227.1,-49.4835,244.803,0.6366603333
227,-48.53346667,245.2093333,0.641742
226.9,-48.9316,244.7586667,0.636102
226.8,-51.04983333,245.7993333,0.6491186667
226.7,-50.96723333,245.6753333,0.6475646667
226.6,-51.00866667,245.4686667,0.6449866667
226.5,-49.94643333,246.5526667,0.6584976667
226.4,-49.7366,245.845,0.649682
226.3,-50.58133333,246.118,0.6530913333
226.2,-52.90186667,246.2996667,0.6553486667
226.1,-51.39616667,247.1866667,0.6663916667
226,-52.26376667,247.1206667,0.6655716667
225.9,-51.64743333,247.359,0.668536
225.8,-53.25323333,247.6166667,0.6717326667
225.7,-52.951,247.4586667,0.669768
225.6,-52.88453333,248.053,0.6771423333
225.5,-51.9701,247.8423333,0.6745306667
225.4,-53.43136667,248.5726667,0.6835723333
225.3,-54.06136667,248.9266667,0.6879433333
225.2,-52.47463333,249.195,0.6912573333
225.1,-55.739,249.5496667,0.695632
225,-54.3912,249.6893333,0.6973493333
224.9,-55.25783333,249.372,0.6934426667
224.8,-53.07013333,250.2313333,0.7040233333
224.7,-54.94956667,250.32,0.705123
224.6,-54.96046667,250.2773333,0.7045973333
224.5,-56.08096667,250.8053333,0.711074
224.4,-55.4656,250.665,0.7093583333
224.3,-53.4292,251.1443333,0.7152413333
224.2,-57.15753333,251.197,0.715883
224.1,-56.39943333,251.2256667,0.7162333333
224,-56.23053333,252.001,0.7257266667
223.9,-57.4102,251.5873333,0.72067
223.8,-56.6743,252.3866667,0.7304403333
223.7,-57.64286667,252.3116667,0.7295266667
223.6,-56.25603333,252.6413333,0.733552
223.5,-56.70166667,253.031,0.7383003333
223.4,-56.5193,253.079,0.738885
223.3,-56.3033,253.838,0.748118
223.2,-56.39036667,253.7623333,0.747201
223.1,-59.18133333,253.5913333,0.7451223333
223,-56.55836667,254.1596667,0.7520303333
222.9,-58.84783333,254.702,0.7586083333
222.8,-56.96743333,254.7933333,0.759714
222.7,-59.18573333,255.184,0.7644443333
222.6,-58.3183,255.1743333,0.76433
222.5,-58.01433333,255.6346667,0.769896
222.4,-55.94413333,255.6566667,0.7701603333
222.3,-57.81636667,256.0886667,0.775376
222.2,-57.0746,256.2276667,0.777049
222.1,-58.3085,256.5316667,0.7807113333
222,-58.629,256.579,0.7812826667
221.9,-57.88723333,256.7986667,0.783928
221.8,-57.9568,257.3363333,0.7903976667
221.7,-59.4166,257.9933333,0.7982803333
221.6,-58.89276667,257.9653333,0.7979506667
221.5,-57.63436667,257.8646667,0.7967386667
221.4,-58.79176667,258.2226667,0.8010296667
221.3,-56.35056667,258.496,0.8043093333
221.2,-58.9338,258.7423333,0.807251
221.1,-58.0697,259.0863333,0.8113636667
221,-58.44693333,259.1846667,0.8125396667
220.9,-58.04453333,259.8293333,0.8202303333
220.8,-57.23506667,261.0406667,0.8346446667
220.7,-57.4172,260.1383333,0.8239103333
220.6,-59.56126667,260.2396667,0.825113
220.5,-56.96913333,260.8686667,0.832606
220.4,-59.0335,261.286,0.83756
220.3,-58.80866667,261.4826667,0.8398933333
220.2,-58.0928,261.57,0.840928
220.1,-57.19573333,261.69,0.842343
220,-56.75686667,262.4583333,0.851433
219.9,-58.7899,262.1543333,0.847845
219.8,-57.11653333,262.8263333,0.8557916667
219.7,-60.07483333,262.9056667,0.8567286667
219.6,-58.81413333,263.0123333,0.857988
219.5,-57.90216667,263.2046667,0.860246
219.4,-58.03916667,263.4623333,0.863291
219.3,-54.83846667,264.4303333,0.874685
219.2,-59.41083333,264.5086667,0.8755993333
219.1,-56.90746667,264.4146667,0.874498
219,-59.19863333,263.9433333,0.8689526667
218.9,-58.18516667,264.5386667,0.8759523333
218.8,-57.62496667,265.2943333,0.8848236667
218.7,-57.41963333,265.5123333,0.8873733333
218.6,-57.5405,266.033,0.8934646667
218.5,-57.35353333,265.817,0.89094
218.4,-55.02433333,266.2223333,0.8956743333
218.3,-59.26733333,266.4566667,0.8984156667
218.2,-56.25326667,266.7226667,0.901516
218.1,-55.2813,266.9333333,0.903966
218,-57.56673333,266.7986667,0.902401
217.9,-57.55026667,267.3876667,0.9092633333
217.8,-55.6896,267.418,0.9096236667
217.7,-56.9775,267.78,0.9138313333
217.6,-59.14636667,268.015,0.9165486667
217.5,-56.43596667,269.872,0.9380743333
217.4,-57.3652,269.1773333,0.9300363333
217.3,-57.20886667,269.338,0.931894
217.2,-57.10166667,269.501,0.9337853333
217.1,-56.62363333,270.2853333,0.942847
217,-58.39976667,270.4303333,0.9445193333
216.9,-56.18166667,271.1163333,0.9524203333
216.8,-56.6127,271.1623333,0.952949
216.7,-56.5305,271.762,0.9598446667
216.6,-56.89653333,271.8433333,0.960778
216.5,-58.94016667,272.3503333,0.9665926667
216.4,-57.26873333,272.781,0.9715213333
216.3,-56.86016667,273.0886667,0.9750513333
216.2,-56.4934,272.953,0.973501
216.1,-56.35426667,273.0653333,0.9747806667
216,-58.0712,272.99,0.9739206667
215.9,-58.1115,273.612,0.981032
215.8,-56.15756667,274.1086667,0.986692
215.7,-56.9763,274.3086667,0.9889813333
215.6,-56.44573333,274.048,0.986004
215.5,-56.659,275.085,0.997816
215.4,-57.9343,274.747,0.9939646667
215.3,-55.9494,275.5763333,1.003395
215.2,-56.605,275.7016667,1.00482
215.1,-56.37386667,276.2866667,1.011453333
215,-56.5938,276.4566667,1.013376667
214.9,-55.84606667,276.448,1.013276667
214.8,-56.47753333,276.897,1.01836
214.7,-57.2438,277.6093333,1.026403333
214.6,-57.1225,277.7666667,1.02818
214.5,-55.44806667,278.0873333,1.03179
214.4,-57.58583333,278.7683333,1.039463333
214.3,-56.7734,278.4373333,1.035736667
214.2,-55.9977,279.5456667,1.04819
214.1,-58.30016667,279.3196667,1.04566
214,-58.42346667,279.601,1.04881
213.9,-55.41406667,280.1323333,1.05476
213.8,-58.0073,280.2713333,1.056316667
213.7,-55.3569,280.5456667,1.059383333
213.6,-58.0489,280.9556667,1.063976667
213.5,-57.4584,281.8123333,1.073536667
213.4,-57.10926667,281.6126667,1.07131
213.3,-58.40163333,282.5243333,1.08146
213.2,-56.70906667,282.017,1.075813333
213.1,-58.61563333,283.3626667,1.09076
213,-56.97936667,282.9343333,1.086006667
212.9,-58.2167,283.5906667,1.093303333
212.8,-60.7459,283.759,1.095156667
212.7,-57.21436667,284.349,1.101696667
212.6,-55.78456667,284.6306667,1.10481
212.5,-59.39126667,285.3496667,1.112746667
212.4,-57.17223333,284.886,1.107623333
212.3,-56.83113333,286.183,1.121923333
212.2,-56.92526667,286.3623333,1.1239
212.1,-57.1551,287.2543333,1.133696667
212,-56.70086667,287.271,1.133866667
211.9,-59.15363333,288.3313333,1.145483333
211.8,-58.80676667,288.541,1.14778
211.7,-57.44146667,288.8646667,1.15131
211.6,-56.17043333,289.321,1.156293333
211.5,-59.07763333,289.6823333,1.16023
211.4,-60.75813333,290.13,1.165103333
211.3,-58.31263333,290.27,1.166623333
211.2,-59.9827,291.05,1.17509
211.1,-60.42856667,291.6026667,1.181083333
211,-59.15393333,292.1223333,1.186713333
210.9,-61.57916667,293.009,1.196286667
210.8,-60.0476,293.096,1.19723
210.7,-58.84203333,293.409,1.200596667
210.6,-59.9674,294.21,1.20922
210.5,-59.58803333,294.4893333,1.212216667
210.4,-59.67146667,294.9863333,1.217556667
210.3,-61.7777,295.471,1.22275
210.2,-62.40833333,295.77,1.225956667
210.1,-61.30893333,296.8553333,1.237556667
210,-62.29026667,297.704,1.2466
209.9,-55.7907,298.0233333,1.250003333
209.8,-65.00993333,298.7893333,1.258136667
209.7,-61.4344,298.929,1.259623333
209.6,-62.3914,299.5123333,1.265796667
209.5,-62.2909,300.852,1.279963333
209.4,-62.8118,300.9306667,1.280796667
209.3,-59.3249,302.3236667,1.295466667
209.2,-62.90843333,302.1616667,1.293763333
209.1,-61.47303333,303.3933333,1.30669
209,-61.47283333,303.6153333,1.309023333
208.9,-63.11513333,303.7463333,1.310386667
208.8,-64.5197,304.7043333,1.320403333
208.7,-61.6519,305.2756667,1.326363333
208.6,-58.41603333,306.1973333,1.335956667
208.5,-62.95893333,306.176,1.33574
208.4,-62.70296667,306.9623333,1.343906667
208.3,-60.0455,307.524,1.349733333
208.2,-62.34743333,308.76,1.362523333
208.1,-58.3282,309.4753333,1.369896667
208,-62.86473333,310.0253333,1.375563333
207.9,-58.49276667,311.7643333,1.39342
207.8,-56.65546667,312.1146667,1.397006667
207.7,-57.43033333,312.673,1.40272
207.6,-57.5433,314.0103333,1.416356667
207.5,-58.94793333,314.7633333,1.424016667
207.4,-58.75706667,315.1256667,1.4277
207.3,-55.75593333,315.9216667,1.435776667
207.2,-56.3663,316.7306667,1.443956667
207.1,-57.64653333,317.4776667,1.451506667
207,-55.1296,318.0773333,1.457556667
206.9,-53.71416667,318.9616667,1.466453333
206.8,-56.44283333,319.882,1.47569
206.7,-56.8279,320.7006667,1.483893333
206.6,-55.63183333,321.793,1.4948
206.5,-55.17516667,322.487,1.50172
206.4,-55.7107,323.576,1.512546667
206.3,-53.20026667,324.8533333,1.525216667
206.2,-51.74803333,325.295,1.529583333
206.1,-53.72253333,326.5113333,1.54159
206,-49.84003333,327.2996667,1.54935
205.9,-50.08653333,328.768,1.563763333
205.8,-48.8353,329.0986667,1.567006667
205.7,-46.65993333,330.4666667,1.580373333
205.6,-48.10956667,331.4933333,1.590383333
205.5,-51.80323333,332.5186667,1.60035
205.4,-44.27936667,332.768,1.60277
205.3,-45.69286667,334.212,1.616753333
205.2,-42.0492,335.8766667,1.632813333
205.1,-44.32946667,337.203,1.645553333
205,-40.02476667,337.9386667,1.652603333
204.9,-37.76016667,338.487,1.657853333
204.8,-42.63813333,340.124,1.673476667
204.7,-36.50643333,341.4256667,1.685856667
204.6,-39.09446667,342.4643333,1.695703333
204.5,-37.45183333,343.9673333,1.709913333
204.4,-38.42206667,345.3403333,1.722846667
204.3,-32.48213333,346.221,1.731123333
204.2,-36.8443,347.3636667,1.741833333
204.1,-32.63016667,348.829,1.755526667
204,-37.38976667,349.8456667,1.764993333
203.9,-27.3198,352.0373333,1.785326667
203.8,-27.0671,353.1113333,1.795253333
203.7,-31.03903333,354.5216667,1.80825
203.6,-24.63256667,355.9233333,1.821123333
203.5,-19.93113333,356.886,1.82994
203.4,-24.77373333,358.053,1.840606667
203.3,-23.7783,359.1743333,1.850823333
203.2,-18.99603333,360.901,1.866503333
203.1,-19.72903333,361.5343333,1.87224
203,-17.5983,363.5306667,1.890273333
202.9,-24.21443333,364.6043333,1.89993
202.8,-16.22976667,366.257,1.91475
202.7,-14.695,367.247,1.923603333
202.6,-15.22176667,368.3173333,1.93315
202.5,-14.18621333,370.5666667,1.953143333
202.4,-14.57103333,372.308,1.968553333
202.3,-20.64826667,373.6043333,1.97998
202.2,-6.31952,375.2153333,1.994136667
202.1,-11.24913333,376.732,2.007423333
202,-5.532886,379.2063333,2.028993333
201.9,-3.719983333,380.6533333,2.041556667
201.8,-4.102173,382.8783333,2.060796667
201.7,-0.1816886667,384.7153333,2.076606667
201.6,-7.89164,386.451,2.091486667
201.5,-1.706126667,387.6016667,2.101323333
201.4,-0.7053133333,389.823,2.120243333
201.3,7.098963333,391.5886667,2.135213333
201.2,3.929499333,392.8333333,2.145736667
201.1,5.994543333,394.9636667,2.163673333
201,7.85198,396.9206667,2.180086667
200.9,3.347180333,398.5493333,2.193693333
200.8,6.933696667,399.767,2.203833333
200.7,12.85453667,400.8493333,2.212823333
200.6,12.44207333,403.7243333,2.236616667
200.5,11.83707,405.3963333,2.25038
200.4,13.40088,407.7233333,2.269463333
200.3,20.33013333,409.8276667,2.286643333
200.2,16.31223333,411.673,2.301643333
200.1,18.2646,413.9853333,2.32037
200,22.3936,415.8773333,2.335616667
199.9,18.89266667,418.3416667,2.3554
199.8,22.45953333,420.5496667,2.373033333
199.7,22.88933333,421.6153333,2.381516667
199.6,22.8652,423.9696667,2.4002
199.5,18.42346667,425.985,2.416123333
199.4,28.40423333,427.3413333,2.426803333
199.3,26.41,429.306,2.442223333
199.2,25.8725,431.2733333,2.457603333
199.1,24.6939,432.7226667,2.468893333
199,33.13456667,435.107,2.487413333
198.9,28.66893333,437.239,2.50389
198.8,32.6508,440.2136667,2.526766667
198.7,31.69376667,442.665,2.54552
198.6,31.3137,444.692,2.560963333
198.5,31.99936667,446.4436667,2.574263333
198.4,34.9094,449.2906667,2.595783333
198.3,29.37516667,451.8673333,2.615163333
198.2,34.73666667,453.6176667,2.628273333
198.1,39.20756667,456.2726667,2.648076667
198,36.1163,458.1956667,2.662356667
197.9,41.1227,460.3046667,2.677966667
197.8,36.90313333,463.07,2.698336667
197.7,27.97336667,465.2746667,2.714506667
197.6,29.29553333,466.9986667,2.727106667
197.5,35.09943333,469.5686667,2.74581
197.4,33.27483333,471.703,2.761286667
197.3,35.01223333,474.078,2.778433333
197.2,32.40773333,476.9693333,2.79921
197.1,42.39506667,478.3596667,2.80916
197,30.34553333,481.2073333,2.829463333
196.9,38.4736,483.3096667,2.844396667
196.8,31.1862,485.843,2.862313333
196.7,42.82043333,487.9426667,2.877103333
196.6,36.84056667,491.0646667,2.898993333
196.5,44.35383333,493.348,2.914926667
196.4,32.1494,495.7666667,2.931746667
196.3,36.0713,498.1346667,2.948136667
196.2,38.2082,500.6656667,2.965583333
196.1,36.2476,503.2496667,2.983323333
196,36.84186667,505.6156667,2.999493333
195.9,36.62186667,508.234,3.01732
195.8,37.37946667,510.8756667,3.035216667
195.7,41.92696667,513.057,3.04995
195.6,30.39563333,515.271,3.06484
195.5,32.5238,517.119,3.077226667
195.4,32.25743333,519.762,3.094876667
195.3,30.94396667,521.0713333,3.103596667
195.2,38.8218,523.3163333,3.1185
195.1,34.29136667,525.4026667,3.1323
195,40.62023333,527.6916667,3.147386667
194.9,38.838,528.932,3.15554
194.8,36.71376667,530.677,3.166983333
194.7,34.74826667,532.8956667,3.181486667
194.6,32.38236667,534.772,3.193713333
194.5,35.426,537.055,3.20854
194.4,32.1434,538.907,3.220526667
194.3,36.63356667,540.9296667,3.23358
194.2,34.76966667,543.235,3.248403333
194.1,42.93596667,545.834,3.265056667
194,36.77976667,547.6816667,3.276853333
193.9,35.02703333,550.324,3.29366
193.8,32.67633333,552.9626667,3.310383333
193.7,32.2775,555.0713333,3.323696667
193.6,27.15516667,557.283,3.337613333
193.5,35.62313333,558.718,3.346616667
193.4,29.68793333,560.6546667,3.358736667
193.3,24.80236667,561.877,3.366373333
193.2,26.02543333,563.328,3.375413333
193.1,27.8223,565.2376667,3.387283333
193,36.44663333,567.6196667,3.402046667
192.9,29.56016667,569.0936667,3.411146667
192.8,31.1835,571.708,3.427253333
192.7,25.72763333,572.7743333,3.4338
192.6,35.7279,574.9053333,3.446856667
192.5,34.6687,577.2703333,3.461303333
192.4,26.18266667,579.67,3.475906667
192.3,36.8237,581.9176667,3.489536667
192.2,24.85526667,583.525,3.499256667
192.1,26.86676667,585.0846667,3.508676667
192,34.91336667,587.093,3.52076
191.9,28.4546,589.2753333,3.533856667
191.8,25.37876667,590.6806667,3.542266667
191.7,27.91023333,592.257,3.551683333
191.6,22.29163333,594.6746667,3.56608
191.5,28.25003333,596.604,3.577536667
191.4,29.44156667,598.0426667,3.586053333
191.3,31.71183333,601.159,3.60445
191.2,21.04876667,602.7233333,3.61365
191.1,29.43396667,605.673,3.630953333
191,33.7755,608.526,3.647616667
190.9,22.90313333,610.2183333,3.65747
190.8,28.68976667,613.3393333,3.675583333
190.7,31.16683333,615.648,3.688923333
190.6,23.29365,618.7426667,3.706746667
190.5,24.2902,620.129,3.714713333
190.4,18.61206667,622.858,3.73034
190.3,21.79626667,624.6826667,3.740756667
190.2,15.47386,626.737,3.752446667
190.1,22.9423,628.544,3.76271
190,28.40736667,631.13,3.77735