TITLE,AZNTEA_BUFFER_928
DATA TYPE,
ORIGIN,JASCO
OWNER,
DATE,22/09/28
TIME,15:41:10
SPECTROMETER/DATA SYSTEM,
LOCALE,1033
RESOLUTION,
DELTAX,-0.1
XUNITS,NANOMETERS
YUNITS,CD [mdeg]
Y2UNITS,HT [V]
Y3UNITS,ABSORBANCE
FIRSTX,  320.0000
LASTX,  190.0000
NPOINTS,    1301
FIRSTY,     1.58165
MAXY,    11.11359
MINY,    -4.98610
XYDATA
320.0000,1.58165,207.762,0.140788
319.9000,1.12172,209.232,0.161815
319.8000,1.42624,208.319,0.148773
319.7000,1.71278,209.18,0.161072
319.6000,0.747448,209.603,0.167093
319.5000,0.658697,207.84,0.141909
319.4000,2.23884,207.118,0.131548
319.3000,-0.440469,209.07,0.159505
319.2000,2.43049,208.529,0.151771
319.1000,1.62578,208.781,0.155381
319.0000,0.702153,207.922,0.143094
318.9000,2.18639,208.348,0.149194
318.8000,1.53386,208.65,0.153503
318.7000,-0.651208,208.614,0.152985
318.6000,1.46087,207.786,0.141145
318.5000,0.978266,208.088,0.145464
318.4000,1.30133,208.165,0.146567
318.3000,0.851271,207.568,0.138009
318.2000,-0.165853,209.079,0.159634
318.1000,1.01039,208.154,0.146405
318.0000,0.395678,209.315,0.162994
317.9000,1.04074,208.062,0.145091
317.8000,1.03589,208.118,0.145902
317.7000,1.27503,208.916,0.157306
317.6000,0.993112,208.786,0.155445
317.5000,-0.25881,207.967,0.143728
317.4000,2.62388,207.683,0.139667
317.3000,2.70846,206.984,0.129625
317.2000,0.286984,209.162,0.160814
317.1000,3.22815,208.172,0.146665
317.0000,1.1208,208.625,0.153147
316.9000,-0.421403,208.899,0.157063
316.8000,1.58948,208.022,0.144523
316.7000,1.18452,209.202,0.161379
316.6000,1.5177,207.925,0.143127
316.5000,2.389,208.897,0.157031
316.4000,0.449448,208.429,0.150345
316.3000,1.91467,208.056,0.14501
316.2000,0.317169,208.801,0.155656
316.1000,2.07243,208.029,0.14462
316.0000,2.09955,207.255,0.133518
315.9000,1.13855,208.965,0.158001
315.8000,0.998497,208.183,0.146827
315.7000,0.257628,208.412,0.150102
315.6000,1.84734,207.637,0.139
315.5000,0.259999,207.22,0.133014
315.4000,1.66595,208.258,0.147897
315.3000,0.228345,209.138,0.160474
315.2000,1.41865,209.706,0.168561
315.1000,2.20354,208.228,0.147476
315.0000,2.78649,208.371,0.149518
314.9000,-0.148856,207.737,0.14043
314.8000,0.620185,208.944,0.15771
314.7000,1.84424,207.901,0.142786
314.6000,1.39581,208.949,0.157775
314.5000,1.33093,207.043,0.130473
314.4000,0.348007,208.463,0.150831
314.3000,0.897662,208.32,0.148789
314.2000,1.25133,208.277,0.148173
314.1000,1.52899,209.657,0.167868
314.0000,2.38148,208.819,0.155915
313.9000,-0.787138,207.994,0.144117
313.8000,2.14835,207.892,0.142656
313.7000,-0.609566,207.386,0.135406
313.6000,0.641084,207.823,0.141665
313.5000,0.392252,207.375,0.135243
313.4000,0.509806,206.244,0.118968
313.3000,0.360123,207.212,0.132899
313.2000,0.625725,207.822,0.141649
313.1000,1.5951,207.298,0.134137
313.0000,-0.40666,207.818,0.1416
312.9000,1.17933,207.158,0.132118
312.8000,1.23681,207.987,0.14402
312.7000,1.83639,207.381,0.135325
312.6000,1.08502,207.053,0.130619
312.5000,2.65863,207.504,0.137098
312.4000,1.94142,208.423,0.150264
312.3000,1.57691,209.113,0.160119
312.2000,1.21573,207.39,0.135455
312.1000,1.02731,208.016,0.144442
312.0000,1.51651,207.328,0.13456
311.9000,-0.0793586,207.428,0.136008
311.8000,-0.0763821,207.895,0.142705
311.7000,2.31479,207.925,0.143127
311.6000,-0.834193,208.285,0.148286
311.5000,1.09495,209.085,0.159715
311.4000,1.23325,209.092,0.159812
311.3000,1.23558,207.573,0.13809
311.2000,1.28058,208.001,0.144215
311.1000,1.29775,207.639,0.139033
311.0000,-1.06494,206.955,0.129202
310.9000,1.04772,207.337,0.13469
310.8000,1.10655,207.779,0.141031
310.7000,1.32349,207.019,0.13013
310.6000,1.43018,207.577,0.138139
310.5000,1.19628,207.731,0.140349
310.4000,0.187575,207.16,0.13215
310.3000,1.13871,207.958,0.143598
310.2000,0.738345,207.134,0.131776
310.1000,2.15887,208.432,0.150393
310.0000,0.483721,207.606,0.138561
309.9000,2.30933,207.794,0.141259
309.8000,0.790805,207.951,0.1435
309.7000,1.14092,207.296,0.134104
309.6000,0.699695,207.861,0.142217
309.5000,1.06972,208.126,0.146016
309.4000,2.78452,208.646,0.153455
309.3000,1.05347,208.841,0.156238
309.2000,1.32551,207.411,0.135764
309.1000,1.72094,208.218,0.14733
309.0000,-0.308833,208.71,0.154361
308.9000,0.348762,208.351,0.149226
308.8000,0.972664,208.55,0.152078
308.7000,-0.240391,208.316,0.148724
308.6000,-0.0756705,207.973,0.143825
308.5000,0.535903,208.833,0.156125
308.4000,0.405369,207.868,0.142315
308.3000,2.21994,207.716,0.140138
308.2000,2.07723,208.194,0.146989
308.1000,3.30396,207.283,0.133925
308.0000,-0.688652,207.026,0.130228
307.9000,1.55538,208.407,0.150037
307.8000,0.493099,208.393,0.149826
307.7000,1.72334,207.724,0.140252
307.6000,1.74119,207.939,0.143338
307.5000,-0.293984,208.718,0.154474
307.4000,1.41061,207.44,0.136171
307.3000,-0.115022,208.096,0.145577
307.2000,0.644333,207.36,0.135032
307.1000,0.535546,207.715,0.140122
307.0000,-0.70352,207.721,0.140203
306.9000,0.564075,207.519,0.137309
306.8000,-0.0816422,207.975,0.143841
306.7000,0.458193,207.806,0.141421
306.6000,1.01043,207.609,0.138594
306.5000,2.12896,208.904,0.157128
306.4000,2.73618,205.991,0.115304
306.3000,-0.300701,208.057,0.145026
306.2000,0.211696,207.867,0.142299
306.1000,0.950369,207.135,0.131792
306.0000,-0.803215,207.562,0.137927
305.9000,1.88985,208.583,0.152548
305.8000,2.76039,207.194,0.132639
305.7000,1.22473,207.884,0.142542
305.6000,0.0202381,207.21,0.132867
305.5000,2.84734,207.467,0.136561
305.4000,0.327271,207.577,0.138139
305.3000,-0.578027,208.115,0.145853
305.2000,1.03337,207.5,0.137033
305.1000,1.07923,207.759,0.140755
305.0000,0.953081,207.877,0.142445
304.9000,2.53304,207.848,0.142023
304.8000,0.714927,207.968,0.143744
304.7000,0.102789,207.375,0.135243
304.6000,0.75119,207.97,0.143776
304.5000,1.31975,208.754,0.154993
304.4000,1.31271,208.65,0.153503
304.3000,1.26253,207.524,0.137374
304.2000,-0.380038,208.109,0.145772
304.1000,0.137467,207.789,0.141178
304.0000,0.550103,207.91,0.142916
303.9000,1.25486,207.458,0.136431
303.8000,0.0246096,207.374,0.135227
303.7000,3.50615,206.823,0.12731
303.6000,0.237841,208.135,0.146145
303.5000,1.21077,208.308,0.148611
303.4000,2.95358,207.646,0.13913
303.3000,0.498845,206.686,0.125337
303.2000,0.555543,207.534,0.137521
303.1000,2.16154,206.998,0.129821
303.0000,-0.344568,207.474,0.136659
302.9000,2.03658,207.187,0.132541
302.8000,1.81279,207.493,0.136935
302.7000,1.85248,207.691,0.13978
302.6000,0.320129,207.255,0.133518
302.5000,1.51867,206.979,0.129544
302.4000,-0.284367,208.002,0.144231
302.3000,0.409599,207.559,0.137879
302.2000,-0.54175,207.11,0.131434
302.1000,0.233048,207.221,0.13303
302.0000,-0.409185,208.516,0.151592
301.9000,0.78762,208.254,0.147848
301.8000,1.58269,207.468,0.136578
301.7000,0.399525,206.721,0.125842
301.6000,2.37743,207.555,0.13783
301.5000,0.118352,207.963,0.143679
301.4000,-0.0614793,207.758,0.140739
301.3000,1.93874,206.371,0.120798
301.2000,0.383542,207.806,0.141421
301.1000,1.08809,207.005,0.129919
301.0000,-0.821859,207.175,0.132362
300.9000,0.215862,207.507,0.13713
300.8000,0.576922,207.07,0.130864
300.7000,0.518364,208.548,0.152046
300.6000,-1.30636,207.047,0.130521
300.5000,0.250584,206.922,0.128729
300.4000,2.3019,207.36,0.135032
300.3000,0.615985,206.537,0.123182
300.2000,-0.10618,207.905,0.142851
300.1000,0.208865,206.916,0.128647
300.0000,0.152232,207.137,0.131825
299.9000,2.10648,207.654,0.139244
299.8000,0.425634,208.067,0.145172
299.7000,2.86376,207.905,0.142851
299.6000,1.36534,206.192,0.118215
299.5000,1.62349,208.123,0.145967
299.4000,0.686105,206.388,0.121043
299.3000,2.437,207.372,0.135195
299.2000,1.49443,208.62,0.153082
299.1000,2.01148,206.696,0.125483
299.0000,1.78381,207.785,0.141129
298.9000,-0.540369,207.134,0.131776
298.8000,1.38539,206.812,0.127147
298.7000,1.72796,207.331,0.134609
298.6000,0.719232,207.376,0.13526
298.5000,1.12655,206.73,0.125973
298.4000,1.02967,207.018,0.130114
298.3000,1.33723,207.432,0.136057
298.2000,0.694923,207.694,0.139813
298.1000,0.0646478,207.026,0.130228
298.0000,0.637413,207.175,0.132362
297.9000,0.769086,206.902,0.128436
297.8000,1.07416,206.532,0.123117
297.7000,-0.0230052,207.661,0.139342
297.6000,0.778147,206.414,0.121419
297.5000,2.30259,207.181,0.13246
297.4000,1.05181,207.563,0.137943
297.3000,-0.66109,207.431,0.136041
297.2000,-0.785575,207.152,0.132037
297.1000,0.517514,206.056,0.116253
297.0000,1.65789,207.093,0.131189
296.9000,0.679718,207.805,0.141405
296.8000,0.359849,208.135,0.146145
296.7000,-1.33935,206.287,0.119589
296.6000,0.855906,206.759,0.126381
296.5000,-0.622147,207.604,0.138529
296.4000,1.66195,206.572,0.123688
296.3000,2.07647,206.741,0.12612
296.2000,0.795235,206.299,0.119752
296.1000,0.181045,207.362,0.135048
296.0000,2.41188,207.158,0.132118
295.9000,1.45831,207.44,0.136171
295.8000,1.28947,207.454,0.136382
295.7000,1.91691,207.299,0.134153
295.6000,1.76419,207.427,0.135992
295.5000,2.00147,207.982,0.143955
295.4000,1.02798,208.478,0.151042
295.3000,0.722857,206.275,0.119409
295.2000,0.878837,206.367,0.120732
295.1000,1.95917,206.121,0.117186
295.0000,-0.0603683,206.962,0.129299
294.9000,1.1512,207.765,0.140837
294.8000,0.19423,206.357,0.120585
294.7000,1.54767,206.564,0.123574
294.6000,1.4507,205.799,0.112538
294.5000,0.559313,207.546,0.1377
294.4000,1.85788,207.602,0.138496
294.3000,0.344896,206.302,0.119801
294.2000,2.38525,207.68,0.139618
294.1000,-0.489732,205.494,0.108131
294.0000,1.20031,206.07,0.11645
293.9000,0.598561,207.324,0.134511
293.8000,0.665607,206.354,0.120553
293.7000,0.948367,207.367,0.13513
293.6000,0.222914,206.551,0.123394
293.5000,0.685334,206.587,0.1239
293.4000,0.23449,207.009,0.129984
293.3000,0.144875,206.403,0.121255
293.2000,1.72095,205.975,0.115075
293.1000,0.926709,206.823,0.12731
293.0000,-0.104471,207.537,0.13757
292.9000,1.92917,207.335,0.134674
292.8000,1.2305,206.738,0.126087
292.7000,2.95132,206.427,0.121598
292.6000,0.811836,206.667,0.125059
292.5000,0.463229,206.009,0.115566
292.4000,0.570281,206.562,0.123541
292.3000,0.623576,206.214,0.118526
292.2000,-1.70956,206.516,0.122888
292.1000,0.798647,206.695,0.125467
292.0000,0.418152,205.857,0.113373
291.9000,2.83179,206.003,0.115484
291.8000,0.345068,206.095,0.116809
291.7000,0.451544,205.674,0.110737
291.6000,0.0372065,206.729,0.125956
291.5000,1.66518,206.634,0.124586
291.4000,0.859017,206.644,0.124733
291.3000,-0.112221,206.555,0.123443
291.2000,1.53322,206.102,0.116907
291.1000,0.600771,206.424,0.121565
291.0000,0.508359,206.656,0.124896
290.9000,2.32666,206.166,0.11784
290.8000,0.794833,205.601,0.109672
290.7000,1.16679,205.779,0.112243
290.6000,0.561508,207.054,0.130636
290.5000,-0.394888,205.994,0.115353
290.4000,1.17815,206.224,0.118673
290.3000,0.772664,206.273,0.119376
290.2000,0.642777,206.164,0.117807
290.1000,1.73164,207.323,0.134495
290.0000,0.65879,206.96,0.129283
289.9000,2.12224,206.775,0.126609
289.8000,1.62145,205.779,0.112243
289.7000,1.4285,206.917,0.128663
289.6000,-0.765942,206.712,0.125712
289.5000,1.00489,206.725,0.125891
289.4000,2.05244,206.239,0.118886
289.3000,0.579951,205.431,0.107213
289.2000,1.14562,207.275,0.133811
289.1000,-0.0742359,206.447,0.121892
289.0000,0.211519,206.258,0.119164
288.9000,1.13724,206.828,0.127376
288.8000,0.0938038,206.7,0.125532
288.7000,-0.926688,206.022,0.115762
288.6000,1.22799,206.176,0.117987
288.5000,-0.543345,206.286,0.119572
288.4000,0.865845,207.716,0.140138
288.3000,-0.10782,206.945,0.129055
288.2000,1.15317,205.374,0.106393
288.1000,1.68971,206.798,0.126951
288.0000,0.691942,206.193,0.118232
287.9000,-0.357653,206.67,0.125108
287.8000,0.653356,207.155,0.132085
287.7000,1.03615,207.721,0.140203
287.6000,0.14592,207.143,0.131906
287.5000,1.99821,206.39,0.121075
287.4000,1.73537,206.522,0.12297
287.3000,0.724408,205.807,0.112653
287.2000,1.20929,206.832,0.127441
287.1000,0.516721,206.332,0.120226
287.0000,0.576063,206.004,0.115501
286.9000,0.686389,206.941,0.129006
286.8000,-0.288902,206.407,0.12132
286.7000,0.747063,206.41,0.121353
286.6000,1.06381,206.295,0.119703
286.5000,1.649,205.839,0.113111
286.4000,0.616614,206.068,0.116417
286.3000,0.890666,205.286,0.105113
286.2000,0.817677,206.151,0.117627
286.1000,-0.353438,207.5,0.137033
286.0000,-0.166702,206.542,0.123264
285.9000,1.14832,206.496,0.122594
285.8000,0.873527,206.387,0.121027
285.7000,0.197999,207.05,0.13057
285.6000,0.132702,206.88,0.128126
285.5000,1.09465,207.151,0.13202
285.4000,0.740844,206.321,0.120079
285.3000,1.56476,206.278,0.119458
285.2000,-1.73612,206.594,0.124015
285.1000,1.63144,205.376,0.106425
285.0000,-0.693993,206.794,0.126886
284.9000,0.965157,207.21,0.132867
284.8000,2.01453,205.511,0.108377
284.7000,-1.16158,206.858,0.127816
284.6000,0.00995344,207.023,0.130179
284.5000,0.814484,207.867,0.142299
284.4000,0.600739,206.968,0.129397
284.3000,1.48404,206.406,0.121304
284.2000,-0.442177,206.42,0.1215
284.1000,1.6992,206.866,0.12793
284.0000,2.36688,205.953,0.114764
283.9000,-0.235524,206.419,0.121484
283.8000,0.327085,206.172,0.117921
283.7000,3.24752,206.932,0.128876
283.6000,0.206314,206.846,0.127637
283.5000,-1.10646,206.986,0.129658
283.4000,1.97106,205.902,0.114028
283.3000,1.2418,206.293,0.11967
283.2000,1.8538,206.208,0.118444
283.1000,0.349393,206.963,0.129315
283.0000,-1.4125,206.614,0.124292
282.9000,-0.076451,206.625,0.124455
282.8000,1.09877,206.302,0.119801
282.7000,1.2522,206.057,0.11627
282.6000,0.108046,206.701,0.125549
282.5000,0.645222,206.251,0.119066
282.4000,0.672626,206.565,0.12359
282.3000,0.464102,206.523,0.122986
282.2000,1.22823,206.332,0.120226
282.1000,1.70047,206.72,0.125826
282.0000,0.806687,206.099,0.116875
281.9000,2.89256,206.01,0.115582
281.8000,0.93247,206.829,0.127392
281.7000,0.481504,206.405,0.121288
281.6000,2.53858,205.125,0.102782
281.5000,1.40866,206.814,0.12718
281.4000,-0.497088,206.361,0.120651
281.3000,1.18114,207.42,0.135894
281.2000,0.646824,206.78,0.126691
281.1000,-1.16735,206.725,0.125891
281.0000,-0.28623,206.481,0.122382
280.9000,-0.169875,207.547,0.137716
280.8000,0.509774,206.378,0.120896
280.7000,-0.0638961,206.977,0.129527
280.6000,1.07485,206.583,0.123851
280.5000,0.426687,205.9,0.113995
280.4000,-1.33373,206.658,0.124929
280.3000,0.407379,207.137,0.131825
280.2000,0.679327,207.914,0.14298
280.1000,1.63609,206.253,0.119098
280.0000,0.273824,206,0.115435
279.9000,2.06661,204.008,0.0865574
279.8000,0.593807,206.922,0.128729
279.7000,0.498802,207.162,0.132183
279.6000,0.0224865,206.806,0.127066
279.5000,1.07925,207.299,0.134153
279.4000,1.68472,207.305,0.134234
279.3000,-0.247458,206.79,0.126837
279.2000,0.0602727,206.872,0.128011
279.1000,0.79929,205.09,0.102273
279.0000,0.629779,207.339,0.134723
278.9000,0.434915,205.853,0.113324
278.8000,0.42611,206.542,0.123264
278.7000,1.26574,205.706,0.111195
278.6000,0.232427,206.885,0.128191
278.5000,1.79349,204.981,0.100697
278.4000,-0.86642,205.886,0.113799
278.3000,2.08217,206.575,0.123737
278.2000,-0.0289275,207.349,0.134869
278.1000,1.49582,207.64,0.139049
278.0000,0.659494,206.095,0.116809
277.9000,-0.927696,206.338,0.120324
277.8000,-0.0370662,205.55,0.108934
277.7000,-0.931652,206.039,0.116008
277.6000,1.37607,206.17,0.117888
277.5000,0.201169,206.415,0.121435
277.4000,0.885918,206.628,0.124504
277.3000,0.762674,206.533,0.123133
277.2000,0.500185,206.268,0.119311
277.1000,1.1704,206.211,0.118494
277.0000,-0.348176,207.587,0.138285
276.9000,0.710632,207.408,0.135715
276.8000,0.594113,206.997,0.129804
276.7000,1.7454,206.787,0.126788
276.6000,-0.33106,207.636,0.138984
276.5000,1.67065,207.887,0.142591
276.4000,0.290209,207.134,0.131776
276.3000,0.43863,206.355,0.120569
276.2000,-0.616733,206.147,0.117561
276.1000,0.0214053,207.921,0.143078
276.0000,0.479435,206.557,0.123476
275.9000,1.06615,207.186,0.132525
275.8000,-1.57474,207.141,0.131874
275.7000,0.39022,207.362,0.135048
275.6000,1.23291,206.011,0.115599
275.5000,0.367961,207.03,0.130277
275.4000,0.509378,206.238,0.118869
275.3000,0.671608,206.482,0.122399
275.2000,1.43896,207.073,0.130896
275.1000,-0.372042,206.979,0.129544
275.0000,1.425,208.165,0.146567
274.9000,0.561067,206.717,0.125777
274.8000,0.0766017,206.883,0.128174
274.7000,1.49418,206.202,0.118363
274.6000,0.0859163,206.896,0.128354
274.5000,0.284122,206.347,0.120455
274.4000,2.10741,206.753,0.126299
274.3000,0.502453,206.25,0.119049
274.2000,-0.587736,207.264,0.133649
274.1000,-0.254115,207,0.129853
274.0000,2.15515,206.923,0.128745
273.9000,0.819749,206.894,0.128321
273.8000,0.252926,205.83,0.11298
273.7000,-0.0212961,207.188,0.132557
273.6000,-0.578623,207.339,0.134723
273.5000,0.0829935,207.214,0.132932
273.4000,1.17136,205.858,0.113389
273.3000,1.95303,206.048,0.116139
273.2000,-0.512889,204.776,0.0977217
273.1000,2.79673,205.492,0.108098
273.0000,0.700266,207.91,0.142916
272.9000,0.454427,206.817,0.127213
272.8000,2.59542,207.307,0.134267
272.7000,1.0269,207.312,0.134332
272.6000,1.25994,206.836,0.12749
272.5000,0.601173,207.347,0.134837
272.4000,1.97239,207.538,0.137586
272.3000,-0.818103,206.917,0.128663
272.2000,-0.901683,207.346,0.13482
272.1000,1.58614,205.597,0.109622
272.0000,-0.438198,206.193,0.118232
271.9000,0.714234,207.177,0.132395
271.8000,1.06607,208.208,0.147183
271.7000,0.347421,207.397,0.135553
271.6000,-0.0385663,207.212,0.132899
271.5000,0.881241,207.061,0.130733
271.4000,2.56021,208.208,0.147183
271.3000,1.32073,205.646,0.110327
271.2000,1.15708,206.187,0.118134
271.1000,0.399973,207.41,0.135748
271.0000,1.58788,207.094,0.131206
270.9000,1.9601,207.401,0.135618
270.8000,1.60686,207.226,0.133095
270.7000,-1.07275,206.964,0.129332
270.6000,-0.0380786,206.594,0.124015
270.5000,0.983211,206.868,0.127946
270.4000,1.26341,207.334,0.134658
270.3000,1.35189,206.423,0.121549
270.2000,0.932407,206.906,0.1285
270.1000,1.29842,207.854,0.14212
270.0000,0.364147,207.656,0.139277
269.9000,0.886394,206.892,0.128305
269.8000,0.695246,207.718,0.140171
269.7000,0.0898662,206.594,0.124015
269.6000,-0.316894,206.415,0.121435
269.5000,0.356233,207.19,0.13259
269.4000,0.508458,206.712,0.125712
269.3000,0.629303,206.485,0.122431
269.2000,1.05375,207.314,0.134365
269.1000,0.432359,207.23,0.13316
269.0000,0.199848,208.18,0.146778
268.9000,0.775163,207.42,0.135894
268.8000,-0.824068,208.21,0.147216
268.7000,0.159432,207.859,0.142185
268.6000,0.43385,207.749,0.140609
268.5000,0.869459,207.469,0.136594
268.4000,0.61021,208.157,0.146454
268.3000,0.108846,207.833,0.141811
268.2000,1.12043,207.594,0.138383
268.1000,1.01328,207.99,0.144068
268.0000,2.04742,207.394,0.13552
267.9000,-0.970591,207.448,0.136285
267.8000,1.87256,207.9,0.14277
267.7000,0.656234,207.441,0.136187
267.6000,0.172722,208.207,0.147167
267.5000,1.19044,208.387,0.149745
267.4000,-0.999186,208.335,0.149
267.3000,0.590256,208.019,0.144474
267.2000,0.596402,208.147,0.146308
267.1000,-0.0479384,207.527,0.137423
267.0000,1.11549,208.419,0.150199
266.9000,-0.307393,208.015,0.144425
266.8000,0.23005,208.794,0.155559
266.7000,0.397784,207.585,0.138252
266.6000,-0.373403,208.086,0.145432
266.5000,1.49162,208.263,0.147978
266.4000,0.175324,207.513,0.137228
266.3000,0.0222941,208.798,0.155623
266.2000,-0.359236,208.184,0.146843
266.1000,1.68297,207.493,0.136935
266.0000,0.288826,207.426,0.135976
265.9000,0.823728,208.172,0.146665
265.8000,0.49464,208.683,0.153973
265.7000,0.944975,208.244,0.147703
265.6000,0.692358,207.877,0.142445
265.5000,-0.380889,208.884,0.156853
265.4000,-0.308756,208.646,0.153455
265.3000,-0.541158,208.26,0.147929
265.2000,1.79172,209.096,0.159876
265.1000,1.48387,208.262,0.147962
265.0000,2.1828,209.598,0.167029
264.9000,0.0910854,207.95,0.143484
264.8000,0.807084,207.218,0.132981
264.7000,-0.371032,208.414,0.150134
264.6000,0.429536,207.828,0.141746
264.5000,1.10292,208.659,0.153633
264.4000,2.12969,208.882,0.156821
264.3000,-0.204046,209.23,0.161783
264.2000,-2.1504,209.304,0.162833
264.1000,1.51668,207.709,0.14004
264.0000,2.05607,209.054,0.159279
263.9000,0.0547105,208.513,0.151544
263.8000,0.345417,207.955,0.143565
263.7000,-0.549852,208.509,0.151495
263.6000,0.872594,208.58,0.152499
263.5000,1.28862,209.051,0.15923
263.4000,0.0872337,208.717,0.154458
263.3000,-0.79834,208.759,0.155057
263.2000,-0.912942,207.452,0.13635
263.1000,1.73302,208.021,0.144506
263.0000,-0.729906,208.521,0.151657
262.9000,1.15496,208.812,0.155818
262.8000,1.41264,208.956,0.157872
262.7000,-0.180586,208.632,0.153244
262.6000,0.217307,208.82,0.155931
262.5000,0.544124,207.519,0.137309
262.4000,-0.438134,209.476,0.165287
262.3000,1.14594,210.208,0.175696
262.2000,-1.37309,209.956,0.172123
262.1000,1.29965,209.718,0.168738
262.0000,1.45225,210.219,0.175857
261.9000,1.58511,209.22,0.161638
261.8000,0.988933,209.793,0.169802
261.7000,-0.0733982,209.065,0.159424
261.6000,1.91308,209.664,0.167964
261.5000,0.90363,208.904,0.157128
261.4000,-0.35657,210.204,0.175648
261.3000,2.43554,208.874,0.156707
261.2000,-0.113918,209.377,0.163882
261.1000,-0.0125388,208.699,0.154199
261.0000,2.09968,209.74,0.169045
260.9000,-0.164384,209.357,0.163592
260.8000,0.743505,210.02,0.173024
260.7000,-0.553821,209.663,0.167948
260.6000,0.290905,210.589,0.181099
260.5000,-0.761806,209.545,0.166271
260.4000,1.05096,210.574,0.18089
260.3000,-0.260166,209.502,0.165658
260.2000,0.371939,209.947,0.171994
260.1000,2.14723,209.066,0.15944
260.0000,0.861189,210.887,0.185322
259.9000,1.1603,209.631,0.167497
259.8000,0.846338,210.39,0.178286
259.7000,1.63949,210.501,0.179862
259.6000,0.757877,210.555,0.180617
259.5000,0.912562,210.403,0.178463
259.4000,0.155029,211.646,0.196059
259.3000,0.724163,210.219,0.175857
259.2000,-0.197381,210.526,0.180215
259.1000,0.485981,210.998,0.186895
259.0000,0.707394,210.616,0.181485
258.9000,2.00974,209.973,0.172364
258.8000,-1.57866,208.819,0.155915
258.7000,0.000223559,210.473,0.17946
258.6000,-0.555334,208.937,0.157597
258.5000,0.90477,210.538,0.180376
258.4000,-0.0318193,209.511,0.165787
258.3000,0.910848,210.969,0.186494
258.2000,-0.405005,210.755,0.18346
258.1000,0.461393,210.65,0.181967
258.0000,1.50201,209.75,0.16919
257.9000,0.812266,210.032,0.173201
257.8000,1.89704,210.736,0.183187
257.7000,-1.11563,210.559,0.180681
257.6000,0.810676,210.758,0.183508
257.5000,-0.278329,211.478,0.19369
257.4000,-0.859487,210.206,0.175664
257.3000,0.324583,210.002,0.172767
257.2000,0.343045,211.416,0.192809
257.1000,0.106427,211.403,0.192633
257.0000,0.113417,211.021,0.187232
256.9000,-0.338266,212.579,0.20922
256.8000,-0.30314,210.359,0.177836
256.7000,1.09111,210.781,0.183829
256.6000,3.33739,210.879,0.18521
256.5000,0.664039,211.625,0.195771
256.4000,0.852202,211.267,0.190711
256.3000,-1.02315,211.506,0.19409
256.2000,-0.017843,212.026,0.201431
256.1000,1.68005,211.088,0.188178
256.0000,2.96326,210.637,0.18179
255.9000,-0.255863,210.971,0.186526
255.8000,-1.77892,211.282,0.190919
255.7000,1.26701,211.646,0.196059
255.6000,0.232414,210.581,0.180987
255.5000,0.0371693,211.285,0.190967
255.4000,0.879177,211.537,0.194523
255.3000,-2.41376,211.072,0.187953
255.2000,0.601655,210.199,0.175568
255.1000,1.7993,211.257,0.190566
255.0000,1.59918,210.84,0.184664
254.9000,0.0138989,211.469,0.193562
254.8000,-0.526118,211.705,0.196891
254.7000,0.80964,211.947,0.200313
254.6000,-0.985775,211.209,0.189893
254.5000,1.11198,209.519,0.1659
254.4000,-1.38449,211.847,0.198906
254.3000,0.0905451,211.267,0.190711
254.2000,1.37885,211.79,0.198091
254.1000,1.04231,210.914,0.185708
254.0000,-0.951479,211.538,0.194539
253.9000,1.50286,212.163,0.203364
253.8000,0.113072,211.549,0.194699
253.7000,-0.287795,212.443,0.207307
253.6000,-1.61558,211.515,0.194218
253.5000,-0.415295,213.427,0.221126
253.4000,1.031,212.241,0.20445
253.3000,-1.29525,211.463,0.193482
253.2000,0.426368,211.698,0.196795
253.1000,2.66765,212.367,0.206238
253.0000,0.197382,211.163,0.189236
252.9000,0.992709,212.276,0.204945
252.8000,1.14503,213.033,0.215592
252.7000,-1.86227,212.788,0.212153
252.6000,1.37134,212.527,0.208487
252.5000,1.75947,213.025,0.215481
252.4000,-1.48426,211.766,0.197755
252.3000,0.360391,212.376,0.206365
252.2000,0.961238,212.59,0.209364
252.1000,-0.512282,212.032,0.201511
252.0000,0.132408,212.533,0.208567
251.9000,0.271108,213.675,0.224605
251.8000,-1.98108,212.894,0.21365
251.7000,0.285475,211.273,0.190791
251.6000,-0.284439,212.635,0.210002
251.5000,0.552487,212.347,0.20595
251.4000,-0.452929,212.152,0.203205
251.3000,0.471518,212.797,0.21228
251.2000,-0.325589,212.957,0.214525
251.1000,0.484717,212.85,0.213029
251.0000,1.31111,212.876,0.213395
250.9000,1.39261,212.276,0.204945
250.8000,0.556522,213.178,0.217629
250.7000,0.242421,213.179,0.217645
250.6000,0.524317,213.086,0.21634
250.5000,-0.744961,213.059,0.215958
250.4000,-0.465345,212.989,0.214987
250.3000,2.63289,213.879,0.227461
250.2000,1.76758,213.903,0.227794
250.1000,-0.0873791,213.196,0.217883
250.0000,-0.106842,212.009,0.201192
249.9000,-0.209505,212.082,0.202214
249.8000,1.99693,212.582,0.209252
249.7000,1.17177,214.005,0.229222
249.6000,1.06103,213.404,0.220808
249.5000,0.795891,212.955,0.21451
249.4000,-0.488025,212.741,0.211499
249.3000,1.24163,213.693,0.224859
249.2000,-0.0848389,213.962,0.228619
249.1000,-1.3276,212.689,0.210766
249.0000,0.261789,214.136,0.231061
248.9000,-0.132823,213.727,0.225335
248.8000,0.516446,213.89,0.22762
248.7000,-0.253749,213.519,0.222413
248.6000,-0.198148,213.677,0.224637
248.5000,-1.29923,213.536,0.222652
248.4000,1.23305,214.014,0.229349
248.3000,2.17892,214.31,0.233485
248.2000,1.44918,213.761,0.225811
248.1000,0.399378,213.089,0.216388
248.0000,0.910485,213.783,0.226113
247.9000,3.47017,213.471,0.221746
247.8000,1.56084,213.188,0.217772
247.7000,0.877343,214.661,0.238391
247.6000,-0.54009,213.555,0.222922
247.5000,1.50495,212.965,0.214637
247.4000,-0.806122,213.287,0.219171
247.3000,0.130751,213.41,0.220888
247.2000,2.3155,213.725,0.225303
247.1000,-0.0134677,214.703,0.238976
247.0000,0.434426,215.409,0.248814
246.9000,-0.113387,214.853,0.241079
246.8000,0.643594,214.715,0.23915
246.7000,0.295612,214.343,0.23396
246.6000,0.895987,214.602,0.237568
246.5000,2.10905,214.005,0.229222
246.4000,-0.377533,213.921,0.228049
246.3000,0.555878,214.658,0.238359
246.2000,-0.97395,213.927,0.228128
246.1000,0.219881,213.707,0.225049
246.0000,-0.0621154,213.937,0.22827
245.9000,-0.295826,214.54,0.236698
245.8000,0.506764,215.148,0.245185
245.7000,-0.187209,214.005,0.229222
245.6000,1.00556,214.164,0.231457
245.5000,0.137803,215.32,0.247584
245.4000,-0.220234,215.146,0.245154
245.3000,-0.8613,214.857,0.241126
245.2000,-0.276244,215.524,0.250423
245.1000,1.12663,215.816,0.254488
245.0000,-0.704608,214.714,0.239134
244.9000,-0.00497507,213.677,0.224637
244.8000,-1.16173,214.977,0.242801
244.7000,1.90686,215.468,0.249635
244.6000,1.19459,215.197,0.245864
244.5000,1.37227,214.739,0.239482
244.4000,1.25231,214.831,0.240763
244.3000,0.230804,214.697,0.238897
244.2000,-0.654265,214.933,0.242185
244.1000,0.4704,215.626,0.251841
244.0000,1.0374,216.229,0.260215
243.9000,2.25914,213.677,0.224637
243.8000,0.997379,214.85,0.241031
243.7000,-1.23361,215.447,0.249351
243.6000,0.457414,215.948,0.256314
243.5000,-0.925442,215.769,0.253826
243.4000,0.0865406,214.894,0.241647
243.3000,0.188716,215.709,0.252991
243.2000,2.08546,216.101,0.258438
243.1000,1.69579,215.894,0.255558
243.0000,1.09076,215.224,0.246243
242.9000,1.24021,215.922,0.255952
242.8000,-0.635882,215.896,0.25559
242.7000,-0.258117,215.776,0.253921
242.6000,2.78304,215.712,0.253039
242.5000,-0.610707,216.544,0.264583
242.4000,0.471383,216.124,0.258752
242.3000,-0.415428,214.884,0.241505
242.2000,0.448934,216.205,0.259885
242.1000,1.20582,215.35,0.247994
242.0000,-1.31405,217.772,0.281565
241.9000,1.00543,215.884,0.255432
241.8000,1.96325,216.621,0.26565
241.7000,0.257425,216.606,0.265446
241.6000,0.040541,216.399,0.262572
241.5000,0.159092,217.25,0.274352
241.4000,0.551915,216.733,0.267204
241.3000,0.172287,216.454,0.263342
241.2000,1.1166,216.609,0.265478
241.1000,-0.301952,216.774,0.267769
241.0000,0.0949059,216.551,0.264677
240.9000,0.321765,216.042,0.25762
240.8000,2.03771,216.383,0.262352
240.7000,-0.31724,217.172,0.273271
240.6000,2.14499,215.742,0.253448
240.5000,1.75252,216.845,0.268757
240.4000,-1.59113,217.243,0.274258
240.3000,-0.187874,217.277,0.274728
240.2000,0.0469464,217.706,0.280658
240.1000,0.271631,217.078,0.271971
240.0000,-0.223258,216.652,0.266074
239.9000,2.58,218.143,0.286672
239.8000,1.41355,216.859,0.268945
239.7000,-1.17783,216.832,0.268569
239.6000,1.48521,218.525,0.291928
239.5000,0.355395,218.343,0.289433
239.4000,1.40448,217.787,0.281768
239.3000,2.77092,218.557,0.29238
239.2000,-1.44016,219.369,0.303521
239.1000,-0.24808,218.747,0.294981
239.0000,-1.60399,217.143,0.27288
238.9000,0.143101,219.036,0.29895
238.8000,1.56729,219.008,0.298577
238.7000,0.918351,218.953,0.297815
238.6000,0.968926,216.373,0.262211
238.5000,-0.724527,219.134,0.300303
238.4000,0.376132,218.484,0.291367
238.3000,1.06221,219.405,0.304018
238.2000,0.940902,219.717,0.308287
238.1000,0.578209,219.064,0.299339
238.0000,0.587725,218.863,0.296585
237.9000,0.633472,220.461,0.318467
237.8000,-0.936003,220.072,0.313156
237.7000,3.3717,220.084,0.31331
237.6000,0.493344,218.835,0.296196
237.5000,1.1302,220.669,0.321312
237.4000,-0.00810843,219.235,0.301687
237.3000,0.375827,219.736,0.308551
237.2000,-0.0971709,220.701,0.321745
237.1000,2.0687,218.551,0.292287
237.0000,0.720608,219.31,0.302713
236.9000,0.913242,218.436,0.290712
236.8000,1.27371,219.914,0.310986
236.7000,0.623378,220.386,0.317445
236.6000,0.111106,219.44,0.304499
236.5000,1.45579,219.239,0.301749
236.4000,-1.25556,219.288,0.302417
236.3000,0.500389,219.344,0.303179
236.2000,2.07914,221.077,0.326874
236.1000,1.57329,220.586,0.320168
236.0000,-0.239631,219.132,0.300272
235.9000,-0.0769715,219.377,0.303629
235.8000,-0.230596,220.965,0.325345
235.7000,0.594285,219.675,0.307713
235.6000,-0.650902,219.456,0.304717
235.5000,1.52157,221.203,0.328587
235.4000,-1.85161,221.473,0.332257
235.3000,1.75659,220.575,0.320029
235.2000,0.732227,220.366,0.317167
235.1000,0.74466,219.569,0.30627
235.0000,-0.212983,221.442,0.331841
234.9000,-0.110786,221.259,0.329343
234.8000,-1.00993,221.476,0.332303
234.7000,-0.307316,221.729,0.335739
234.6000,1.56392,222.09,0.340648
234.5000,1.81666,222.58,0.347286
234.4000,-0.321593,220.78,0.322827
234.3000,-0.215396,220.663,0.32122
234.2000,-0.0267303,222.67,0.348514
234.1000,0.651351,221.885,0.337864
234.0000,0.74676,222.8,0.350263
233.9000,1.36998,221.473,0.332257
233.8000,0.308246,221.562,0.333475
233.7000,0.371138,221.586,0.333798
233.6000,-1.01774,222.386,0.34466
233.5000,1.99207,221.553,0.333352
233.4000,1.23519,222.246,0.342755
233.3000,-1.05783,223.604,0.361137
233.2000,-0.371691,222.802,0.350293
233.1000,-0.697982,222.012,0.339587
233.0000,-0.2485,222.895,0.351551
232.9000,1.66366,223.246,0.356301
232.8000,-0.276612,222.442,0.345413
232.7000,-0.939796,223.621,0.361366
232.6000,0.80877,222.892,0.35152
232.5000,-0.814121,222.329,0.343892
232.4000,1.35218,223.101,0.35434
232.3000,0.354388,223.842,0.364347
232.2000,-0.0973606,223.663,0.361932
232.1000,-1.07472,223.419,0.358643
232.0000,0.885486,222.896,0.351566
231.9000,-2.24112,224.074,0.367478
231.8000,0.342405,223.779,0.363491
231.7000,0.562468,223.78,0.363506
231.6000,2.33357,223.641,0.361641
231.5000,2.07454,224.764,0.376763
231.4000,1.60685,223.994,0.366394
231.3000,0.441149,223.311,0.357174
231.2000,1.09768,223.209,0.355796
231.1000,0.845854,223.21,0.355811
231.0000,0.231876,224.654,0.375286
230.9000,-0.566752,223.406,0.35846
230.8000,2.13965,225.552,0.387331
230.7000,-0.102083,224.649,0.37521
230.6000,2.3516,224.397,0.371826
230.5000,0.351692,223.09,0.354187
230.4000,-0.155693,222.813,0.350447
230.3000,0.334649,224.277,0.37021
230.2000,-0.527836,223.937,0.36563
230.1000,1.37332,224.753,0.376611
230.0000,1.75349,224.143,0.368409
229.9000,-0.725594,224.37,0.37146
229.8000,1.14644,224.437,0.37236
229.7000,0.455633,225.459,0.386086
229.6000,1.00904,223.368,0.357954
229.5000,1.57638,225.351,0.384643
229.4000,0.553439,225.692,0.389213
229.3000,0.887908,225.965,0.392869
229.2000,1.8003,224.363,0.371369
229.1000,1.82348,224.986,0.379747
229.0000,1.75559,226.412,0.398837
228.9000,2.14887,225.999,0.393324
228.8000,1.31764,225.273,0.383594
228.7000,1.61256,226.438,0.399186
228.6000,0.405968,226.983,0.406458
228.5000,1.57868,226.193,0.395915
228.4000,2.47915,226.78,0.403753
228.3000,2.5251,225.613,0.388151
228.2000,0.391463,226.513,0.400184
228.1000,0.564847,225.933,0.392429
228.0000,1.99252,226.498,0.399988
227.9000,0.623165,227.413,0.412194
227.8000,1.04552,225.678,0.389016
227.7000,-0.173385,227.658,0.41545
227.6000,0.175456,227.141,0.408572
227.5000,2.13752,227.86,0.418131
227.4000,0.793738,227.981,0.419741
227.3000,0.637894,227.255,0.410082
227.2000,1.53294,227.478,0.413053
227.1000,1.06291,227.316,0.410896
227.0000,-0.211826,228.897,0.431882
226.9000,1.28747,227.886,0.418477
226.8000,1.40784,228.267,0.423532
226.7000,1.022,227.656,0.41542
226.6000,0.467206,228.403,0.425336
226.5000,1.45986,228.814,0.430787
226.4000,-2.24044,228.438,0.425802
226.3000,0.403705,229.47,0.439464
226.2000,-0.404856,227.282,0.410444
226.1000,1.365,229,0.433247
226.0000,2.98263,228.985,0.433052
225.9000,0.139122,229.412,0.438701
225.8000,1.61068,228.339,0.424494
225.7000,1.30679,228.891,0.431807
225.6000,-1.81397,229.583,0.440961
225.5000,-1.6493,229.357,0.437967
225.4000,-0.263431,231.771,0.469742
225.3000,0.771778,230.254,0.449809
225.2000,0.621435,229.901,0.445148
225.1000,1.79572,228.834,0.431057
225.0000,0.303851,229.354,0.437937
224.9000,0.299707,229.235,0.436364
224.8000,-0.815009,229.862,0.44464
224.7000,-1.59914,230.193,0.449002
224.6000,0.381672,230.282,0.450182
224.5000,1.60365,230.977,0.45932
224.4000,0.519053,231.012,0.459781
224.3000,2.59303,230.321,0.450689
224.2000,-0.417239,231.575,0.467173
224.1000,-0.867598,231.613,0.467663
224.0000,0.80915,230.103,0.447823
223.9000,0.630067,231.357,0.464304
223.8000,1.00069,230.293,0.450316
223.7000,0.557432,231.738,0.469312
223.6000,2.49979,230.409,0.451853
223.5000,-0.499036,231.391,0.46475
223.4000,1.48114,231.793,0.470024
223.3000,1.53639,231.916,0.471642
223.2000,2.8195,231.498,0.466162
223.1000,1.55171,230.705,0.455745
223.0000,2.36186,232.083,0.473823
222.9000,2.50402,231.49,0.466058
222.8000,1.53349,231.632,0.467916
222.7000,1.15768,232.566,0.480135
222.6000,1.34172,233.382,0.490794
222.5000,3.42692,231.099,0.460928
222.4000,1.78721,233.222,0.488697
222.3000,1.04674,232.843,0.483761
222.2000,1.46652,232.556,0.480017
222.1000,-0.178633,232.88,0.484248
222.0000,0.712477,232.611,0.480727
221.9000,0.800105,233.209,0.488534
221.8000,0.685372,233.007,0.485904
221.7000,-0.687218,231.92,0.471687
221.6000,1.07695,232.475,0.478951
221.5000,0.779072,232.973,0.485461
221.4000,2.64117,233.606,0.493701
221.3000,-0.977735,233.801,0.496237
221.2000,1.03833,233.197,0.488372
221.1000,-1.38677,234.045,0.499419
221.0000,0.345863,234.996,0.511755
220.9000,2.5913,234.452,0.504703
220.8000,1.26871,234.25,0.502084
220.7000,0.989358,233.558,0.493081
220.6000,2.22685,234.333,0.503158
220.5000,-1.00523,234.086,0.49995
220.4000,0.606911,234.543,0.505879
220.3000,-0.780342,235.198,0.514367
220.2000,1.12617,235.107,0.513193
220.1000,1.28318,235.413,0.517153
220.0000,1.21828,235.538,0.518764
219.9000,0.0989592,234.696,0.507863
219.8000,0.647943,235.424,0.517299
219.7000,0.323318,235.312,0.515848
219.6000,1.39446,234.708,0.508025
219.5000,0.894487,235.888,0.523289
219.4000,2.19179,235.934,0.523889
219.3000,0.979733,235.873,0.523098
219.2000,1.16226,234.289,0.502585
219.1000,3.6256,237.45,0.543412
219.0000,0.702933,236.137,0.526506
218.9000,-0.125004,236.222,0.527603
218.8000,0.423338,235.318,0.515921
218.7000,0.383712,237.505,0.54411
218.6000,1.19894,236.691,0.533648
218.5000,1.15252,236.612,0.532627
218.4000,1.395,237.153,0.539597
218.3000,1.25344,236.444,0.530466
218.2000,2.50183,236.924,0.536653
218.1000,-0.276925,236.311,0.528757
218.0000,1.94406,236.289,0.528465
217.9000,0.7894,236.646,0.533065
217.8000,1.22326,237.026,0.537965
217.7000,0.111325,239.141,0.565061
217.6000,-1.26616,238.129,0.552118
217.5000,-0.582625,237.379,0.542495
217.4000,1.04936,237.41,0.542902
217.3000,-0.00967694,238.565,0.557704
217.2000,-0.842363,237.346,0.542072
217.1000,2.50462,237.184,0.53999
217.0000,0.433839,236.427,0.530247
216.9000,0.703149,238.757,0.560153
216.8000,2.32871,238.353,0.554992
216.7000,4.18144,237.753,0.547295
216.6000,0.019158,239.223,0.566117
216.5000,-0.860885,238.532,0.557283
216.4000,-0.375339,238.348,0.554919
216.3000,1.63798,238.87,0.561601
216.2000,-0.163568,238.805,0.560776
216.1000,1.08748,239.416,0.568575
216.0000,2.20255,239.494,0.569572
215.9000,1.49685,241.061,0.589502
215.8000,1.6493,239.971,0.57565
215.7000,0.664962,239.894,0.574669
215.6000,-0.0633526,239.251,0.566464
215.5000,0.463984,239.754,0.572879
215.4000,1.33177,239.184,0.56561
215.3000,1.36415,240.976,0.588424
215.2000,3.63118,240.043,0.576559
215.1000,-2.38295,239.159,0.565292
215.0000,1.04226,240.827,0.586526
214.9000,0.0711886,238.677,0.559138
214.8000,1.17982,240.822,0.586468
214.7000,0.751598,239.809,0.573587
214.6000,2.0117,240.216,0.578765
214.5000,-1.76768,240.682,0.584684
214.4000,2.2294,241.201,0.591269
214.3000,0.645183,239.831,0.573861
214.2000,0.854098,241.527,0.595404
214.1000,0.463672,240.518,0.582611
214.0000,1.60625,239.6,0.570915
213.9000,2.70958,241.103,0.590034
213.8000,-2.06768,241.952,0.600781
213.7000,3.88675,238.982,0.563035
213.6000,2.70968,241.76,0.598359
213.5000,0.181149,240.759,0.585663
213.4000,2.29842,243.342,0.618321
213.3000,4.01975,242.137,0.603116
213.2000,1.05009,241.144,0.590551
213.1000,0.00985896,242.262,0.604705
213.0000,0.694493,241.916,0.600323
212.9000,4.04021,242.014,0.601569
212.8000,0.824895,241.565,0.595892
212.7000,-1.10322,241.187,0.591097
212.6000,1.4453,242.28,0.604934
212.5000,3.5093,243.161,0.616038
212.4000,2.1383,242.819,0.611726
212.3000,-3.20953,243.097,0.615239
212.2000,1.25008,242.687,0.610069
212.1000,-2.34659,244.012,0.626739
212.0000,-0.178959,243.24,0.617037
211.9000,1.65748,244.227,0.629442
211.8000,1.4468,242.833,0.611912
211.7000,0.838526,244.34,0.630863
211.6000,4.38334,244.603,0.634159
211.5000,3.73939,243.758,0.623551
211.4000,3.82506,243.941,0.625857
211.3000,0.000422101,244.877,0.637594
211.2000,1.97365,245.57,0.646252
211.1000,-0.525424,243.103,0.615311
211.0000,2.89457,243.73,0.623195
210.9000,-0.0012993,244.338,0.630835
210.8000,2.8149,243.913,0.625501
210.7000,3.62566,245.751,0.648516
210.6000,-0.872009,243.237,0.616994
210.5000,0.980028,244.533,0.633278
210.4000,1.60878,245.072,0.640033
210.3000,-0.640163,244.908,0.637977
210.2000,3.51023,244.999,0.639111
210.1000,-1.28036,245.129,0.640742
210.0000,0.103831,245.437,0.644595
209.9000,3.11754,245.565,0.646195
209.8000,-0.316185,245.692,0.64778
209.7000,3.36245,246.28,0.655115
209.6000,0.690463,245.425,0.644439
209.5000,2.1005,246.287,0.6552
209.4000,-0.426745,248.104,0.677779
209.3000,3.17473,246.287,0.6552
209.2000,2.59423,246.907,0.662915
209.1000,-1.74729,246.328,0.655708
209.0000,-1.41993,248.167,0.67855
208.9000,-3.56472,245.169,0.641238
208.8000,2.50174,247.168,0.666169
208.7000,2.66225,247.034,0.664493
208.6000,-0.439561,247.08,0.665071
208.5000,0.868381,248.3,0.680206
208.4000,-0.245784,248.664,0.684705
208.3000,2.38993,248.528,0.683024
208.2000,-1.96559,246.991,0.663958
208.1000,0.330266,247.948,0.675842
208.0000,4.00958,247.809,0.674114
207.9000,-0.111989,248.078,0.677456
207.8000,1.15694,249.949,0.700556
207.7000,1.78317,249.015,0.689045
207.6000,1.28576,250.086,0.702243
207.5000,0.486377,249.918,0.700179
207.4000,0.98884,249.477,0.694735
207.3000,0.186251,249.997,0.701141
207.2000,0.129813,249.771,0.698365
207.1000,4.59351,250.347,0.705448
207.0000,1.42029,250.031,0.70156
206.9000,2.14838,250.018,0.701406
206.8000,-0.457238,249.948,0.700542
206.7000,1.22763,250.169,0.703261
206.6000,-0.652355,250.969,0.713088
206.5000,0.754845,251.121,0.71495
206.4000,3.47706,250.706,0.709861
206.3000,0.0819639,250.939,0.712726
206.2000,-1.45884,251.19,0.715797
206.1000,4.46452,251.286,0.716978
206.0000,6.12954,253.303,0.741614
205.9000,2.70685,251.126,0.715019
205.8000,-0.139136,251.872,0.72415
205.7000,2.8881,251.365,0.71795
205.6000,4.7085,250.669,0.709402
205.5000,1.08996,253.455,0.743462
205.4000,2.25849,252.611,0.733176
205.3000,0.854499,252.561,0.732567
205.2000,4.0024,252.505,0.73189
205.1000,2.10984,253.139,0.739613
205.0000,2.45885,252.858,0.736189
204.9000,2.24195,253.199,0.740345
204.8000,0.429565,253.59,0.745102
204.7000,-0.520356,252.886,0.736534
204.6000,2.07542,253.475,0.74371
204.5000,-0.557413,252.973,0.737598
204.4000,-0.203307,254.847,0.760369
204.3000,-0.786722,255.626,0.769786
204.2000,2.13084,255.152,0.764059
204.1000,1.37571,254.225,0.752826
204.0000,0.617475,255.255,0.765307
203.9000,-1.43919,256.187,0.776557
203.8000,2.1517,255.413,0.767212
203.7000,-1.70997,255.985,0.774124
203.6000,2.59747,258.021,0.798617
203.5000,1.21078,255.862,0.772647
203.4000,4.69286,255.93,0.773467
203.3000,1.43736,257.211,0.788891
203.2000,0.997752,256.693,0.782661
203.1000,1.30656,256.861,0.78468
203.0000,1.95768,256.847,0.784516
202.9000,0.26795,256.855,0.784611
202.8000,1.08849,258.318,0.802175
202.7000,2.9996,257.976,0.798074
202.6000,1.41679,257.384,0.790974
202.5000,-0.507665,258.395,0.803098
202.4000,3.3563,256.649,0.782129
202.3000,0.0367183,259.583,0.817305
202.2000,1.42122,259.319,0.814154
202.1000,1.98143,259.647,0.818061
202.0000,-1.39513,259.448,0.815682
201.9000,3.15212,261.258,0.83723
201.8000,0.43128,259.963,0.82183
201.7000,3.0355,259.782,0.819669
201.6000,1.05769,260.332,0.826229
201.5000,-0.263962,260.815,0.831969
201.4000,1.97271,260.603,0.829451
201.3000,-0.214838,261.154,0.835993
201.2000,2.56523,261.455,0.839569
201.1000,0.46157,262.571,0.852781
201.0000,3.26854,260.975,0.833867
200.9000,-0.55473,262.178,0.848132
200.8000,2.18781,262.133,0.847596
200.7000,0.579329,263.051,0.858441
200.6000,-0.436059,263.012,0.857986
200.5000,0.847324,263.163,0.859764
200.4000,3.04924,263.701,0.866107
200.3000,-2.20474,263.442,0.863051
200.2000,-3.38512,263.743,0.866601
200.1000,0.142495,264.49,0.875382
200.0000,-1.27392,264.524,0.875781
199.9000,0.37368,264.428,0.874663
199.8000,0.647048,265.418,0.886266
199.7000,2.53837,265.439,0.886518
199.6000,-1.85742,264.886,0.880037
199.5000,5.67853,264.998,0.881353
199.4000,3.63419,265.303,0.884926
199.3000,2.42463,265.396,0.886014
199.2000,2.76072,265.547,0.887779
199.1000,0.109253,266.26,0.896113
199.0000,-0.82168,266.013,0.893227
198.9000,4.82083,265.966,0.892684
198.8000,-1.75425,265.794,0.89067
198.7000,1.14608,266.726,0.901563
198.6000,-0.940727,267.452,0.910012
198.5000,3.10639,268.233,0.919099
198.4000,4.14625,266.141,0.894723
198.3000,0.49273,267.627,0.912055
198.2000,0.0553171,267.874,0.914927
198.1000,0.227843,267.632,0.912108
198.0000,4.07779,268.361,0.920586
197.9000,-0.840812,268.145,0.918073
197.8000,2.2277,268.65,0.923937
197.7000,3.69224,267.637,0.912174
197.6000,0.269098,271.302,0.954555
197.5000,-0.411142,269.509,0.933883
197.4000,1.26774,268.514,0.922361
197.3000,2.13543,269.897,0.938361
197.2000,0.989163,271.121,0.952482
197.1000,-0.860118,270.965,0.950683
197.0000,0.810567,269.788,0.937105
196.9000,0.416668,270.537,0.945749
196.8000,-2.51476,270.92,0.950161
196.7000,4.02417,271.006,0.951152
196.6000,5.33921,272.168,0.964511
196.5000,3.94449,272.286,0.965862
196.4000,0.733022,271.98,0.962353
196.3000,4.05291,273.46,0.979298
196.2000,-0.648579,272.051,0.963159
196.1000,4.06546,272.698,0.970575
196.0000,1.61087,272.691,0.970497
195.9000,-4.64361,274.879,0.995471
195.8000,0.804802,274.789,0.994453
195.7000,0.123707,274.256,0.988375
195.6000,3.72782,275.647,1.0042
195.5000,2.15942,275.621,1.0039
195.4000,1.43271,275.145,0.998499
195.3000,2.18094,276.759,1.0168
195.2000,0.154553,275.517,1.00272
195.1000,-0.133868,277.089,1.02054
195.0000,3.4944,277.461,1.02473
194.9000,2.60521,277.79,1.02844
194.8000,3.16049,277.87,1.02935
194.7000,3.78194,277.605,1.02636
194.6000,0.45249,276.949,1.01895
194.5000,2.01742,279.549,1.04823
194.4000,-0.183289,277.645,1.02681
194.3000,-1.3677,280.626,1.06029
194.2000,3.31957,280.58,1.05978
194.1000,2.20239,280.775,1.06196
194.0000,3.01508,281.611,1.0713
193.9000,0.73912,282.675,1.08314
193.8000,6.05038,281.571,1.07084
193.7000,-0.169775,283.959,1.09738
193.6000,2.27914,283.246,1.08948
193.5000,1.64293,283.226,1.08926
193.4000,-1.53739,286.599,1.1265
193.3000,1.41701,285.11,1.11011
193.2000,3.04518,285.226,1.11138
193.1000,-1.3448,286.986,1.13075
193.0000,3.63951,286.742,1.12807
192.9000,2.20906,287.679,1.13835
192.8000,3.77047,288.295,1.1451
192.7000,4.54657,289.098,1.15386
192.6000,2.6379,288.844,1.15109
192.5000,3.2433,291.206,1.17679
192.4000,-0.516866,289.857,1.16213
192.3000,8.08188,291.07,1.17532
192.2000,1.42943,293.689,1.20362
192.1000,-1.51393,293.356,1.20003
192.0000,-0.416998,294.726,1.21476
191.9000,0.873115,295.522,1.2233
191.8000,2.02907,297.332,1.24264
191.7000,-0.640712,298.296,1.2529
191.6000,-0.448318,297.715,1.24672
191.5000,2.68473,298.32,1.25315
191.4000,1.21695,298.027,1.25004
191.3000,11.1136,299.517,1.26586
191.2000,4.49567,302.357,1.29582
191.1000,-1.07645,301.862,1.29061
191.0000,3.57507,304.002,1.31307
190.9000,-2.7879,305.734,1.33115
190.8000,1.79227,307.054,1.34487
190.7000,4.41311,307.874,1.35336
190.6000,10.0274,309.406,1.36918
190.5000,0.994899,309.446,1.3696
190.4000,-4.9861,312.238,1.39827
190.3000,-3.95711,313.29,1.40902
190.2000,-1.55852,316.672,1.44337
190.1000,-4.35073,315.657,1.43309
190.0000,2.97765,317.7,1.45375

##### Extended Information
[Comments]
Sample name,AZNTEA_BUFFER_928
Comment,BUFFER
User,ALEXZHANG
Division
Company,Saint Mary's College

[Detailed Information]
Creation date,9/28/2022 3:41 PM

Data array type,Linear data array * 3
Horizontal axis,Wavelength [nm]
Vertical axis(1),CD [mdeg]
Vertical axis(2),HT [V]
Vertical axis(3),Abs
Start,320 nm
End,190 nm
Data interval,0.1 nm
Data points,1301    

[Measurement Information]
Instrument name,J-1500
Model name,J-1500
Serial No.,B051061638

Detector,PM-539
Detector S/N,B051061638
  Lock-in amp.,X mode
  HT volt,Auto

Accessory,PTC-517
Accessory S/N,B026561646
  Temperature,23.14 C
  Control sensor,Holder
  Monitor sensor,Holder

Measurement date,9/28/2022 3:40 PM

CD Overload detect,1258
Photometric mode,CD, HT, Abs
Measure range,320 - 190 nm
Data pitch,0.1 nm
CD scale,20 mdeg/0.05 dOD
FL scale,20 mdeg/0.05 dOD
D.I.T.,8 msec
Bandwidth,2.00 nm
Start mode,Immediately
Scanning mode,Continuous
Scanning speed,200 nm/min
Baseline correction,None
Shutter control,Auto
No. of cycle,1/1
N2 Flowmeter,Manual

Solvent,NaPO4 buffer

