TITLE,AZNTEA_ADDITIVE&PROTEIN_928
DATA TYPE,
ORIGIN,JASCO
OWNER,
DATE,22/09/28
TIME,15:55:35
SPECTROMETER/DATA SYSTEM,
LOCALE,1033
RESOLUTION,
DELTAX,-0.1
XUNITS,NANOMETERS
YUNITS,CD [mdeg]
Y2UNITS,HT [V]
Y3UNITS,ABSORBANCE
FIRSTX,  320.0000
LASTX,  190.0000
NPOINTS,    1301
FIRSTY,     2.04193
MAXY,    51.60477
MINY,   -66.95696
XYDATA
320.0000,2.04193,207.958,0.143598
319.9000,0.286666,208.859,0.156497
319.8000,1.55478,208.895,0.156998
319.7000,1.75785,208.224,0.147411
319.6000,0.753189,208.29,0.148351
319.5000,0.0483267,207.78,0.141048
319.4000,2.38277,208.353,0.149259
319.3000,1.91119,207.93,0.143208
319.2000,-0.942679,208.601,0.152807
319.1000,1.60561,209.195,0.161282
319.0000,0.908006,208.736,0.154733
318.9000,0.292944,208.232,0.147524
318.8000,1.59393,207.919,0.143045
318.7000,1.21809,208.61,0.152936
318.6000,-0.378391,209.05,0.159214
318.5000,1.72978,208.224,0.147411
318.4000,2.54077,208.414,0.150134
318.3000,2.77178,208.479,0.151058
318.2000,1.61455,208.943,0.157694
318.1000,0.927553,208.36,0.149356
318.0000,1.94918,208.517,0.151609
317.9000,0.68831,208.875,0.156724
317.8000,0.49923,208.693,0.154118
317.7000,1.37561,208.125,0.146
317.6000,1.35522,208.878,0.156756
317.5000,-0.527086,209.289,0.162623
317.4000,1.92011,208.352,0.149243
317.3000,0.490119,208.853,0.1564
317.2000,2.10057,208.78,0.155365
317.1000,2.47406,208.692,0.154102
317.0000,1.93844,207.673,0.13952
316.9000,1.95494,208.447,0.150604
316.8000,1.51328,207.663,0.139374
316.7000,1.62056,208.291,0.148367
316.6000,-0.0621176,207.971,0.143792
316.5000,-0.422672,207.876,0.142429
316.4000,1.77593,208.371,0.149518
316.3000,0.873067,207.912,0.142948
316.2000,1.19313,208.83,0.156077
316.1000,1.56649,208.871,0.156659
316.0000,0.437024,208.058,0.145042
315.9000,0.176931,209.091,0.159796
315.8000,1.24144,207.711,0.140057
315.7000,1.86273,207.822,0.141649
315.6000,2.0117,208.318,0.148757
315.5000,2.16174,207.674,0.139537
315.4000,1.06863,207.998,0.144182
315.3000,2.62318,208.353,0.149259
315.2000,0.325475,208.071,0.145221
315.1000,1.53984,207.806,0.141421
315.0000,1.26052,208.308,0.148611
314.9000,1.50035,208.378,0.149615
314.8000,1.50755,208.285,0.148286
314.7000,0.186129,208.083,0.145399
314.6000,0.956701,208.035,0.144701
314.5000,2.40082,207.762,0.140788
314.4000,1.67148,208.161,0.146519
314.3000,-0.0590311,207.873,0.14238
314.2000,1.59419,208.045,0.144847
314.1000,1.59922,207.254,0.133502
314.0000,2.29341,208.046,0.144864
313.9000,1.30535,208.197,0.147021
313.8000,0.282409,207.776,0.140999
313.7000,1.94873,207.814,0.141535
313.6000,1.37077,207.493,0.136935
313.5000,0.599705,208.358,0.149324
313.4000,1.91696,207.296,0.134104
313.3000,2.66668,207.714,0.140105
313.2000,3.68123,208.334,0.148983
313.1000,1.11564,207.91,0.142916
313.0000,1.38916,206.998,0.129821
312.9000,0.463212,207.721,0.140203
312.8000,0.988513,208.28,0.148221
312.7000,0.627773,207.644,0.139098
312.6000,1.15498,208.234,0.147557
312.5000,1.36566,207.757,0.140723
312.4000,2.31242,207.79,0.141194
312.3000,1.85494,207.457,0.136415
312.2000,1.50342,208.304,0.148562
312.1000,1.4539,208.218,0.14733
312.0000,2.484,208.143,0.146259
311.9000,1.38042,208.653,0.153552
311.8000,1.02081,207.841,0.141925
311.7000,2.80893,208.663,0.153698
311.6000,1.59712,208.734,0.154701
311.5000,2.533,207.86,0.142201
311.4000,1.79463,207.984,0.143971
311.3000,2.46581,208.878,0.156756
311.2000,1.6831,207.456,0.136398
311.1000,1.5224,208.14,0.14621
311.0000,2.0111,207.89,0.142623
310.9000,1.165,206.759,0.126381
310.8000,2.4917,208.013,0.144393
310.7000,-0.628979,208.104,0.145691
310.6000,0.60883,207.867,0.142299
310.5000,1.05216,207.116,0.131515
310.4000,1.0865,208.316,0.148724
310.3000,1.93936,207.68,0.139618
310.2000,1.12876,207.36,0.135032
310.1000,1.15293,207.908,0.142883
310.0000,1.11529,207.774,0.140967
309.9000,0.721746,208.193,0.146973
309.8000,1.58588,207.26,0.133583
309.7000,2.09938,208.02,0.14449
309.6000,-0.0293361,207.718,0.140171
309.5000,1.09989,207.18,0.132444
309.4000,2.07312,207.471,0.136626
309.3000,1.84787,207.502,0.137066
309.2000,-0.190408,207.223,0.133062
309.1000,1.82475,208.297,0.148465
309.0000,1.41396,207.626,0.138838
308.9000,0.653739,208.839,0.156206
308.8000,0.386624,208.305,0.148578
308.7000,1.56727,208.147,0.146308
308.6000,0.270463,207.603,0.138512
308.5000,2.57705,207.283,0.133925
308.4000,1.4077,208.291,0.148367
308.3000,2.86661,207.834,0.141827
308.2000,0.461967,207.532,0.137488
308.1000,1.65596,207.202,0.132753
308.0000,1.76639,208.245,0.147719
307.9000,3.63229,207.67,0.139472
307.8000,-0.136265,207.755,0.14069
307.7000,-1.18087,207.333,0.134641
307.6000,1.7565,207.776,0.140999
307.5000,2.2529,207.532,0.137488
307.4000,1.95568,207.616,0.138708
307.3000,0.910499,207.576,0.138123
307.2000,0.911012,207.384,0.135374
307.1000,1.65053,207.832,0.141795
307.0000,3.59065,208.028,0.144604
306.9000,1.0937,207.606,0.138561
306.8000,0.919486,207.356,0.134967
306.7000,2.18555,207.461,0.13648
306.6000,1.5229,207.592,0.13835
306.5000,3.48236,207.58,0.138187
306.4000,0.61548,207.739,0.140463
306.3000,-0.0336564,207.459,0.136447
306.2000,2.05686,207.768,0.140886
306.1000,1.75745,207.363,0.135064
306.0000,0.565145,207.993,0.144101
305.9000,1.82817,207.457,0.136415
305.8000,1.11837,207.873,0.14238
305.7000,1.61548,208.474,0.150993
305.6000,0.553937,208.007,0.144312
305.5000,1.56037,207.695,0.139829
305.4000,1.73281,207.306,0.134251
305.3000,0.602458,207.555,0.13783
305.2000,2.27416,207.904,0.142835
305.1000,1.18602,207.146,0.131955
305.0000,3.22634,208.266,0.14801
304.9000,-1.01615,207.897,0.142737
304.8000,0.912583,207.812,0.141519
304.7000,2.05346,207.883,0.142526
304.6000,-0.0862986,207.624,0.138821
304.5000,-0.739221,208.461,0.150798
304.4000,1.10652,207.163,0.132199
304.3000,1.55864,207.098,0.131255
304.2000,0.70767,207.356,0.134967
304.1000,1.07567,207.767,0.140869
304.0000,3.3956,207.538,0.137586
303.9000,0.712499,207.317,0.134413
303.8000,0.221753,207.679,0.139602
303.7000,1.28756,207.371,0.135178
303.6000,-0.197643,207.853,0.142104
303.5000,0.0948254,207.988,0.144036
303.4000,2.05233,207.457,0.136415
303.3000,2.05875,207.526,0.137407
303.2000,1.96886,207.274,0.133795
303.1000,0.665435,207.418,0.135862
303.0000,1.08156,207.81,0.141486
302.9000,1.4736,207.19,0.13259
302.8000,2.12634,207.945,0.143419
302.7000,1.72152,207.414,0.135797
302.6000,2.83134,207.49,0.136886
302.5000,-0.168204,208.146,0.146291
302.4000,0.217971,207.8,0.14134
302.3000,0.564356,206.557,0.123476
302.2000,1.41565,207.195,0.132655
302.1000,1.61819,208.2,0.14707
302.0000,1.74743,207.706,0.139992
301.9000,0.821816,206.841,0.127571
301.8000,2.13432,207.067,0.130815
301.7000,-0.103172,207.189,0.132574
301.6000,1.7726,207.205,0.132802
301.5000,0.712988,207.825,0.141698
301.4000,0.287253,207.622,0.138789
301.3000,0.910651,207.237,0.133258
301.2000,-0.246073,207.066,0.130799
301.1000,2.39392,206.618,0.124358
301.0000,3.31246,207.24,0.133306
300.9000,0.63444,207.381,0.135325
300.8000,0.981862,207.133,0.131759
300.7000,0.931292,207.07,0.130864
300.6000,1.4832,207.55,0.137748
300.5000,1.41641,207.732,0.140365
300.4000,1.59891,207.255,0.133518
300.3000,0.707544,207.01,0.13
300.2000,1.4455,207.928,0.143175
300.1000,2.46077,206.972,0.129446
300.0000,1.11844,206.572,0.123688
299.9000,0.744908,207.369,0.135162
299.8000,0.179194,207.53,0.137472
299.7000,0.804232,207.096,0.131238
299.6000,1.4752,207.136,0.131808
299.5000,0.924949,208.054,0.144977
299.4000,2.87529,207.19,0.13259
299.3000,2.03263,206.327,0.12016
299.2000,1.05937,207.526,0.137407
299.1000,0.544791,207.752,0.140658
299.0000,2.67566,207.507,0.13713
298.9000,-0.473098,207.843,0.141958
298.8000,0.531648,207.417,0.135846
298.7000,2.52257,208.116,0.14587
298.6000,2.3853,207.19,0.13259
298.5000,2.62504,207.322,0.134479
298.4000,0.426864,206.102,0.116907
298.3000,1.6443,206.738,0.126087
298.2000,1.45214,206.996,0.129788
298.1000,1.09895,207.022,0.130163
298.0000,2.80259,207.501,0.137049
297.9000,2.91846,207.179,0.132427
297.8000,1.13206,207.039,0.130408
297.7000,-0.272128,206.563,0.123558
297.6000,0.922831,206.96,0.129283
297.5000,0.0745633,207.202,0.132753
297.4000,0.0644517,207.171,0.132313
297.3000,-0.999858,207.602,0.138496
297.2000,0.861033,207.519,0.137309
297.1000,-0.0643556,206.712,0.125712
297.0000,0.729332,206.928,0.12881
296.9000,1.34336,207.492,0.136919
296.8000,0.549993,207.333,0.134641
296.7000,1.12699,206.895,0.128337
296.6000,1.89918,207.031,0.130293
296.5000,0.122339,206.865,0.127914
296.4000,1.90427,207.494,0.136952
296.3000,0.481669,206.83,0.127408
296.2000,0.722782,206.781,0.126707
296.1000,0.719844,207.064,0.130766
296.0000,1.50181,207.882,0.14251
295.9000,1.96832,207.151,0.13202
295.8000,0.958452,207.246,0.133388
295.7000,1.79186,207.569,0.138025
295.6000,1.21952,206.99,0.129707
295.5000,0.550609,207.576,0.138123
295.4000,1.41908,207.98,0.143922
295.3000,1.42223,207.116,0.131515
295.2000,0.107997,207.271,0.133746
295.1000,0.985038,207.53,0.137472
295.0000,0.943268,206.854,0.127751
294.9000,0.408411,207.117,0.131532
294.8000,0.436003,206.811,0.127131
294.7000,-0.082299,207.25,0.133453
294.6000,0.632915,207.022,0.130163
294.5000,0.48027,206.727,0.125924
294.4000,0.493069,207.258,0.133567
294.3000,0.696039,206.794,0.126886
294.2000,0.596157,206.949,0.12912
294.1000,0.436104,207.513,0.137228
294.0000,1.43209,207.726,0.140284
293.9000,0.80709,207.401,0.135618
293.8000,1.23248,206.354,0.120553
293.7000,1.70222,206.81,0.127115
293.6000,0.894133,206.795,0.126903
293.5000,1.38208,206.727,0.125924
293.4000,1.58828,206.424,0.121565
293.3000,0.0572773,207.117,0.131532
293.2000,1.69967,207.934,0.143257
293.1000,0.53559,207.138,0.131841
293.0000,1.83791,207.119,0.131564
292.9000,1.37574,206.813,0.127164
292.8000,1.29221,207.101,0.131304
292.7000,0.849954,207.578,0.138155
292.6000,0.562645,207.048,0.130538
292.5000,0.684358,206.923,0.128745
292.4000,2.82248,206.804,0.127033
292.3000,1.45204,206.745,0.126185
292.2000,1.03528,206.502,0.122676
292.1000,0.692749,207.449,0.136301
292.0000,0.315611,206.776,0.126625
291.9000,1.60119,206.206,0.118412
291.8000,-0.554378,206.515,0.122872
291.7000,0.930644,206.434,0.121696
291.6000,0.998591,206.802,0.127
291.5000,2.43072,206.651,0.124831
291.4000,2.28023,206.298,0.119736
291.3000,0.665985,206.887,0.128223
291.2000,1.13023,206.721,0.125842
291.1000,2.08791,207.348,0.134853
291.0000,1.15869,206.395,0.121141
290.9000,2.43414,207.444,0.136236
290.8000,2.75572,207.58,0.138187
290.7000,1.64908,206.882,0.128158
290.6000,2.98803,207.326,0.134544
290.5000,1.24051,206.07,0.11645
290.4000,0.042174,207.137,0.131825
290.3000,2.10447,206.66,0.124961
290.2000,0.750449,207.155,0.132085
290.1000,1.56728,207.121,0.131597
290.0000,2.26919,206.993,0.129756
289.9000,1.51966,207.807,0.141438
289.8000,0.184359,207.2,0.13272
289.7000,1.63519,207.051,0.130587
289.6000,0.113695,206.725,0.125891
289.5000,0.827817,206.92,0.128696
289.4000,1.42005,207.679,0.139602
289.3000,1.55156,207.555,0.13783
289.2000,1.30166,207.135,0.131792
289.1000,0.564161,207.887,0.142591
289.0000,-1.1423,207.593,0.138366
288.9000,1.46386,207.559,0.137879
288.8000,1.42778,206.983,0.129609
288.7000,1.05106,208.149,0.14634
288.6000,1.54421,207.589,0.138318
288.5000,2.64636,207.262,0.133616
288.4000,2.07486,206.854,0.127751
288.3000,1.45305,207.784,0.141113
288.2000,0.231966,207.782,0.14108
288.1000,2.0158,207.842,0.141941
288.0000,2.03479,207.687,0.139715
287.9000,0.641696,207.725,0.140268
287.8000,1.86133,207.053,0.130619
287.7000,1.59968,207.833,0.141811
287.6000,0.875962,207.416,0.135829
287.5000,0.362254,207.552,0.137781
287.4000,1.233,207.265,0.133665
287.3000,1.96327,207.284,0.133941
287.2000,1.53271,207.218,0.132981
287.1000,-1.72193,206.673,0.125141
287.0000,1.08569,206.684,0.125304
286.9000,1.80444,207.808,0.141454
286.8000,1.318,208.011,0.14436
286.7000,2.16376,207.282,0.133909
286.6000,-0.648443,207.713,0.140089
286.5000,3.4816,208.236,0.147589
286.4000,-0.346197,207.554,0.137814
286.3000,1.71329,207.115,0.131499
286.2000,1.55153,207.318,0.13443
286.1000,1.30654,207.828,0.141746
286.0000,0.180388,208.021,0.144506
285.9000,0.148781,207.35,0.134885
285.8000,0.698948,207.577,0.138139
285.7000,0.175667,207.099,0.131271
285.6000,-0.097731,207.705,0.139975
285.5000,-0.177252,207.509,0.137163
285.4000,0.841862,207.662,0.139358
285.3000,0.530812,207.745,0.140544
285.2000,1.12418,207.577,0.138139
285.1000,-0.376535,207.62,0.138756
285.0000,0.164416,207.853,0.142104
284.9000,0.661397,207.433,0.136073
284.8000,-0.110578,207.593,0.138366
284.7000,0.160025,207.232,0.133193
284.6000,2.05034,207.441,0.136187
284.5000,0.57763,207.686,0.139699
284.4000,0.239951,208.007,0.144312
284.3000,0.374971,207.929,0.143192
284.2000,0.967143,207.745,0.140544
284.1000,1.11228,207.825,0.141698
284.0000,0.122823,208.361,0.149372
283.9000,-0.474696,207.522,0.137358
283.8000,1.00416,207.553,0.137797
283.7000,0.758335,207.631,0.138919
283.6000,1.04796,207.954,0.143549
283.5000,-0.565616,207.134,0.131776
283.4000,3.02335,206.739,0.126103
283.3000,-0.436169,207.894,0.142688
283.2000,0.574291,208.466,0.15088
283.1000,1.77054,208.509,0.151495
283.0000,-0.199539,207.9,0.14277
282.9000,1.34791,207.577,0.138139
282.8000,2.2997,207.96,0.14363
282.7000,0.437663,207.006,0.129935
282.6000,0.972974,208.175,0.146713
282.5000,0.675552,207.082,0.131026
282.4000,1.28908,208.032,0.144669
282.3000,2.52639,208.334,0.148983
282.2000,2.13542,208.438,0.150474
282.1000,-0.188603,208.531,0.151803
282.0000,-0.115215,207.376,0.13526
281.9000,1.74124,207.699,0.139894
281.8000,-1.24024,207.956,0.143581
281.7000,1.48134,207.765,0.140837
281.6000,1.54836,207.754,0.140674
281.5000,1.61655,208.22,0.147362
281.4000,0.182732,207.862,0.142234
281.3000,0.353709,207.801,0.141356
281.2000,-0.0323261,207.452,0.13635
281.1000,2.9579,208.24,0.147638
281.0000,0.273975,208.054,0.144977
280.9000,1.6214,207.359,0.135015
280.8000,0.267461,208.532,0.151819
280.7000,0.749699,207.893,0.142672
280.6000,1.42859,207.624,0.138821
280.5000,0.121049,207.723,0.140236
280.4000,0.909981,208.171,0.146648
280.3000,1.41548,207.564,0.13796
280.2000,1.64034,207.535,0.137537
280.1000,0.597919,207.745,0.140544
280.0000,1.81795,208.122,0.145951
279.9000,1.64595,208.413,0.150118
279.8000,0.000394477,208.165,0.146567
279.7000,0.477973,208.269,0.148059
279.6000,2.04201,208.265,0.147994
279.5000,2.11156,208.212,0.147248
279.4000,0.882329,207.728,0.1403
279.3000,1.13358,207.632,0.138935
279.2000,2,208.097,0.145594
279.1000,2.23456,208.029,0.14462
279.0000,-0.0504366,207.577,0.138139
278.9000,0.725713,207.369,0.135162
278.8000,1.28324,207.891,0.14264
278.7000,1.27509,207.243,0.133339
278.6000,1.13097,208.556,0.152159
278.5000,1.70952,207.684,0.139683
278.4000,-0.143886,207.486,0.136838
278.3000,-1.40703,207.003,0.129902
278.2000,-0.969932,208.088,0.145464
278.1000,1.50859,207.52,0.137326
278.0000,-0.336702,207.87,0.142347
277.9000,0.983772,207.723,0.140236
277.8000,3.09303,208.078,0.145318
277.7000,1.96907,208.526,0.151738
277.6000,-0.556797,207.952,0.143516
277.5000,0.911576,208.39,0.149794
277.4000,-0.0386915,207.939,0.143338
277.3000,1.39552,207.836,0.14186
277.2000,0.84759,208.449,0.150636
277.1000,1.03933,208.582,0.152532
277.0000,-1.19565,207.485,0.136822
276.9000,1.47083,208.411,0.150085
276.8000,0.937025,208.2,0.14707
276.7000,1.28894,208.03,0.144636
276.6000,0.80383,207.313,0.134348
276.5000,1.57986,207.586,0.138269
276.4000,1.09088,207.66,0.139325
276.3000,1.43948,206.922,0.128729
276.2000,-0.434066,208.392,0.14981
276.1000,-0.873665,208.214,0.147265
276.0000,2.25097,208.252,0.147816
275.9000,-1.25429,207.57,0.138041
275.8000,1.71895,207.826,0.141714
275.7000,1.63822,207.201,0.132737
275.6000,1.24443,208.058,0.145042
275.5000,0.0183856,207.226,0.133095
275.4000,0.543027,208.141,0.146226
275.3000,1.73883,207.956,0.143581
275.2000,0.580383,208.056,0.14501
275.1000,0.334282,207.874,0.142396
275.0000,0.282584,208.004,0.144263
274.9000,2.26137,207.848,0.142023
274.8000,1.13971,208.361,0.149372
274.7000,0.60408,207.725,0.140268
274.6000,0.42665,207.746,0.140561
274.5000,1.34966,207.272,0.133762
274.4000,2.54276,207.631,0.138919
274.3000,0.718955,207.86,0.142201
274.2000,0.389624,208.107,0.14574
274.1000,1.43468,208.224,0.147411
274.0000,0.998653,207.717,0.140154
273.9000,1.8665,207.55,0.137748
273.8000,1.74474,208.229,0.147492
273.7000,-1.64449,208.173,0.146681
273.6000,0.714029,208.148,0.146324
273.5000,2.21599,208.454,0.150701
273.4000,0.511081,207.509,0.137163
273.3000,0.450462,208.152,0.146389
273.2000,-0.0733151,208.371,0.149518
273.1000,-0.277584,207.447,0.136268
273.0000,1.02452,208.449,0.150636
272.9000,0.989326,208.531,0.151803
272.8000,1.20064,208.303,0.148546
272.7000,1.19762,208.018,0.144458
272.6000,0.784477,207.903,0.142818
272.5000,1.67863,208.158,0.14647
272.4000,0.183392,208.537,0.151884
272.3000,-0.409377,207.283,0.133925
272.2000,0.241477,208.169,0.146632
272.1000,0.423236,208.525,0.151722
272.0000,0.418818,207.976,0.143857
271.9000,1.00181,208.669,0.153779
271.8000,1.73571,208.478,0.151042
271.7000,1.12101,208.524,0.151706
271.6000,-0.533961,208.812,0.155818
271.5000,1.56516,208.212,0.147248
271.4000,0.209922,208.111,0.145789
271.3000,1.22798,207.963,0.143679
271.2000,0.160911,207.74,0.140479
271.1000,0.451246,207.891,0.14264
271.0000,0.238207,207.873,0.14238
270.9000,0.245479,208.407,0.150037
270.8000,2.307,207.661,0.139342
270.7000,0.756635,208.199,0.147054
270.6000,-0.6414,208.956,0.157872
270.5000,1.16167,208.677,0.153892
270.4000,1.0523,207.577,0.138139
270.3000,0.0801938,208.336,0.149016
270.2000,-0.273629,208.014,0.144409
270.1000,0.0467636,208.87,0.156643
270.0000,1.09768,208.362,0.149388
269.9000,2.11848,208.714,0.154426
269.8000,1.02374,208.487,0.151171
269.7000,1.26453,207.86,0.142201
269.6000,0.293133,208.303,0.148546
269.5000,0.687183,208.074,0.145269
269.4000,0.831051,208.256,0.147865
269.3000,1.60694,207.963,0.143679
269.2000,0.323654,208.351,0.149226
269.1000,-1.10623,208.635,0.153293
269.0000,0.246466,208.277,0.148173
268.9000,2.45209,208.764,0.155138
268.8000,0.268223,207.988,0.144036
268.7000,0.757366,208.445,0.150572
268.6000,0.783846,208.577,0.152467
268.5000,0.719108,208.914,0.157274
268.4000,1.88559,208.637,0.153325
268.3000,0.234066,208.862,0.15653
268.2000,-0.176774,208.691,0.154086
268.1000,1.25186,208.286,0.148302
268.0000,1.33848,208.691,0.154086
267.9000,1.70834,208.87,0.156643
267.8000,1.42544,209.121,0.160232
267.7000,1.49998,208.123,0.145967
267.6000,0.986041,208.585,0.15258
267.5000,0.312551,209.082,0.159666
267.4000,1.2185,209.317,0.163027
267.3000,0.602289,209.071,0.159521
267.2000,1.28362,208.708,0.154329
267.1000,0.702801,209.119,0.1602
267.0000,0.338501,208.476,0.151025
266.9000,0.890274,208.759,0.155057
266.8000,0.0167582,208.7,0.154215
266.7000,0.675321,208.85,0.156368
266.6000,1.40193,209.007,0.158599
266.5000,-1.24567,209.161,0.160797
266.4000,-0.347996,208.447,0.150604
266.3000,-0.21671,208.15,0.146356
266.2000,0.704385,209.556,0.166432
266.1000,-1.38165,208.873,0.156691
266.0000,0.663522,208.782,0.155397
265.9000,0.30958,208.764,0.155138
265.8000,0.338392,209.011,0.158664
265.7000,-0.529956,209.412,0.164383
265.6000,-0.900247,209.582,0.166803
265.5000,-0.482639,209.356,0.163576
265.4000,1.96147,209.454,0.16498
265.3000,1.02851,208.789,0.155494
265.2000,-0.343344,208.717,0.154458
265.1000,2.13049,208.769,0.155203
265.0000,1.38749,208.873,0.156691
264.9000,-0.172763,210.041,0.17333
264.8000,-0.614154,208.984,0.158276
264.7000,3.21046,209.156,0.160733
264.6000,1.79467,209.51,0.165771
264.5000,-0.0813394,209.299,0.162768
264.4000,-0.11841,209.123,0.160264
264.3000,0.949075,209.453,0.164964
264.2000,2.68295,209.887,0.17114
264.1000,-0.682877,209.528,0.166029
264.0000,-0.877984,209.346,0.16343
263.9000,-0.237916,210.139,0.174715
263.8000,1.45501,209.378,0.163899
263.7000,1.9825,210.191,0.175455
263.6000,0.768074,209.279,0.162478
263.5000,-0.260328,210.402,0.178447
263.4000,-1.64745,209.391,0.164076
263.3000,1.51227,209.859,0.170737
263.2000,0.621721,209.949,0.172026
263.1000,0.480824,209.377,0.163882
263.0000,1.38429,210.017,0.172992
262.9000,0.537345,209.347,0.163446
262.8000,-0.159451,209.675,0.168126
262.7000,0.930459,208.861,0.156513
262.6000,1.24357,209.482,0.165367
262.5000,0.581396,210.085,0.173958
262.4000,-1.60141,209.75,0.16919
262.3000,1.31261,209.625,0.167416
262.2000,0.278692,209.676,0.168142
262.1000,-0.0812136,210.185,0.175375
262.0000,1.09095,209.875,0.170962
261.9000,0.137852,210.176,0.175246
261.8000,1.4091,210.472,0.179444
261.7000,0.377605,210.448,0.179106
261.6000,2.26466,209.872,0.17093
261.5000,0.758028,210.193,0.175487
261.4000,1.26092,210.305,0.17708
261.3000,2.01236,210.072,0.173765
261.2000,1.24775,209.726,0.168851
261.1000,-0.0329598,210.094,0.174087
261.0000,-0.955493,210.328,0.177402
260.9000,1.00205,210.196,0.175536
260.8000,1.018,210.126,0.174538
260.7000,0.917845,210.669,0.18224
260.6000,0.470406,210.526,0.180215
260.5000,-0.766209,210.217,0.175825
260.4000,1.03561,211.144,0.188963
260.3000,1.18763,209.77,0.16948
260.2000,1.02244,210.445,0.179058
260.1000,-1.55631,209.983,0.172509
260.0000,0.72246,210.297,0.176967
259.9000,0.242254,210.837,0.184616
259.8000,0.348523,210.78,0.183813
259.7000,0.746836,210.819,0.184359
259.6000,1.01813,210.789,0.183942
259.5000,-0.517039,210.773,0.183717
259.4000,1.61702,210.692,0.182561
259.3000,0.93123,210.61,0.181404
259.2000,1.61592,210.951,0.186237
259.1000,1.1042,210.804,0.184151
259.0000,1.13082,211.611,0.195563
258.9000,-1.36042,210.542,0.18044
258.8000,1.87831,211.062,0.187809
258.7000,0.436493,210.935,0.186013
258.6000,-0.66226,211.02,0.187216
258.5000,-1.5431,210.833,0.184568
258.4000,0.916434,211.276,0.190839
258.3000,-0.422608,211.377,0.192265
258.2000,-0.0707927,210.652,0.181999
258.1000,1.0627,211.737,0.197355
258.0000,1.80913,211.181,0.189493
257.9000,-0.0883892,211.077,0.188018
257.8000,0.00518814,210.938,0.186044
257.7000,-1.10074,211.331,0.191608
257.6000,-0.731654,211.093,0.188242
257.5000,-0.858473,211.435,0.193082
257.4000,0.320633,211.412,0.192761
257.3000,1.18531,210.847,0.184761
257.2000,1.53863,211.35,0.19188
257.1000,-1.33286,211.35,0.19188
257.0000,0.489773,210.945,0.186157
256.9000,-0.245093,211.299,0.191159
256.8000,1.37775,211.202,0.189781
256.7000,0.616251,211.773,0.197851
256.6000,0.42845,212.131,0.202901
256.5000,0.870155,211.313,0.191352
256.4000,1.31121,211.645,0.196043
256.3000,1.02159,211.949,0.200345
256.2000,1.15319,212.6,0.209507
256.1000,1.58509,211.39,0.192441
256.0000,-0.122525,210.976,0.18659
255.9000,2.81527,211.185,0.189541
255.8000,-0.0934066,212.281,0.205025
255.7000,0.320024,211.275,0.190823
255.6000,-0.314218,210.891,0.185387
255.5000,2.41285,211.957,0.200457
255.4000,0.94237,211.581,0.195147
255.3000,0.063073,211.342,0.191768
255.2000,-0.838479,212.107,0.202566
255.1000,-1.17623,211.703,0.196875
255.0000,1.39694,211.909,0.199769
254.9000,1.04863,212.209,0.204003
254.8000,0.248393,212.4,0.2067
254.7000,-0.413102,211.758,0.197643
254.6000,0.0415571,211.948,0.200329
254.5000,0.502644,212.023,0.201384
254.4000,0.169816,212.587,0.209332
254.3000,1.69518,212.035,0.201559
254.2000,1.39834,211.622,0.195723
254.1000,0.452437,212.297,0.205248
254.0000,2.4502,211.834,0.198714
253.9000,1.26709,212.397,0.206653
253.8000,1.48269,212.796,0.212264
253.7000,1.15344,212.661,0.210368
253.6000,1.45322,212.651,0.210224
253.5000,-1.87596,212.851,0.213045
253.4000,1.31777,212.498,0.208072
253.3000,2.09864,212.151,0.203189
253.2000,0.397604,212.344,0.205902
253.1000,2.1857,211.615,0.195627
253.0000,0.656965,212.752,0.211643
252.9000,1.58046,212.332,0.205743
252.8000,1.45284,212.624,0.209842
252.7000,-0.438215,212.834,0.212806
252.6000,0.799886,212.791,0.2122
252.5000,1.77772,213.104,0.216594
252.4000,0.761818,212.381,0.206429
252.3000,0.134744,212.488,0.207929
252.2000,0.187897,213.055,0.21591
252.1000,0.428101,212.267,0.204817
252.0000,1.05441,212.803,0.21236
251.9000,0.812418,213.138,0.217072
251.8000,0.587469,213.521,0.222445
251.7000,-1.09852,213.437,0.221269
251.6000,-0.348269,213.428,0.221142
251.5000,1.21489,213.745,0.225589
251.4000,0.988408,213.217,0.218185
251.3000,-0.446353,213.013,0.215321
251.2000,1.46516,212.537,0.20863
251.1000,1.12332,213.326,0.219712
251.0000,1.20644,213.714,0.225145
250.9000,1.53144,213.207,0.218042
250.8000,0.654279,212.889,0.21357
250.7000,0.504667,212.542,0.208694
250.6000,0.533923,212.849,0.213013
250.5000,0.441092,213.048,0.215815
250.4000,-0.603447,212.954,0.214494
250.3000,0.597318,214.234,0.232423
250.2000,-0.11019,213.345,0.219982
250.1000,1.37155,213.802,0.226383
250.0000,0.0274696,213.564,0.223049
249.9000,0.10185,213.395,0.220681
249.8000,-1.43199,213.851,0.227065
249.7000,0.537658,214.265,0.232867
249.6000,-0.928271,213.275,0.218996
249.5000,1.81001,213.464,0.221651
249.4000,1.69386,213.545,0.222779
249.3000,0.520042,213.183,0.217708
249.2000,-0.894946,214.116,0.230775
249.1000,-0.170878,213.854,0.227113
249.0000,0.59038,214.282,0.233104
248.9000,-2.93816,214.086,0.230363
248.8000,-0.101695,214.121,0.230855
248.7000,-0.910307,214.061,0.230015
248.6000,-1.24896,214.274,0.232994
248.5000,0.152947,214.297,0.23331
248.4000,0.379315,214.186,0.231758
248.3000,0.181296,214.28,0.233073
248.2000,-2.729,213.421,0.221047
248.1000,-2.30302,214.585,0.237331
248.0000,-1.91034,214.192,0.231837
247.9000,-1.53965,214.305,0.233421
247.8000,0.460601,214.146,0.231203
247.7000,-2.0653,214.321,0.233643
247.6000,-0.534155,214.111,0.230712
247.5000,0.899534,213.772,0.22597
247.4000,-0.100445,214.371,0.23434
247.3000,1.34927,214.658,0.238359
247.2000,0.248105,214.528,0.23654
247.1000,-1.84611,214.64,0.238106
247.0000,-1.87124,214.263,0.232835
246.9000,-0.66377,215.058,0.243938
246.8000,0.567841,214.84,0.240889
246.7000,-0.589672,215.359,0.24812
246.6000,-2.11066,215.3,0.2473
246.5000,-1.67189,215.071,0.244112
246.4000,0.526601,214.452,0.23548
246.3000,-0.505794,214.513,0.236334
246.2000,-0.648296,214.707,0.239039
246.1000,-0.978952,215.972,0.256644
246.0000,-0.772486,215.211,0.246069
245.9000,-0.0798671,214.921,0.242027
245.8000,-1.50527,216.418,0.262839
245.7000,-1.72959,214.876,0.241395
245.6000,-1.42325,215.007,0.243227
245.5000,-0.989792,215.192,0.245801
245.4000,-0.990277,214.929,0.242138
245.3000,-1.13178,215.256,0.246685
245.2000,-1.33049,215.047,0.24378
245.1000,-2.85187,215.177,0.245596
245.0000,-0.298601,215.862,0.255117
244.9000,-1.07093,215.722,0.253181
244.8000,-2.21165,215.789,0.25411
244.7000,-0.921948,216.322,0.261504
244.6000,-0.390649,215.727,0.253243
244.5000,-0.759538,216.543,0.264567
244.4000,-1.73508,216.172,0.259429
244.3000,-2.21503,215.921,0.255936
244.2000,-1.74796,216.292,0.261095
244.1000,0.462141,215.938,0.256172
244.0000,-2.92012,216.403,0.262635
243.9000,-1.82921,215.274,0.246937
243.8000,-3.21207,215.794,0.254173
243.7000,-3.62685,215.958,0.256455
243.6000,-4.1022,216.233,0.260278
243.5000,-2.90101,215.588,0.251306
243.4000,-3.15209,216.168,0.259366
243.3000,-2.37432,216.153,0.259161
243.2000,-1.86009,216.873,0.269134
243.1000,-1.50178,216.586,0.265164
243.0000,-4.45568,218.193,0.287359
242.9000,-4.76513,216.278,0.260891
242.8000,-3.49149,216.963,0.270388
242.7000,-2.28955,217.216,0.273882
242.6000,-5.56115,216.735,0.267235
242.5000,-3.74054,217.71,0.280705
242.4000,-2.32586,216.99,0.270764
242.3000,-4.47284,217.007,0.270999
242.2000,-4.90888,217.52,0.278078
242.1000,-4.79985,217.8,0.281955
242.0000,-3.34057,216.846,0.268773
241.9000,-4.28275,217.535,0.278297
241.8000,-5.78492,217.645,0.279814
241.7000,-5.89538,218.662,0.293813
241.6000,-4.61398,217.665,0.280079
241.5000,-3.84918,217.559,0.278625
241.4000,-3.98,217.054,0.271642
241.3000,-4.93833,218.517,0.291819
241.2000,-7.60985,219.048,0.299121
241.1000,-4.52584,218.559,0.292396
241.0000,-7.46006,218.945,0.297705
240.9000,-4.42596,218.293,0.288747
240.8000,-4.70979,218.725,0.294686
240.7000,-4.71245,218.834,0.29618
240.6000,-5.45101,219.602,0.306719
240.5000,-6.95113,218.6,0.292972
240.4000,-8.66824,219.726,0.308411
240.3000,-6.7376,219.426,0.304313
240.2000,-6.11238,219.517,0.305555
240.1000,-10.1618,220.299,0.316253
240.0000,-9.48763,219.232,0.30164
239.9000,-6.03185,220.418,0.317878
239.8000,-7.24468,220.249,0.315572
239.7000,-8.01617,219.915,0.311001
239.6000,-7.95353,220.038,0.312691
239.5000,-7.67059,220.337,0.31678
239.4000,-7.02802,220.41,0.31777
239.3000,-8.09388,221.056,0.32658
239.2000,-7.98098,221.154,0.327923
239.1000,-8.62231,221.432,0.331702
239.0000,-8.62771,220.649,0.321034
238.9000,-8.67158,221.427,0.331641
238.8000,-6.99553,221.257,0.329328
238.7000,-8.49836,221.376,0.330947
238.6000,-8.30011,221.653,0.334707
238.5000,-11.1531,221.39,0.331132
238.4000,-10.1977,221.974,0.339064
238.3000,-10.3895,221.612,0.334153
238.2000,-10.9591,222.046,0.340049
238.1000,-10.7305,222.358,0.344276
238.0000,-11.4836,222.856,0.35103
237.9000,-14.3578,222.763,0.349772
237.8000,-12.3077,222.891,0.351505
237.7000,-13.3832,222.826,0.350615
237.6000,-10.9914,223.519,0.35999
237.5000,-9.77038,223.345,0.357633
237.4000,-14.7415,223.422,0.358674
237.3000,-14.8054,223.585,0.360877
237.2000,-12.6063,223.673,0.362069
237.1000,-15.1352,223.113,0.354509
237.0000,-12.8145,224.538,0.373717
236.9000,-15.5538,223.33,0.357434
236.8000,-15.2657,225.019,0.380188
236.7000,-15.6498,223.885,0.364927
236.6000,-14.3231,224.566,0.374097
236.5000,-15.8978,224.216,0.369386
236.4000,-15.8772,225.395,0.385235
236.3000,-17.0429,224.961,0.379412
236.2000,-17.372,225.621,0.388257
236.1000,-17.5113,225.854,0.391383
236.0000,-17.7214,225.693,0.389229
235.9000,-17.3172,225.876,0.391671
235.8000,-15.796,226.371,0.398293
235.7000,-17.8096,226.878,0.405053
235.6000,-20.0735,226.206,0.396082
235.5000,-17.6101,226.636,0.401833
235.4000,-16.5678,225.909,0.392111
235.3000,-18.5366,227.208,0.409463
235.2000,-20.6213,227.051,0.407364
235.1000,-19.5666,227.182,0.409116
235.0000,-19.2469,228.134,0.421773
234.9000,-18.3997,227.427,0.412375
234.8000,-22.3784,227.954,0.41938
234.7000,-21.1305,227.692,0.415902
234.6000,-17.9618,228.702,0.429301
234.5000,-24.0999,227.995,0.419922
234.4000,-23.9972,229.103,0.434611
234.3000,-19.9219,227.809,0.417453
234.2000,-21.9286,228.435,0.425772
234.1000,-21.3322,229.487,0.439689
234.0000,-25.4186,229.531,0.440273
233.9000,-24.5429,229.735,0.442965
233.8000,-22.4173,230.129,0.448166
233.7000,-24.5508,230.388,0.45157
233.6000,-25.378,229.958,0.44591
233.5000,-24.9453,230.875,0.45798
233.4000,-25.9157,229.804,0.443878
233.3000,-25.2569,230.238,0.4496
233.2000,-26.9564,230.602,0.454388
233.1000,-25.8381,231.131,0.461344
233.0000,-27.9608,231.233,0.462683
232.9000,-26.5632,232.125,0.474372
232.8000,-27.0241,232.315,0.476862
232.7000,-26.9909,232.619,0.480831
232.6000,-26.1011,232.425,0.478299
232.5000,-28.1746,232.791,0.48308
232.4000,-30.764,233.402,0.491045
232.3000,-29.1779,233.51,0.492461
232.2000,-29.8337,233.351,0.49038
232.1000,-30.3883,233.337,0.490203
232.0000,-30.9106,233.798,0.496207
231.9000,-29.8438,234.782,0.50898
231.8000,-30.3868,234.415,0.504217
231.7000,-34.1681,234.749,0.508554
231.6000,-34.0452,234.271,0.502349
231.5000,-31.7189,234.449,0.504659
231.4000,-30.1405,235.272,0.515335
231.3000,-35.2991,235.193,0.514308
231.2000,-35.2297,235.819,0.522396
231.1000,-35.2453,235.302,0.515716
231.0000,-33.8216,235.891,0.523333
230.9000,-35.5231,235.459,0.517753
230.8000,-38.3784,236.451,0.530554
230.7000,-35.0558,235.876,0.523142
230.6000,-36.9602,236.511,0.531328
230.5000,-36.4161,236.528,0.531547
230.4000,-36.6461,237.074,0.538577
230.3000,-36.7657,237.256,0.540922
230.2000,-36.0785,236.737,0.534247
230.1000,-38.7984,236.856,0.535778
230.0000,-39.8022,237.711,0.546757
229.9000,-38.3908,237.936,0.54965
229.8000,-36.0829,238.728,0.55979
229.7000,-36.827,237.911,0.54933
229.6000,-41.4256,238.467,0.556442
229.5000,-41.1167,238.358,0.55505
229.4000,-38.2899,238.469,0.556471
229.3000,-42.3341,238.911,0.562123
229.2000,-39.3838,239.243,0.566362
229.1000,-44.1916,239.858,0.574207
229.0000,-42.1987,240.014,0.576198
228.9000,-44.3532,239.348,0.567707
228.8000,-42.7717,239.996,0.575967
228.7000,-41.9623,240.692,0.584814
228.6000,-44.0127,240.364,0.580653
228.5000,-45.1296,241.376,0.593495
228.4000,-44.9969,241.258,0.592002
228.3000,-46.5258,241.124,0.590292
228.2000,-44.3236,241.748,0.598201
228.1000,-43.3922,242.112,0.602801
228.0000,-44.4284,242.774,0.611169
227.9000,-44.388,242.428,0.606794
227.8000,-47.2909,242.997,0.613969
227.7000,-45.3245,243.915,0.62553
227.6000,-47.5315,243.413,0.619219
227.5000,-46.9539,243.544,0.620858
227.4000,-46.5453,243.926,0.625658
227.3000,-49.0329,244.294,0.63028
227.2000,-51.5323,245.002,0.639154
227.1000,-50.6333,244.494,0.632795
227.0000,-49.0471,245.186,0.64145
226.9000,-50.4549,244.168,0.628702
226.8000,-50.6601,245.915,0.650566
226.7000,-49.5244,246.149,0.653477
226.6000,-55.41,245.42,0.644383
226.5000,-50.3249,245.697,0.647836
226.4000,-51.557,246.26,0.654861
226.3000,-48.8935,246.086,0.6527
226.2000,-51.55,246.694,0.660265
226.1000,-52.5127,246.477,0.657571
226.0000,-52.6449,247.35,0.66842
225.9000,-51.2888,246.952,0.663479
225.8000,-55.0769,247.639,0.672006
225.7000,-49.8542,246.995,0.664014
225.6000,-49.5937,248.053,0.677147
225.5000,-52.6489,247.792,0.673903
225.4000,-53.5273,248.814,0.686554
225.3000,-52.1724,248.992,0.688751
225.2000,-51.5664,249.531,0.695405
225.1000,-56.9548,249.138,0.690556
225.0000,-54.9793,248.944,0.688163
224.9000,-55.2649,249.733,0.697891
224.8000,-52.9937,250.613,0.70872
224.7000,-55.2525,250.11,0.702536
224.6000,-55.6157,250.436,0.706548
224.5000,-57.7941,251.463,0.719143
224.4000,-56.8382,250.597,0.708525
224.3000,-53.8617,251.04,0.713963
224.2000,-58.2759,251.591,0.720711
224.1000,-55.852,251.466,0.719185
224.0000,-57.1905,251.833,0.723679
223.9000,-56.6474,251.596,0.720781
223.8000,-57.8781,252.701,0.734282
223.7000,-56.1075,251.973,0.725383
223.6000,-55.6527,252.233,0.728569
223.5000,-57.7534,253.007,0.738012
223.4000,-56.116,253.382,0.742579
223.3000,-56.4676,254.11,0.751423
223.2000,-55.1846,254.361,0.754476
223.1000,-57.7723,253.174,0.740041
223.0000,-56.8,254.593,0.757293
222.9000,-58.1922,254.184,0.752331
222.8000,-56.2124,255.022,0.762482
222.7000,-58.4399,255.16,0.764155
222.6000,-60.8904,255.393,0.766979
222.5000,-58.24,255.707,0.770772
222.4000,-54.1553,255.71,0.770799
222.3000,-57.4934,256.277,0.77765
222.2000,-56.7762,256.863,0.784707
222.1000,-57.201,256.104,0.775559
222.0000,-59.1603,257.11,0.787678
221.9000,-56.0926,257.192,0.788659
221.8000,-60.0918,257.193,0.788673
221.7000,-59.9983,257.952,0.797788
221.6000,-58.8063,257.846,0.796524
221.5000,-56.8943,258.314,0.802134
221.4000,-58.5339,257.627,0.793886
221.3000,-54.0714,258.406,0.803233
221.2000,-59.1848,257.988,0.798223
221.1000,-57.1494,259.296,0.813869
221.0000,-56.6025,259.766,0.81948
220.9000,-57.6045,260.621,0.829666
220.8000,-54.2976,261.417,0.839112
220.7000,-58.6748,260.584,0.829221
220.6000,-59.3886,261.253,0.837163
220.5000,-58.4164,261.038,0.834621
220.4000,-57.8648,261.62,0.841517
220.3000,-59.5595,261.719,0.842699
220.2000,-56.656,261.454,0.839556
220.1000,-56.5588,260.884,0.83279
220.0000,-57.0915,262.577,0.852848
219.9000,-58.3678,262.064,0.846778
219.8000,-58.2929,262.891,0.856555
219.7000,-61.7193,262.672,0.853973
219.6000,-58.9285,263.473,0.863424
219.5000,-56.704,263.281,0.861154
219.4000,-55.7072,263.948,0.869015
219.3000,-53.5411,264.64,0.877152
219.2000,-56.6544,263.831,0.867641
219.1000,-57.1307,264.293,0.873065
219.0000,-58.6975,263.899,0.868441
218.9000,-57.6308,264.968,0.880994
218.8000,-56.1013,265.353,0.88551
218.7000,-59.5837,265.756,0.890232
218.6000,-55.653,266.002,0.893108
218.5000,-56.6068,266.358,0.897265
218.4000,-53.9778,266.559,0.899606
218.3000,-59.2919,266.477,0.898654
218.2000,-55.8848,266.79,0.902303
218.1000,-54.8054,267.255,0.90773
218.0000,-57.8162,266.841,0.902897
217.9000,-58.8589,266.637,0.900518
217.8000,-55.4106,267.253,0.907703
217.7000,-54.4898,267.27,0.907901
217.6000,-59.7149,267.112,0.906053
217.5000,-54.38,270.183,0.941671
217.4000,-54.7252,269.627,0.935245
217.3000,-54.0565,268.671,0.924174
217.2000,-56.5553,269.165,0.929897
217.1000,-57.4493,270.407,0.944246
217.0000,-58.0551,270.531,0.945683
216.9000,-58.6945,271.089,0.952104
216.8000,-58.7255,271.695,0.959074
216.7000,-56.6996,271.327,0.954842
216.6000,-56.1313,272.153,0.964329
216.5000,-58.4892,273.129,0.975516
216.4000,-56.9968,273.559,0.980424
216.3000,-52.5401,272.65,0.97003
216.2000,-59.1278,273.275,0.977187
216.1000,-61.3792,273.294,0.977394
216.0000,-57.5427,272.872,0.972573
215.9000,-57.7669,273.442,0.979091
215.8000,-54.7396,273.951,0.984899
215.7000,-56.3797,274.228,0.988065
215.6000,-53.3773,273.39,0.978495
215.5000,-56.7218,275.491,1.00243
215.4000,-58.5532,275.041,0.997314
215.3000,-57.5564,276.208,1.01056
215.2000,-53.9202,275.827,1.00624
215.1000,-54.62,276.867,1.01803
215.0000,-55.7275,276.663,1.01572
214.9000,-55.5918,276.114,1.0095
214.8000,-56.919,277.129,1.02098
214.7000,-59.912,277.851,1.02913
214.6000,-55.2383,277.692,1.02734
214.5000,-53.5676,278.685,1.03852
214.4000,-57.5076,278.558,1.03709
214.3000,-56.432,278.882,1.04074
214.2000,-56.8378,279.281,1.04522
214.1000,-61.2219,279.55,1.04825
214.0000,-55.7104,279.123,1.04345
213.9000,-56.5216,280.963,1.06406
213.8000,-57.7409,280.572,1.05969
213.7000,-54.8981,281.137,1.066
213.6000,-57.8104,281.259,1.06737
213.5000,-59.474,282.333,1.07934
213.4000,-58.853,281.751,1.07285
213.3000,-56.4948,282.712,1.08354
213.2000,-57.0439,282.349,1.07951
213.1000,-61.9913,284.666,1.1052
213.0000,-55.9534,283.095,1.0878
212.9000,-55.5394,283.39,1.09108
212.8000,-58.9339,284.707,1.10565
212.7000,-61.5454,284.028,1.09815
212.6000,-58.0079,284.904,1.10783
212.5000,-60.6642,284.604,1.10452
212.4000,-55.8722,284.831,1.10702
212.3000,-57.2266,286.126,1.1213
212.2000,-53.9134,286.273,1.12292
212.1000,-57.5313,287.23,1.13343
212.0000,-57.6086,286.373,1.12401
211.9000,-58.171,288.714,1.14967
211.8000,-59.9791,288.472,1.14703
211.7000,-58.8341,288.359,1.14579
211.6000,-56.5374,289.253,1.15555
211.5000,-59.0578,289.813,1.16165
211.4000,-51.5908,290.177,1.16562
211.3000,-57.6819,290.35,1.16749
211.2000,-58.7309,290.768,1.17203
211.1000,-59.4288,291.425,1.17916
211.0000,-59.0952,292.042,1.18585
210.9000,-62.5529,293.026,1.19647
210.8000,-59.7366,292.901,1.19513
210.7000,-56.7888,293.853,1.20538
210.6000,-58.54,293.806,1.20487
210.5000,-61.4017,295.189,1.21973
210.4000,-57.8464,294.65,1.21395
210.3000,-63.9613,296.391,1.2326
210.2000,-60.7697,296.144,1.22996
210.1000,-61.5677,297.142,1.24062
210.0000,-63.3,297.779,1.2474
209.9000,-53.2652,298.18,1.25167
209.8000,-63.6436,299.688,1.26767
209.7000,-61.7183,298.989,1.26026
209.6000,-60.5923,300.393,1.27512
209.5000,-66.1069,300.121,1.27225
209.4000,-61.3778,300.988,1.2814
209.3000,-57.9723,302.228,1.29446
209.2000,-63.5233,302.449,1.29678
209.1000,-58.9636,303.846,1.31143
209.0000,-64.7751,303.553,1.30837
208.9000,-61.0443,304.286,1.31604
208.8000,-64.1978,304.699,1.32035
208.7000,-61.7255,305.798,1.33181
208.6000,-53.4822,305.983,1.33373
208.5000,-63.7863,306.181,1.33579
208.4000,-66.957,307.484,1.34932
208.3000,-58.812,307.459,1.34906
208.2000,-61.5095,308.68,1.3617
208.1000,-62.5806,309.399,1.36911
208.0000,-63.5928,310.474,1.38018
207.9000,-59.8829,311.642,1.39217
207.8000,-58.5154,312.651,1.40249
207.7000,-58.2091,312.671,1.4027
207.6000,-54.3962,314.319,1.4195
207.5000,-59.4811,314.959,1.42601
207.4000,-60.2032,315.134,1.42779
207.3000,-58.272,316.113,1.43772
207.2000,-52.4222,316.075,1.43733
207.1000,-54.2036,317.189,1.44859
207.0000,-49.6309,317.936,1.45613
206.9000,-58.2713,319.09,1.46774
206.8000,-57.4159,319.532,1.47218
206.7000,-57.3466,320.645,1.48333
206.6000,-53.4618,321.966,1.49653
206.5000,-61.4654,322.292,1.49978
206.4000,-57.005,323.763,1.5144
206.3000,-54.2847,324.721,1.52391
206.2000,-49.0687,325.357,1.5302
206.1000,-55.0171,326.834,1.54477
206.0000,-44.8647,327.51,1.55142
205.9000,-46.1748,328.462,1.56076
205.8000,-50.9868,328.958,1.56563
205.7000,-48.0611,330.66,1.58226
205.6000,-48.1195,331.265,1.58816
205.5000,-55.242,332.848,1.60354
205.4000,-41.4399,332.969,1.60472
205.3000,-40.7983,333.832,1.61308
205.2000,-36.8401,335.805,1.63212
205.1000,-42.5245,337.566,1.64903
205.0000,-35.5678,338.541,1.65837
204.9000,-35.0714,338.401,1.65703
204.8000,-39.4597,339.996,1.67226
204.7000,-36.1407,341.587,1.68739
204.6000,-36.5676,342.325,1.69438
204.5000,-35.4056,343.915,1.70943
204.4000,-43.6911,344.685,1.71668
204.3000,-27.7344,345.834,1.72749
204.2000,-33.6244,347.146,1.73979
204.1000,-32.0213,348.606,1.75345
204.0000,-37.0379,350.044,1.76684
203.9000,-27.962,352.322,1.78796
203.8000,-30.9949,353.48,1.79865
203.7000,-36.6893,354.327,1.80646
203.6000,-21.4358,356.145,1.82315
203.5000,-18.7388,356.381,1.82532
203.4000,-34.6879,358.55,1.84514
203.3000,-16.8207,359.438,1.85323
203.2000,-21.9667,361.151,1.86877
203.1000,-21.9203,362.118,1.87752
203.0000,-19.0277,363.142,1.88677
202.9000,-25.9226,365.319,1.90635
202.8000,-19.1774,366.252,1.9147
202.7000,-12.8176,367.257,1.92369
202.6000,-11.1961,368.759,1.93709
202.5000,-8.73754,370.838,1.95555
202.4000,-15.9501,372.422,1.96956
202.3000,-20.0501,374.066,1.98405
202.2000,-6.12246,375.118,1.99328
202.1000,-7.438,377.308,2.01246
202.0000,-6.80938,380.098,2.03674
201.9000,1.77093,380.424,2.03957
201.8000,-1.92966,382.978,2.06166
201.7000,-0.204122,384.875,2.07798
201.6000,-5.0548,386.395,2.09101
201.5000,7.05552,387.527,2.10069
201.4000,1.27091,389.061,2.11377
201.3000,2.51954,391.555,2.13493
201.2000,-0.443942,392.848,2.14586
201.1000,11.1482,395.41,2.16743
201.0000,7.80649,397.038,2.18107
200.9000,2.69354,398.765,2.19549
200.8000,7.6944,400.12,2.20677
200.7000,9.69787,401.518,2.21837
200.6000,11.4692,403.772,2.23701
200.5000,8.21201,406.488,2.25935
200.4000,18.241,406.831,2.26216
200.3000,27.5187,410.047,2.28843
200.2000,10.4662,411.952,2.30391
200.1000,26.6952,414.102,2.32131
200.0000,18.16,415.71,2.33427
199.9000,21.1725,417.983,2.35253
199.8000,25.3245,420.425,2.37204
199.7000,22.3062,421.732,2.38245
199.6000,22.5727,424.092,2.40117
199.5000,15.0741,426.235,2.4181
199.4000,24.3744,426.721,2.42193
199.3000,33.7982,429.646,2.44488
199.2000,24.7489,430.487,2.45147
199.1000,26.1149,432.912,2.47037
199.0000,32.3527,434.837,2.48532
198.9000,31.3252,437.122,2.50298
198.8000,44.492,440.121,2.52606
198.7000,28.9554,442.913,2.54741
198.6000,43.9816,444.833,2.56204
198.5000,32.0569,446.976,2.5783
198.4000,33.1738,449.976,2.60095
198.3000,27.9389,451.789,2.61458
198.2000,25.9888,453.594,2.6281
198.1000,43.5585,456.574,2.65032
198.0000,39.9767,457.822,2.65958
197.9000,34.224,460.744,2.68121
197.8000,30.1828,462.873,2.69689
197.7000,27.2677,465.219,2.7141
197.6000,43.2911,466.851,2.72603
197.5000,41.295,469.479,2.74516
197.4000,32.8306,471.843,2.7623
197.3000,40.0099,473.781,2.77629
197.2000,39.9282,476.664,2.79702
197.1000,42.3808,478.698,2.81158
197.0000,23.4045,481.606,2.8323
196.9000,40.8187,483.48,2.8456
196.8000,37.8309,486.587,2.86756
196.7000,36.0227,487.877,2.87664
196.6000,40.1895,490.921,2.89799
196.5000,51.299,493.432,2.91551
196.4000,34.5421,495.966,2.93313
196.3000,30.7369,498.341,2.94956
196.2000,39.2389,501.199,2.96925
196.1000,27.203,503.468,2.98482
196.0000,38.381,505.907,3.00148
195.9000,40.978,508.634,3.02004
195.8000,45.0181,510.917,3.0355
195.7000,29.7577,513.414,3.05236
195.6000,31.3141,515.534,3.06661
195.5000,40.4262,517.251,3.07811
195.4000,33.3866,519.839,3.09539
195.3000,30.6262,521.422,3.10593
195.2000,37.2286,524.099,3.12368
195.1000,30.2532,525.632,3.13382
195.0000,39.0982,527.841,3.14837
194.9000,38.5961,529.148,3.15696
194.8000,35.062,530.765,3.16756
194.7000,42.8575,532.265,3.17737
194.6000,34.2651,534.876,3.19439
194.5000,32.0292,537.885,3.21392
194.4000,38.3748,539.118,3.22189
194.3000,37.1493,540.048,3.2279
194.2000,38.1661,543.708,3.25144
194.1000,40.9374,546.161,3.26715
194.0000,35.1882,547.61,3.2764
193.9000,39.2896,550.611,3.29548
193.8000,33.9163,552.858,3.30972
193.7000,26.3689,555.47,3.32621
193.6000,29.2661,557.618,3.33972
193.5000,33.4913,559.106,3.34905
193.4000,33.3635,560.97,3.36071
193.3000,21.6728,562.531,3.37045
193.2000,22.1866,564.007,3.37964
193.1000,26.8932,565.555,3.38925
193.0000,41.041,567.687,3.40246
192.9000,39.0774,569.249,3.41211
192.8000,28.797,571.914,3.42852
192.7000,25.6041,573.154,3.43613
192.6000,33.1856,576.047,3.45384
192.5000,39.2803,578.006,3.46579
192.4000,35.4231,580.705,3.48219
192.3000,45.7194,582.245,3.49152
192.2000,25.8486,584.784,3.50686
192.1000,35.9635,585.447,3.51086
192.0000,51.6048,587.852,3.52532
191.9000,30.4954,589.929,3.53777
191.8000,20.5041,591.057,3.54452
191.7000,29.4864,592.297,3.55192
191.6000,26.9653,595.041,3.56825
191.5000,20.5209,597.3,3.58166
191.4000,21.9629,598.945,3.59139
191.3000,26.4024,601.814,3.60831
191.2000,23.7473,603.961,3.62092
191.1000,21.0371,606.756,3.63729
191.0000,35.0864,608.835,3.64942
190.9000,19.1001,611.422,3.66447
190.8000,32.5808,614.138,3.68021
190.7000,23.6053,616.909,3.6962
190.6000,24.6419,620.059,3.71431
190.5000,25.4892,621.28,3.72131
190.4000,6.1265,623.63,3.73475
190.3000,24.0432,625.409,3.7449
190.2000,2.97468,628.116,3.76028
190.1000,20.7602,629.927,3.77055
190.0000,30.6603,632.451,3.78481

##### Extended Information
[Comments]
Sample name,AZNTEA_ADDITIVE&PROTEIN_928
Comment,ADDITIVE&PROTIEN
User,ALEXZHANG
Division
Company,Saint Mary's College

[Detailed Information]
Creation date,9/28/2022 3:55 PM

Data array type,Linear data array * 3
Horizontal axis,Wavelength [nm]
Vertical axis(1),CD [mdeg]
Vertical axis(2),HT [V]
Vertical axis(3),Abs
Start,320 nm
End,190 nm
Data interval,0.1 nm
Data points,1301    

[Measurement Information]
Instrument name,J-1500
Model name,J-1500
Serial No.,B051061638

Detector,PM-539
Detector S/N,B051061638
  Lock-in amp.,X mode
  HT volt,Auto

Accessory,PTC-517
Accessory S/N,B026561646
  Temperature,23.21 C
  Control sensor,Holder
  Monitor sensor,Holder

Measurement date,9/28/2022 3:55 PM

CD Overload detect,971
Photometric mode,CD, HT, Abs
Measure range,320 - 190 nm
Data pitch,0.1 nm
CD scale,20 mdeg/0.05 dOD
FL scale,20 mdeg/0.05 dOD
D.I.T.,8 msec
Bandwidth,2.00 nm
Start mode,Immediately
Scanning mode,Continuous
Scanning speed,200 nm/min
Baseline correction,None
Shutter control,Auto
No. of cycle,1/1
N2 Flowmeter,Manual

Solvent,NaPO4 buffer

