TITLE,AZNTEA_BUFFER&PROTEIN_928
DATA TYPE,
ORIGIN,JASCO
OWNER,
DATE,22/09/28
TIME,15:48:19
SPECTROMETER/DATA SYSTEM,
LOCALE,1033
RESOLUTION,
DELTAX,-0.1
XUNITS,NANOMETERS
YUNITS,CD [mdeg]
Y2UNITS,HT [V]
Y3UNITS,ABSORBANCE
FIRSTX,  320.0000
LASTX,  190.0000
NPOINTS,    1301
FIRSTY,     0.79275
MAXY,    52.58067
MINY,   -80.31890
XYDATA
320.0000,0.792746,208.49,0.15122
319.9000,1.2482,209.858,0.170721
319.8000,1.29777,208.317,0.14874
319.7000,1.18638,208.401,0.14994
319.6000,1.67218,208.986,0.158309
319.5000,0.956194,209.06,0.159359
319.4000,1.54577,209.164,0.160846
319.3000,2.18332,208.639,0.153341
319.2000,2.09398,208.114,0.145837
319.1000,0.578463,207.248,0.133421
319.0000,2.12447,208.678,0.153908
318.9000,2.29835,208.024,0.144555
318.8000,3.51014,208.575,0.152434
318.7000,0.936632,207.371,0.135178
318.6000,1.84164,207.616,0.138708
318.5000,1.50678,208.094,0.145545
318.4000,2.02251,208.532,0.151819
318.3000,0.886777,208.199,0.147054
318.2000,0.850254,207.788,0.141162
318.1000,1.14182,209.273,0.162397
318.0000,0.968316,207.849,0.142039
317.9000,0.575422,209.554,0.1664
317.8000,0.954164,207.415,0.135813
317.7000,1.77639,208.442,0.150539
317.6000,0.802225,208.602,0.152823
317.5000,2.40975,206.762,0.12643
317.4000,2.06843,209.099,0.159909
317.3000,2.69928,208.167,0.1466
317.2000,0.942067,208.288,0.148335
317.1000,2.58873,208.521,0.151657
317.0000,2.00409,209.993,0.172638
316.9000,1.45726,208.161,0.146519
316.8000,2.30559,209.028,0.158907
316.7000,1.08085,208.618,0.15305
316.6000,0.918792,209.075,0.159569
316.5000,1.65791,208.375,0.149567
316.4000,0.869667,207.452,0.13635
316.3000,1.35432,208.848,0.156335
316.2000,0.583485,208.259,0.147913
316.1000,2.69899,208.069,0.145188
316.0000,2.09123,207.905,0.142851
315.9000,0.999867,208.516,0.151592
315.8000,2.51559,207.362,0.135048
315.7000,0.273852,209.122,0.160248
315.6000,0.915857,208.04,0.144783
315.5000,-0.0432493,209.402,0.164237
315.4000,0.613108,208.985,0.158292
315.3000,1.38218,207.141,0.131874
315.2000,-0.179565,207.024,0.130196
315.1000,1.48372,209.054,0.159279
315.0000,1.2465,208.155,0.146421
314.9000,0.91037,208.392,0.14981
314.8000,0.958987,208.765,0.155154
314.7000,1.86293,208.419,0.150199
314.6000,1.85094,208.432,0.150393
314.5000,1.41715,209.701,0.168497
314.4000,-0.289902,207.222,0.133046
314.3000,2.33041,208.157,0.146454
314.2000,0.865615,207.877,0.142445
314.1000,0.991482,208.144,0.146275
314.0000,2.56778,207.129,0.131711
313.9000,0.740131,208.114,0.145837
313.8000,1.7282,208.202,0.147102
313.7000,2.2116,208.763,0.155122
313.6000,3.33947,207.715,0.140122
313.5000,0.222988,208.508,0.151479
313.4000,1.63204,209.21,0.161492
313.3000,1.05259,207.56,0.137895
313.2000,0.160888,207.493,0.136935
313.1000,2.42103,206.762,0.12643
313.0000,1.78589,207.498,0.137
312.9000,0.216606,207.054,0.130636
312.8000,0.884539,207.895,0.142705
312.7000,1.21793,208.188,0.146892
312.6000,1.42191,208.334,0.148983
312.5000,2.12155,207.843,0.141958
312.4000,0.0394156,206.783,0.126723
312.3000,1.7198,207.437,0.136138
312.2000,1.84009,207.321,0.134462
312.1000,1.31267,207.704,0.139959
312.0000,-0.873099,207.911,0.142932
311.9000,2.2233,206.594,0.124015
311.8000,0.64067,209.458,0.165028
311.7000,1.97635,207.312,0.134332
311.6000,1.65466,206.87,0.127979
311.5000,2.47601,208.045,0.144847
311.4000,2.76657,208.447,0.150604
311.3000,0.499051,207.959,0.143614
311.2000,2.4981,208.023,0.144539
311.1000,-0.0114741,208.099,0.145626
311.0000,2.25952,207.636,0.138984
310.9000,1.45891,208.061,0.145075
310.8000,1.97992,207.41,0.135748
310.7000,1.21341,208.132,0.146097
310.6000,0.513861,207.677,0.139569
310.5000,1.28445,207.386,0.135406
310.4000,0.0631387,207.647,0.139147
310.3000,1.7536,208.285,0.148286
310.2000,1.28683,207.747,0.140577
310.1000,1.21896,207.724,0.140252
310.0000,0.766934,208.523,0.15169
309.9000,-1.326,208.177,0.146746
309.8000,1.79132,208.081,0.145367
309.7000,1.02535,207.75,0.140625
309.6000,1.21361,207.227,0.133111
309.5000,2.90038,208.216,0.147297
309.4000,0.0500887,206.982,0.129593
309.3000,-0.764739,206.88,0.128126
309.2000,1.28905,207.69,0.139764
309.1000,1.7403,207.713,0.140089
309.0000,-0.21559,207.832,0.141795
308.9000,1.69648,207.619,0.13874
308.8000,2.05269,207.544,0.137667
308.7000,0.98011,207.868,0.142315
308.6000,1.96647,207.5,0.137033
308.5000,0.831883,208.002,0.144231
308.4000,2.32517,207.73,0.140333
308.3000,1.88322,206.702,0.125565
308.2000,1.51124,207.416,0.135829
308.1000,2.15837,207.7,0.139911
308.0000,1.18085,208.019,0.144474
307.9000,0.132499,208.358,0.149324
307.8000,0.370564,208.396,0.149875
307.7000,1.21606,207.763,0.140804
307.6000,0.672444,208.004,0.144263
307.5000,1.88526,207.689,0.139748
307.4000,0.915294,207.632,0.138935
307.3000,1.76125,207.224,0.133079
307.2000,2.53768,208.144,0.146275
307.1000,1.07871,208.28,0.148221
307.0000,2.29114,207.784,0.141113
306.9000,1.27786,209.146,0.160588
306.8000,0.916942,206.674,0.125157
306.7000,1.91514,207.443,0.13622
306.6000,1.46193,208.345,0.149145
306.5000,-0.195732,208.27,0.148075
306.4000,1.05258,208.086,0.145432
306.3000,0.116382,207.367,0.13513
306.2000,0.471834,205.84,0.113128
306.1000,0.24131,209.027,0.158891
306.0000,3.00035,207.747,0.140577
305.9000,1.3489,207.714,0.140105
305.8000,2.89559,207.98,0.143922
305.7000,0.343266,205.884,0.113766
305.6000,1.55496,208.415,0.15015
305.5000,0.91283,207.342,0.134771
305.4000,1.95969,208.871,0.156659
305.3000,1.04754,207.488,0.13687
305.2000,1.86868,207.525,0.137391
305.1000,1.80367,208.12,0.145918
305.0000,-0.207598,207.81,0.141486
304.9000,-0.286159,208.397,0.149891
304.8000,1.97504,209.759,0.169319
304.7000,2.14106,207.786,0.141145
304.6000,-0.247172,208.118,0.145902
304.5000,2.76836,207.896,0.142721
304.4000,1.91863,206.64,0.124667
304.3000,0.880078,209.245,0.161993
304.2000,2.88505,208.147,0.146308
304.1000,1.75827,208.304,0.148562
304.0000,2.46472,207.788,0.141162
303.9000,1.18778,207.85,0.142055
303.8000,-0.0486729,207.253,0.133486
303.7000,0.699084,210.184,0.175359
303.6000,2.17237,206.546,0.123313
303.5000,2.17585,207.324,0.134511
303.4000,1.68203,207.703,0.139943
303.3000,0.729224,209.638,0.167594
303.2000,0.793306,206.275,0.119409
303.1000,0.940562,206.793,0.12687
303.0000,1.63955,207.466,0.136545
302.9000,0.134264,207.784,0.141113
302.8000,1.23119,207.924,0.14311
302.7000,1.09409,208.243,0.147686
302.6000,2.97668,207.856,0.142136
302.5000,0.806536,207.707,0.140008
302.4000,0.69834,207.721,0.140203
302.3000,2.55969,207.449,0.136301
302.2000,0.408869,209.452,0.164948
302.1000,1.24718,206.708,0.125646
302.0000,1.57758,208.125,0.146
301.9000,0.867981,207.618,0.138724
301.8000,3.3016,207.535,0.137537
301.7000,2.52194,208.644,0.153422
301.6000,-0.700011,207.073,0.130896
301.5000,1.47389,205.396,0.106704
301.4000,0.583646,207.529,0.137456
301.3000,1.15315,206.219,0.118608
301.2000,2.2535,207.605,0.138545
301.1000,0.919336,207.525,0.137391
301.0000,1.07378,207.716,0.140138
300.9000,-0.821368,207.628,0.13887
300.8000,2.06087,207.803,0.141389
300.7000,0.0779024,209.273,0.162397
300.6000,0.251016,208.164,0.146551
300.5000,3.12246,206.504,0.122709
300.4000,1.18077,206.593,0.123998
300.3000,1.4459,206.565,0.12359
300.2000,1.69861,207.655,0.13926
300.1000,2.29145,207.36,0.135032
300.0000,1.17148,207.818,0.1416
299.9000,2.27649,207.665,0.139407
299.8000,1.56406,207.434,0.13609
299.7000,0.695586,207.459,0.136447
299.6000,0.685354,207.039,0.130408
299.5000,0.352133,207.435,0.136106
299.4000,1.59592,207.465,0.136529
299.3000,2.21475,208.053,0.144961
299.2000,0.608892,206.29,0.119621
299.1000,2.11755,207.397,0.135553
299.0000,1.90683,206.469,0.122202
298.9000,2.46947,207.213,0.132916
298.8000,2.32745,207.933,0.14324
298.7000,0.781786,207.25,0.133453
298.6000,1.91902,206.618,0.124358
298.5000,-0.179048,208.133,0.146113
298.4000,0.525607,207.42,0.135894
298.3000,1.69959,207.355,0.134951
298.2000,1.96204,207.707,0.140008
298.1000,0.852771,207.249,0.133437
298.0000,2.78002,207.263,0.133632
297.9000,0.128085,207.085,0.131075
297.8000,2.11762,207.564,0.13796
297.7000,1.00063,206.866,0.12793
297.6000,0.66273,207.61,0.13861
297.5000,1.55857,207.519,0.137309
297.4000,1.35667,206.754,0.126316
297.3000,0.895222,207.51,0.137179
297.2000,0.691871,208.148,0.146324
297.1000,2.37283,207.551,0.137765
297.0000,2.18898,207.126,0.131662
296.9000,2.1027,207.756,0.140707
296.8000,3.13668,206.814,0.12718
296.7000,0.962332,207.466,0.136545
296.6000,1.79489,207.258,0.133567
296.5000,-0.567011,208.172,0.146665
296.4000,1.11579,207.589,0.138318
296.3000,0.947436,207.217,0.132965
296.2000,1.07921,207.19,0.13259
296.1000,1.01198,207.112,0.131466
296.0000,0.766245,208.831,0.156093
295.9000,1.89166,207.246,0.133388
295.8000,0.787085,207.452,0.13635
295.7000,2.13545,206.627,0.124488
295.6000,1.51334,207.945,0.143419
295.5000,1.08924,205.725,0.111474
295.4000,1.15139,206.592,0.123982
295.3000,-1.47565,206.975,0.129495
295.2000,0.531018,207.468,0.136578
295.1000,1.36381,207.435,0.136106
295.0000,1.65991,208.029,0.14462
294.9000,0.565925,207.484,0.136805
294.8000,1.73865,207.173,0.132346
294.7000,0.895317,207.723,0.140236
294.6000,1.03649,207.396,0.135536
294.5000,1.67446,207.19,0.13259
294.4000,2.47026,207.449,0.136301
294.3000,1.53384,206.84,0.127555
294.2000,0.851964,207.61,0.13861
294.1000,2.11201,206.991,0.129723
294.0000,1.26974,207.289,0.134007
293.9000,2.83114,208.627,0.153179
293.8000,0.991896,207.64,0.139049
293.7000,1.85553,206.532,0.123117
293.6000,0.0108031,206.732,0.125989
293.5000,0.933033,208.073,0.145253
293.4000,0.924477,207.3,0.134169
293.3000,0.477304,207.5,0.137033
293.2000,2.98857,208.007,0.144312
293.1000,2.57226,206.311,0.119932
293.0000,0.385257,207.371,0.135178
292.9000,1.01059,207.901,0.142786
292.8000,0.0143101,207.069,0.130847
292.7000,2.21219,207.639,0.139033
292.6000,1.63096,206.165,0.117823
292.5000,1.67539,207.107,0.131385
292.4000,1.35869,207.507,0.13713
292.3000,0.957394,207.585,0.138252
292.2000,1.18313,207.083,0.131043
292.1000,2.25571,207.451,0.136334
292.0000,0.14992,206.788,0.126805
291.9000,1.41931,207.007,0.129951
291.8000,0.554542,206.962,0.129299
291.7000,2.72636,207.425,0.135959
291.6000,2.59643,207.02,0.130147
291.5000,0.893612,206.934,0.128908
291.4000,1.88242,207.052,0.130603
291.3000,-0.16161,205.991,0.115304
291.2000,0.697498,206.61,0.124243
291.1000,0.0253092,207.38,0.135309
291.0000,0.261333,207.112,0.131466
290.9000,0.301308,206.977,0.129527
290.8000,1.26055,206.738,0.126087
290.7000,0.879199,207.176,0.132378
290.6000,1.40507,206.728,0.12594
290.5000,2.5795,206.699,0.125516
290.4000,1.06695,206.76,0.126397
290.3000,0.624137,206.602,0.124129
290.2000,1.79918,207.275,0.133811
290.1000,2.30913,207.58,0.138187
290.0000,2.9611,207.093,0.131189
289.9000,1.53766,207.857,0.142152
289.8000,1.27435,207.85,0.142055
289.7000,0.99412,208.147,0.146308
289.6000,1.38768,207.893,0.142672
289.5000,1.63877,208.835,0.156141
289.4000,0.668436,208.115,0.145853
289.3000,0.115133,207.964,0.143695
289.2000,0.599783,207.385,0.13539
289.1000,0.759405,207.503,0.137082
289.0000,2.17065,207.65,0.139195
288.9000,1.24745,207.211,0.132883
288.8000,2.01903,207.192,0.132606
288.7000,2.48565,207.331,0.134609
288.6000,-0.268512,207.92,0.143062
288.5000,0.573218,207.194,0.132639
288.4000,1.89734,207.613,0.138659
288.3000,1.98851,207.874,0.142396
288.2000,0.759963,207.939,0.143338
288.1000,0.0305725,208.47,0.150928
288.0000,2.42976,207.596,0.138415
287.9000,1.8344,207.033,0.130326
287.8000,1.55979,207.982,0.143955
287.7000,2.20707,207.869,0.142331
287.6000,1.0791,207.513,0.137228
287.5000,2.40799,207.93,0.143208
287.4000,0.0634726,207.884,0.142542
287.3000,1.57884,208.302,0.148529
287.2000,2.77545,207.51,0.137179
287.1000,0.341225,207.396,0.135536
287.0000,2.29484,208.252,0.147816
286.9000,0.596192,208.037,0.144734
286.8000,1.49804,208.182,0.146811
286.7000,1.62637,207.784,0.141113
286.6000,1.15381,207.701,0.139927
286.5000,1.2845,207.68,0.139618
286.4000,1.19505,207.869,0.142331
286.3000,1.80706,207.578,0.138155
286.2000,1.26332,207.639,0.139033
286.1000,-0.804078,207.408,0.135715
286.0000,1.80853,208.465,0.150863
285.9000,2.09953,207.939,0.143338
285.8000,0.844895,208.471,0.150944
285.7000,-0.771393,208.225,0.147427
285.6000,1.68562,207.911,0.142932
285.5000,0.815134,207.447,0.136268
285.4000,-0.11327,207.799,0.141324
285.3000,0.398897,208.113,0.145821
285.2000,-0.0577817,207.837,0.141876
285.1000,1.3195,208.539,0.151916
285.0000,1.054,207.674,0.139537
284.9000,1.05168,208.409,0.150053
284.8000,-0.403839,207.672,0.139504
284.7000,1.30411,207.116,0.131515
284.6000,1.99638,207.931,0.143224
284.5000,0.923421,208.339,0.149064
284.4000,0.01191,208.041,0.144799
284.3000,0.537235,208.092,0.145529
284.2000,-0.766616,208.151,0.146372
284.1000,0.954406,208.074,0.145269
284.0000,2.01883,207.78,0.141048
283.9000,2.75384,207.365,0.135097
283.8000,1.00888,208.302,0.148529
283.7000,0.128171,208.088,0.145464
283.6000,1.34889,207.553,0.137797
283.5000,-0.339617,208.207,0.147167
283.4000,0.261655,207.587,0.138285
283.3000,0.0251279,208.048,0.144896
283.2000,0.871956,208.337,0.149032
283.1000,1.63396,207.552,0.137781
283.0000,0.699906,208.395,0.149859
282.9000,0.291428,208.224,0.147411
282.8000,0.836193,208.058,0.145042
282.7000,1.54987,208.335,0.149
282.6000,0.951869,207.553,0.137797
282.5000,0.619305,208.488,0.151187
282.4000,3.14809,207.984,0.143971
282.3000,1.0152,207.703,0.139943
282.2000,0.941,208.015,0.144425
282.1000,-0.51697,208.25,0.147784
282.0000,1.11701,207.824,0.141681
281.9000,0.337466,208.274,0.148124
281.8000,-0.118682,208.554,0.152127
281.7000,1.229,207.722,0.140219
281.6000,-0.109531,207.377,0.135276
281.5000,0.333352,207.546,0.1377
281.4000,0.390813,208.333,0.148967
281.3000,-0.126462,207.791,0.14121
281.2000,-0.481663,208.577,0.152467
281.1000,1.30838,208.41,0.150069
281.0000,0.0499658,208.285,0.148286
280.9000,-0.960517,208.171,0.146648
280.8000,3.19236,208.484,0.151139
280.7000,0.518437,207.938,0.143322
280.6000,-0.252256,208.237,0.147605
280.5000,0.053951,207.962,0.143663
280.4000,-0.195772,208.542,0.151965
280.3000,-0.43308,208.176,0.14673
280.2000,0.345122,207.997,0.144166
280.1000,1.68778,207.325,0.134527
280.0000,0.407365,208.054,0.144977
279.9000,1.49935,208.543,0.151981
279.8000,2.21844,207.916,0.142997
279.7000,2.88414,207.858,0.142168
279.6000,-0.0246216,208.401,0.14994
279.5000,1.0594,208.137,0.146162
279.4000,0.730471,208.139,0.146194
279.3000,1.85865,209.265,0.162284
279.2000,0.787667,208.821,0.155947
279.1000,1.49364,208.591,0.152661
279.0000,1.39926,208.386,0.149729
278.9000,-0.075411,208.652,0.153536
278.8000,-0.801168,208.459,0.150782
278.7000,-0.461862,208.479,0.151058
278.6000,1.54341,208.344,0.149129
278.5000,-0.0370077,208.329,0.148919
278.4000,1.56574,208.276,0.148156
278.3000,-0.21967,208.396,0.149875
278.2000,2.61549,209.125,0.16028
278.1000,1.04721,207.999,0.144198
278.0000,1.16741,207.861,0.142217
277.9000,1.08759,208.045,0.144847
277.8000,0.969194,208.195,0.147005
277.7000,-0.884486,208.407,0.150037
277.6000,-0.414744,208.271,0.148092
277.5000,-0.0254589,208.796,0.155591
277.4000,1.29631,208.409,0.150053
277.3000,2.11219,208.597,0.152742
277.2000,-1.72805,208.694,0.154135
277.1000,1.5754,208.612,0.152969
277.0000,-0.397895,208.75,0.154928
276.9000,0.802363,207.87,0.142347
276.8000,1.05244,208.591,0.152661
276.7000,0.368453,208.513,0.151544
276.6000,0.572842,208.833,0.156125
276.5000,0.902093,207.876,0.142429
276.4000,0.398296,208.13,0.146064
276.3000,0.0541709,207.817,0.141584
276.2000,0.239178,208.597,0.152742
276.1000,-0.138446,208.597,0.152742
276.0000,0.841849,208.199,0.147054
275.9000,1.69539,208.209,0.1472
275.8000,1.26809,208.425,0.150296
275.7000,1.91599,208.019,0.144474
275.6000,1.15994,208.977,0.158179
275.5000,1.08713,208.294,0.148416
275.4000,1.24865,208.637,0.153325
275.3000,-0.121113,208.849,0.156351
275.2000,0.465667,207.824,0.141681
275.1000,1.02446,208.576,0.152451
275.0000,1.39589,208.41,0.150069
274.9000,2.75065,208.036,0.144718
274.8000,0.291887,209.01,0.158648
274.7000,-0.182345,207.911,0.142932
274.6000,-1.20406,207.936,0.143289
274.5000,-0.853166,208.891,0.15695
274.4000,-0.0470865,208.191,0.14694
274.3000,0.214492,208.514,0.15156
274.2000,0.428016,208.509,0.151495
274.1000,0.321631,208.608,0.152904
274.0000,-0.968233,208.406,0.150021
273.9000,2.35023,208.719,0.154491
273.8000,1.83028,208.993,0.158406
273.7000,-0.667027,208.656,0.153584
273.6000,0.0951305,208.402,0.149956
273.5000,0.532,207.751,0.140642
273.4000,-0.142732,207.934,0.143257
273.3000,1.95611,208.639,0.153341
273.2000,-0.733111,208.701,0.154232
273.1000,-0.273775,209.292,0.162671
273.0000,-0.484951,208.573,0.152402
272.9000,0.246089,208.029,0.14462
272.8000,-0.299635,207.988,0.144036
272.7000,0.995478,208.064,0.145123
272.6000,1.67934,208.762,0.155106
272.5000,0.802581,208.91,0.157225
272.4000,0.900642,208.883,0.156837
272.3000,0.717296,208.188,0.146892
272.2000,0.394818,209.009,0.158632
272.1000,-0.600861,208.689,0.15407
272.0000,-1.98546,208.765,0.155154
271.9000,0.172806,209.106,0.160022
271.8000,0.809844,208.742,0.154814
271.7000,1.05421,208.889,0.156918
271.6000,-0.641176,209.518,0.165883
271.5000,0.469597,208.933,0.157548
271.4000,0.562886,208.302,0.148529
271.3000,0.0567989,208.605,0.152855
271.2000,1.60106,208.273,0.148108
271.1000,0.764495,208.508,0.151479
271.0000,-1.04574,208.036,0.144718
270.9000,-0.533777,208.482,0.151106
270.8000,0.0832012,208.092,0.145529
270.7000,0.148443,208.986,0.158309
270.6000,0.299695,209.07,0.159505
270.5000,0.791007,209.071,0.159521
270.4000,0.219057,208.431,0.150377
270.3000,1.59325,208.151,0.146372
270.2000,0.458246,208.576,0.152451
270.1000,0.0166938,208.054,0.144977
270.0000,0.281684,208.499,0.151349
269.9000,-0.433054,208.782,0.155397
269.8000,1.20432,208.974,0.15813
269.7000,1.88588,208.692,0.154102
269.6000,0.148198,208.632,0.153244
269.5000,2.58827,209.117,0.160168
269.4000,1.26466,209.014,0.158696
269.3000,1.04789,208.662,0.153681
269.2000,0.754481,208.71,0.154361
269.1000,1.39317,208.924,0.157419
269.0000,0.704729,208.291,0.148367
268.9000,0.955496,208.955,0.157856
268.8000,0.414123,209.307,0.162881
268.7000,-1.08498,209.978,0.172429
268.6000,2.24052,210.17,0.175166
268.5000,1.60059,208.473,0.150977
268.4000,0.26803,209.157,0.160749
268.3000,-1.90168,209.182,0.161105
268.2000,1.07353,209.027,0.158891
268.1000,0.149513,209.173,0.160975
268.0000,0.138769,208.59,0.152645
267.9000,0.439935,209.414,0.164399
267.8000,0.891907,208.963,0.157969
267.7000,-1.14997,209.474,0.165254
267.6000,1.67878,209.028,0.158907
267.5000,0.0132046,208.717,0.154458
267.4000,-0.457789,208.764,0.155138
267.3000,-0.55285,209.18,0.161072
267.2000,0.294449,209.469,0.16519
267.1000,2.08396,208.729,0.154636
267.0000,1.42736,209.63,0.167481
266.9000,-0.377409,209.655,0.167836
266.8000,1.79081,209.585,0.166835
266.7000,-0.399126,208.882,0.156821
266.6000,0.801836,208.925,0.157435
266.5000,0.770834,209.189,0.161201
266.4000,0.123637,209.455,0.164996
266.3000,1.32317,209.523,0.165964
266.2000,0.183741,209.319,0.163059
266.1000,-1.27989,208.967,0.158034
266.0000,-0.334432,209.491,0.165496
265.9000,0.135644,209.885,0.171108
265.8000,-1.79985,210.007,0.172847
265.7000,0.20483,209.917,0.171559
265.6000,0.880494,209.445,0.164851
265.5000,0.469215,208.789,0.155494
265.4000,-0.767472,209.878,0.171011
265.3000,1.55342,210.575,0.180906
265.2000,-1.46462,209.033,0.158971
265.1000,-0.962394,210.049,0.173443
265.0000,0.696017,209.632,0.167513
264.9000,0.904934,210.075,0.173813
264.8000,1.50683,209.831,0.170334
264.7000,0.709735,209.966,0.172268
264.6000,2.6372,210.09,0.174022
264.5000,1.79969,209.725,0.168835
264.4000,1.07676,209.943,0.171929
264.3000,0.331537,209.862,0.170785
264.2000,0.771241,209.936,0.171832
264.1000,1.1101,210.105,0.174232
264.0000,0.512936,210,0.172751
263.9000,-0.127789,209.842,0.170495
263.8000,-0.774095,209.802,0.169931
263.7000,0.113267,210.079,0.173861
263.6000,0.197473,210.455,0.179203
263.5000,1.21768,209.607,0.167158
263.4000,0.640773,210.566,0.180778
263.3000,1.79676,209.004,0.158567
263.2000,-0.312939,209.77,0.16948
263.1000,0.518805,209.684,0.168255
263.0000,-1.22301,210.141,0.174747
262.9000,-0.741434,209.964,0.172235
262.8000,0.311443,209.82,0.170189
262.7000,-0.191927,210.5,0.179846
262.6000,0.312751,210.102,0.1742
262.5000,-0.874389,210.462,0.179299
262.4000,-0.0780763,210.637,0.18179
262.3000,-0.0471148,209.749,0.169174
262.2000,1.29755,210.528,0.180248
262.1000,0.788077,210.093,0.174071
262.0000,-0.345353,210.477,0.179524
261.9000,1.33454,210.201,0.1756
261.8000,1.07342,210.577,0.180938
261.7000,-0.689495,210.433,0.178897
261.6000,-0.20832,209.707,0.168577
261.5000,0.606958,209.672,0.168077
261.4000,1.57989,209.401,0.164221
261.3000,-0.0296577,209.925,0.171671
261.2000,-0.200075,210.695,0.182609
261.1000,0.949942,210.897,0.185467
261.0000,0.198507,210.308,0.177112
260.9000,0.0925366,209.127,0.160313
260.8000,-0.874252,210.889,0.185354
260.7000,1.35433,210.959,0.186349
260.6000,-0.487581,210.304,0.177064
260.5000,-0.098812,209.884,0.171091
260.4000,0.217366,212.522,0.208407
260.3000,-1.15293,211.684,0.196603
260.2000,-1.42894,210.917,0.185756
260.1000,-0.418434,210.064,0.173652
260.0000,0.208476,210.619,0.181533
259.9000,0.421767,210.943,0.186125
259.8000,-0.46535,211.53,0.194427
259.7000,1.08513,210.165,0.175085
259.6000,-0.0560488,210.093,0.174071
259.5000,-0.0383092,210.337,0.17753
259.4000,-0.0852638,211.059,0.187761
259.3000,-1.80498,211.046,0.187584
259.2000,1.24221,211.028,0.187328
259.1000,1.72731,211.362,0.192057
259.0000,-0.867197,211.802,0.198267
258.9000,0.232045,211.285,0.190967
258.8000,0.688664,211.531,0.194443
258.7000,-1.81727,210.632,0.18171
258.6000,-1.27613,212.457,0.207498
258.5000,0.267493,212.835,0.212822
258.4000,0.0522381,211.904,0.199706
258.3000,-0.230324,211.584,0.195195
258.2000,1.358,211.216,0.189989
258.1000,-0.380855,211.512,0.19417
258.0000,-0.316694,211.161,0.189204
257.9000,0.489248,212.297,0.205248
257.8000,-1.08401,211.847,0.198906
257.7000,-0.55458,211.56,0.194843
257.6000,-0.426454,212.357,0.206094
257.5000,-1.23586,211.658,0.196235
257.4000,0.263496,212.486,0.207913
257.3000,-0.406478,212.032,0.201511
257.2000,-1.3753,211.007,0.187023
257.1000,3.08053,211.686,0.196635
257.0000,0.225677,212.383,0.206461
256.9000,0.193841,211.495,0.19393
256.8000,0.908095,210.795,0.184022
256.7000,-0.170998,211.529,0.19441
256.6000,1.35578,211.586,0.195211
256.5000,0.470559,211.154,0.189108
256.4000,1.48282,211.494,0.193914
256.3000,1.48303,210.32,0.177289
256.2000,-0.383491,211.477,0.193674
256.1000,0.238675,211.633,0.195883
256.0000,0.677855,211.824,0.19857
255.9000,0.372159,212,0.201064
255.8000,0.558571,212.39,0.206557
255.7000,0.259753,211.49,0.193866
255.6000,-0.221068,213.437,0.221269
255.5000,-0.770334,211.203,0.189797
255.4000,-0.351206,212.491,0.207976
255.3000,1.2789,212.858,0.21314
255.2000,0.0470022,211.796,0.198187
255.1000,1.40179,212.326,0.205647
255.0000,-0.758681,212.103,0.202518
254.9000,0.718031,212.367,0.206238
254.8000,1.52636,212.201,0.203891
254.7000,1.36615,213.059,0.215958
254.6000,1.0659,212.174,0.203508
254.5000,-0.327519,212.551,0.208822
254.4000,0.0699079,212.055,0.201831
254.3000,-0.328736,212.625,0.209858
254.2000,0.606806,211.773,0.197851
254.1000,0.70318,213.231,0.218376
254.0000,-0.208791,212.9,0.213729
253.9000,0.54282,212.252,0.20461
253.8000,0.211923,212.235,0.20437
253.7000,-2.06562,213.127,0.216913
253.6000,0.733744,212.815,0.212535
253.5000,0.0940157,213.609,0.223684
253.4000,1.35399,212.758,0.211738
253.3000,-1.18883,212.537,0.20863
253.2000,0.538137,214.427,0.235131
253.1000,0.558047,212.054,0.201815
253.0000,-0.803247,212.075,0.202119
252.9000,-0.823963,213.205,0.21801
252.8000,-1.44712,212.732,0.211372
252.7000,-0.662784,213.12,0.216817
252.6000,-0.0936363,214.158,0.231362
252.5000,2.49325,214.592,0.237426
252.4000,1.45426,213.399,0.220729
252.3000,2.32685,213.953,0.228492
252.2000,0.177973,213.361,0.220205
252.1000,0.408834,213.438,0.221285
252.0000,-0.254918,213.738,0.225494
251.9000,-1.81163,213.422,0.221063
251.8000,0.574148,212.758,0.211738
251.7000,0.960964,212.95,0.21443
251.6000,0.157292,212.86,0.213172
251.5000,1.02888,213.558,0.222969
251.4000,-0.885424,211.734,0.197307
251.3000,0.806738,214.372,0.234356
251.2000,0.35632,214.1,0.230554
251.1000,-2.04009,212.08,0.202183
251.0000,1.94841,212.797,0.21228
250.9000,-0.87633,214.821,0.24062
250.8000,1.75387,214.151,0.231267
250.7000,2.3003,214.239,0.232503
250.6000,0.317438,214.289,0.2332
250.5000,-0.915118,213.426,0.22111
250.4000,-0.882214,213.108,0.216658
250.3000,0.382014,214.805,0.240399
250.2000,0.492432,214.338,0.233881
250.1000,0.07358,214.637,0.238059
250.0000,-0.489228,215.209,0.246038
249.9000,-1.00103,215.204,0.245959
249.8000,-0.947459,213.345,0.219982
249.7000,-0.377679,214.496,0.236097
249.6000,-0.500487,214.218,0.232202
249.5000,0.0509988,214.077,0.230237
249.4000,0.0518361,214.742,0.23953
249.3000,-0.737222,215.081,0.244254
249.2000,0.587422,216.007,0.257132
249.1000,0.790281,214.096,0.230506
249.0000,0.163188,213.945,0.228382
248.9000,0.752433,214.376,0.234419
248.8000,-1.11213,213.553,0.22289
248.7000,-1.82572,213.575,0.223208
248.6000,-1.18032,214.574,0.237173
248.5000,-2.05432,214.431,0.235179
248.4000,-0.99811,215.253,0.246653
248.3000,-2.34156,213.455,0.221524
248.2000,0.370156,213.108,0.216658
248.1000,-1.30281,214.839,0.240873
248.0000,-0.592428,215.015,0.243338
247.9000,-1.14155,215.896,0.25559
247.8000,0.456881,213.235,0.21844
247.7000,0.387433,213.992,0.229047
247.6000,-0.502132,214.75,0.23964
247.5000,0.0504697,213.907,0.227858
247.4000,-1.45501,214.64,0.238106
247.3000,-2.65863,214.968,0.242674
247.2000,-1.69898,214.894,0.241647
247.1000,-0.886109,215.694,0.252787
247.0000,-2.79523,216.049,0.257714
246.9000,-2.63884,215.741,0.253433
246.8000,-1.87456,213.608,0.223668
246.7000,-1.54869,215.211,0.246069
246.6000,-0.0655783,215.223,0.246227
246.5000,-1.43314,215.47,0.249666
246.4000,-2.73868,215.301,0.247316
246.3000,-1.22307,215.266,0.246827
246.2000,-1.5846,214.696,0.238881
246.1000,-2.61499,216.124,0.258752
246.0000,-1.76733,215.281,0.247032
245.9000,-2.36177,215.156,0.245296
245.8000,-1.09676,216.398,0.262557
245.7000,-2.07582,213.573,0.223176
245.6000,-1.67852,215.926,0.256015
245.5000,-1.52347,215.204,0.245959
245.4000,-3.29598,214.532,0.236587
245.3000,-1.7139,215.649,0.252157
245.2000,-2.47627,216.375,0.262242
245.1000,-1.49077,215.312,0.247474
245.0000,-3.60365,215.303,0.247348
244.9000,-2.54905,215.393,0.248594
244.8000,-1.55267,216.419,0.262855
244.7000,-3.15939,216.922,0.269823
244.6000,-2.1983,215.702,0.252897
244.5000,-2.51431,214.168,0.231504
244.4000,-3.32455,216.705,0.266812
244.3000,-2.62491,216.614,0.265556
244.2000,-3.45703,216.354,0.261944
244.1000,-2.57389,215.325,0.247647
244.0000,-3.99282,216.533,0.264426
243.9000,-2.70416,215.277,0.246985
243.8000,-2.06743,216.337,0.261708
243.7000,-2.33549,216.957,0.27031
243.6000,-1.57007,216.422,0.262886
243.5000,-3.15546,217.387,0.276247
243.4000,-3.58893,217.816,0.282174
243.3000,-3.46187,217.504,0.277859
243.2000,-1.78568,216.17,0.259397
243.1000,-4.1518,216.671,0.266341
243.0000,-4.20931,217.261,0.274509
242.9000,-4.98774,217.508,0.277921
242.8000,-4.61709,217.627,0.279564
242.7000,-4.38603,217.347,0.275699
242.6000,-5.57843,217.794,0.281862
242.5000,-5.2056,218.382,0.289964
242.4000,-3.72854,218.231,0.287889
242.3000,-3.79288,218.467,0.291133
242.2000,-7.12811,218.071,0.285689
242.1000,-4.79083,217.737,0.28108
242.0000,-6.34678,217.779,0.281659
241.9000,-5.72851,217.704,0.280627
241.8000,-7.16291,218.258,0.288264
241.7000,-6.29013,219.026,0.298826
241.6000,-6.62305,217.382,0.276184
241.5000,-6.17019,218.556,0.292364
241.4000,-5.44404,218.553,0.292318
241.3000,-7.97947,218.35,0.289527
241.2000,-7.73849,218.455,0.290977
241.1000,-6.12079,220.574,0.320013
241.0000,-7.29682,219.899,0.310784
240.9000,-6.15366,218.468,0.291149
240.8000,-8.6469,219.684,0.307837
240.7000,-9.00418,218.295,0.288763
240.6000,-8.56568,218.869,0.296663
240.5000,-7.07608,221.105,0.327244
240.4000,-8.43433,220.182,0.314658
240.3000,-8.93532,219.263,0.302076
240.2000,-6.5837,219.794,0.309342
240.1000,-8.7821,219.622,0.306999
240.0000,-7.56819,220.988,0.325654
239.9000,-8.98131,222.333,0.343938
239.8000,-10.3439,220.205,0.314968
239.7000,-8.20807,221.134,0.327646
239.6000,-8.88075,222.384,0.344629
239.5000,-12.0332,220.346,0.316904
239.4000,-9.66854,219.86,0.310257
239.3000,-11.5125,221.348,0.330561
239.2000,-14.2647,221.701,0.335354
239.1000,-12.2651,221.546,0.333259
239.0000,-11.238,221.728,0.335724
238.9000,-13.1123,221.495,0.332566
238.8000,-13.2931,222.383,0.344614
238.7000,-12.0792,222.318,0.343738
238.6000,-9.64845,222.49,0.346073
238.5000,-13.016,223.614,0.361275
238.4000,-14.2978,223.488,0.359576
238.3000,-13.2667,223.941,0.365676
238.2000,-14.5166,222.366,0.344383
238.1000,-13.526,223.596,0.36103
238.0000,-17.089,224.65,0.375225
237.9000,-13.7823,223.84,0.364316
237.8000,-16.1223,224.537,0.373701
237.7000,-15.6652,224.056,0.367234
237.6000,-14.1043,224.189,0.369019
237.5000,-15.9572,225.78,0.390382
237.4000,-15.5994,223.428,0.358766
237.3000,-14.3365,224.403,0.371902
237.2000,-17.636,223.959,0.36592
237.1000,-19.3606,225.303,0.383989
237.0000,-15.509,226.294,0.397263
236.9000,-19.7178,225.769,0.390245
236.8000,-19.6852,225.388,0.385129
236.7000,-19.4634,226.062,0.394158
236.6000,-16.7653,225.85,0.391322
236.5000,-19.4019,226.467,0.399579
236.4000,-21.4115,227.703,0.416052
236.3000,-20.8011,227.119,0.40827
236.2000,-18.7191,225.863,0.391504
236.1000,-19.7771,226.534,0.400472
236.0000,-20.1152,227.311,0.410836
235.9000,-20.7484,227.387,0.411847
235.8000,-20.3176,227.696,0.415947
235.7000,-20.4619,227.339,0.411198
235.6000,-23.1072,227.477,0.413038
235.5000,-22.5995,228.597,0.42792
235.4000,-21.6122,228.952,0.432617
235.3000,-22.9282,228.557,0.427379
235.2000,-23.6206,229.282,0.436978
235.1000,-25.818,229.261,0.436709
235.0000,-25.7633,230.895,0.458248
234.9000,-26.316,229.15,0.435241
234.8000,-24.2603,229.36,0.438012
234.7000,-25.1486,230.363,0.451241
234.6000,-25.623,230.2,0.449092
234.5000,-25.4848,230.73,0.456073
234.4000,-27.0476,231.07,0.460541
234.3000,-29.9,231.19,0.462118
234.2000,-31.4804,231.472,0.465821
234.1000,-29.9839,231.49,0.466058
234.0000,-27.6089,230.597,0.454329
233.9000,-29.3522,231.172,0.46188
233.8000,-30.4949,231.968,0.472325
233.7000,-31.5497,231.759,0.469579
233.6000,-31.1371,232.334,0.477114
233.5000,-32.3918,233.774,0.495898
233.4000,-31.0305,233.577,0.493332
233.3000,-33.3869,233.41,0.491148
233.2000,-33.4754,233.507,0.492417
233.1000,-34.8867,233.149,0.487752
233.0000,-34.7197,233.432,0.491443
232.9000,-34.9206,234.779,0.50895
232.8000,-35.3171,234.452,0.504703
232.7000,-33.5703,235.101,0.51312
232.6000,-32.7426,234.395,0.503968
232.5000,-33.6248,235.261,0.515188
232.4000,-37.5604,235.864,0.522981
232.3000,-39.9742,235.56,0.519057
232.2000,-38.0827,235.148,0.513721
232.1000,-37.4825,234.221,0.501702
232.0000,-41.7793,237.065,0.53846
231.9000,-40.9217,237.299,0.541476
231.8000,-38.8221,237.997,0.550434
231.7000,-42.3381,236.966,0.537192
231.6000,-41.9315,238.311,0.554455
231.5000,-42.651,237.078,0.538635
231.4000,-41.615,238.534,0.557312
231.3000,-41.4832,238.148,0.552365
231.2000,-45.8846,238.491,0.556761
231.1000,-41.7091,238.794,0.560631
231.0000,-45.2421,239.357,0.567823
230.9000,-44.9682,238.996,0.563208
230.8000,-45.5406,239.27,0.56671
230.7000,-45.9857,239.355,0.567794
230.6000,-44.9501,239.137,0.565017
230.5000,-47.4983,239.759,0.572951
230.4000,-48.1961,240.04,0.57653
230.3000,-43.7654,240.167,0.578145
230.2000,-46.0452,240.253,0.579241
230.1000,-46.977,240.654,0.584339
230.0000,-50.5032,240.081,0.577049
229.9000,-49.4233,240.356,0.580552
229.8000,-50.9464,241.087,0.589833
229.7000,-51.7275,241.944,0.600681
229.6000,-51.2042,241.639,0.596825
229.5000,-51.6006,243.129,0.615639
229.4000,-51.8565,242.093,0.602572
229.3000,-53.5868,242.065,0.602214
229.2000,-52.4539,243.318,0.618021
229.1000,-53.4955,243.986,0.626412
229.0000,-54.2664,244.244,0.629655
228.9000,-54.5862,244.425,0.631929
228.8000,-53.5156,243.289,0.61765
228.7000,-54.0608,243.846,0.624661
228.6000,-55.7225,246.421,0.656866
228.5000,-55.0072,245.63,0.647002
228.4000,-55.8086,244.431,0.632
228.3000,-55.1123,245.887,0.650212
228.2000,-58.782,246.057,0.652333
228.1000,-56.645,245.682,0.647653
228.0000,-56.6749,247.698,0.672737
227.9000,-63.5088,246.45,0.657233
227.8000,-58.1205,246.026,0.651951
227.7000,-59.8058,247.665,0.67233
227.6000,-58.1503,247.964,0.676038
227.5000,-59.9269,248.517,0.682883
227.4000,-64.4258,248.4,0.68144
227.3000,-61.7086,250.316,0.705072
227.2000,-58.714,248.552,0.683318
227.1000,-62.1182,249.254,0.691996
227.0000,-63.1952,249.437,0.694246
226.9000,-62.6609,250.051,0.701811
226.8000,-62.6782,249.167,0.690919
226.7000,-61.4089,251.083,0.714491
226.6000,-64.7262,250.134,0.702829
226.5000,-65.0611,250.429,0.706465
226.4000,-60.6547,251.471,0.719241
226.3000,-64.7267,250.254,0.704306
226.2000,-67.2855,251.229,0.716283
226.1000,-66.3241,251.644,0.721363
226.0000,-64.9709,251.133,0.715103
225.9000,-64.5993,253.353,0.742221
225.8000,-65.6452,251.641,0.721322
225.7000,-68.34,251.437,0.718824
225.6000,-62.6704,252.409,0.730714
225.5000,-68.1484,253.911,0.749014
225.4000,-68.8346,254.708,0.75868
225.3000,-66.9508,254.027,0.750418
225.2000,-67.0478,254.578,0.757101
225.1000,-68.7167,255.1,0.763428
225.0000,-71.3873,255.11,0.763552
224.9000,-68.3839,255.523,0.76854
224.8000,-70.5007,255.015,0.7624
224.7000,-68.9192,253.985,0.749909
224.6000,-69.9991,256.752,0.78337
224.5000,-68.8853,254.709,0.758694
224.4000,-67.0235,256.738,0.783207
224.3000,-72.1031,255.508,0.768362
224.2000,-69.6029,255.84,0.772373
224.1000,-70.6089,256.948,0.785729
224.0000,-71.2595,256.097,0.775477
223.9000,-74.9484,256.576,0.781255
223.8000,-69.9852,257.671,0.794417
223.7000,-71.8815,258.331,0.802338
223.6000,-66.9826,258.131,0.799935
223.5000,-73.2766,259.027,0.810661
223.4000,-70.5728,260.381,0.826809
223.3000,-70.1623,259.739,0.819156
223.2000,-72.6125,258.692,0.806651
223.1000,-71.6532,259.359,0.814627
223.0000,-69.5999,260.114,0.823625
222.9000,-73.4255,260.213,0.824813
222.8000,-71.0813,260.791,0.831686
222.7000,-72.6473,261.742,0.842967
222.6000,-72.7182,261.226,0.836854
222.5000,-70.564,261.391,0.838803
222.4000,-72.8143,262.41,0.85088
222.3000,-76.6381,261.265,0.837311
222.2000,-75.6689,263.074,0.858722
222.1000,-73.0574,262.807,0.855565
222.0000,-73.1106,263.491,0.863638
221.9000,-72.3528,263.681,0.865867
221.8000,-77.3678,263.192,0.860112
221.7000,-73.3487,263.939,0.868908
221.6000,-72.5122,264.55,0.876087
221.5000,-72.9717,265.064,0.882124
221.4000,-74.9492,265.209,0.883824
221.3000,-75.076,265.557,0.887898
221.2000,-71.2471,264.873,0.879878
221.1000,-75.6987,266.025,0.893373
221.0000,-72.3441,265.591,0.888296
220.9000,-71.4676,267.541,0.911053
220.8000,-73.0755,267.052,0.905354
220.7000,-73.2234,265.658,0.889079
220.6000,-71.774,267.694,0.912833
220.5000,-73.2238,267.926,0.915533
220.4000,-71.3252,268.493,0.922111
220.3000,-76.9098,268.68,0.924279
220.2000,-71.0955,268.164,0.918297
220.1000,-72.6773,268.36,0.920573
220.0000,-72.9861,269.074,0.928848
219.9000,-73.421,269.568,0.934564
219.8000,-69.5678,270.829,0.949117
219.7000,-73.3918,271.176,0.953108
219.6000,-71.3691,269.933,0.93878
219.5000,-73.1673,271.379,0.955441
219.4000,-73.2121,272.196,0.964823
219.3000,-71.287,271.693,0.959048
219.2000,-72.3176,271.768,0.95992
219.1000,-74.8937,272.593,0.969381
219.0000,-72.2177,271.863,0.961
218.9000,-70.4876,272.627,0.969771
218.8000,-71.8224,272.468,0.96794
218.7000,-72.4556,273.83,0.983516
218.6000,-74.0046,273.745,0.982546
218.5000,-70.0999,274.012,0.985597
218.4000,-71.0391,273.932,0.984679
218.3000,-72.0931,274.798,0.994556
218.2000,-70.6963,274.345,0.989395
218.1000,-71.2521,275.395,1.00134
218.0000,-74.6692,275.153,0.998589
217.9000,-74.5573,276.022,1.00845
217.8000,-69.3636,276.263,1.01119
217.7000,-73.4667,276.702,1.01615
217.6000,-70.305,277.11,1.02077
217.5000,-71.1849,277.212,1.02192
217.4000,-73.8752,277.787,1.02842
217.3000,-70.527,277.975,1.03054
217.2000,-71.2876,279.14,1.04364
217.1000,-72.4999,278.688,1.03856
217.0000,-72.281,279.285,1.04527
216.9000,-70.2901,279.886,1.05201
216.8000,-68.6368,280.431,1.05811
216.7000,-75.5153,280.626,1.06029
216.6000,-72.7238,280.487,1.05874
216.5000,-71.425,280.783,1.06205
216.4000,-72.3944,281.792,1.0733
216.3000,-72.4592,281.343,1.0683
216.2000,-67.7143,281.752,1.07286
216.1000,-75.6112,282.554,1.08179
216.0000,-75.9115,282.079,1.07651
215.9000,-73.2015,281.698,1.07226
215.8000,-70.541,284.347,1.10167
215.7000,-72.911,282.987,1.0866
215.6000,-69.4529,285.262,1.11178
215.5000,-70.8955,283.966,1.09746
215.4000,-73.9529,285.45,1.11386
215.3000,-70.7853,284.472,1.10306
215.2000,-72.5889,285.655,1.11612
215.1000,-69.8508,286.199,1.12211
215.0000,-73.7435,287.051,1.13147
214.9000,-70.5306,286.39,1.1242
214.8000,-71.9622,286.826,1.12899
214.7000,-72.5771,288.268,1.1448
214.6000,-69.8182,288.025,1.14213
214.5000,-66.4642,288.646,1.14892
214.4000,-73.251,287.749,1.13912
214.3000,-70.1985,290.526,1.16941
214.2000,-70.0596,289.833,1.16187
214.1000,-75.1021,290.872,1.17317
214.0000,-70.0485,290.371,1.16773
213.9000,-70.0991,290.896,1.17342
213.8000,-71.2489,290.353,1.16753
213.7000,-72.0863,291.422,1.17913
213.6000,-71.4938,292.905,1.19516
213.5000,-71.4257,292.687,1.19282
213.4000,-74.6679,293.41,1.20061
213.3000,-73.0004,293.475,1.20131
213.2000,-72.1874,294.445,1.21174
213.1000,-73.603,294.851,1.21611
213.0000,-72.4059,294.203,1.20915
212.9000,-70.7189,295.092,1.21869
212.8000,-67.9398,295.579,1.22391
212.7000,-67.7955,295.753,1.22578
212.6000,-69.5519,295.524,1.22333
212.5000,-67.741,295.771,1.22597
212.4000,-76.5632,297.443,1.24382
212.3000,-76.2732,298.243,1.25233
212.2000,-70.0019,297.119,1.24037
212.1000,-77.5528,299.176,1.26224
212.0000,-75.9758,299.935,1.27028
211.9000,-77.5328,300.451,1.27573
211.8000,-79.4012,300.483,1.27607
211.7000,-71.2799,302.454,1.29684
211.6000,-75.0708,302.856,1.30106
211.5000,-71.7365,302.038,1.29247
211.4000,-77.383,303.345,1.30619
211.3000,-72.6363,304.355,1.31676
211.2000,-74.7292,304.748,1.32086
211.1000,-73.2047,304.538,1.31867
211.0000,-75.6435,304.302,1.31621
210.9000,-73.5465,306.604,1.34019
210.8000,-72.6852,306.243,1.33644
210.7000,-74.2691,307.671,1.35126
210.6000,-80.2039,306.954,1.34382
210.5000,-77.6932,308.669,1.36158
210.4000,-76.678,308.661,1.3615
210.3000,-71.8672,310.064,1.37596
210.2000,-73.728,310.314,1.37854
210.1000,-70.8906,311.248,1.38813
210.0000,-73.4422,313.294,1.40906
209.9000,-70.0649,313.436,1.41051
209.8000,-74.636,314.059,1.41686
209.7000,-74.4505,314.807,1.42446
209.6000,-78.0239,315.405,1.43054
209.5000,-74.458,314.657,1.42294
209.4000,-74.691,316.889,1.44557
209.3000,-75.9912,317.868,1.45545
209.2000,-72.6916,317.214,1.44884
209.1000,-80.3189,319.128,1.46813
209.0000,-75.6712,320.935,1.48623
208.9000,-77.5375,321.065,1.48753
208.8000,-72.8238,321.524,1.49212
208.7000,-78.7804,322.329,1.50015
208.6000,-79.0866,323.255,1.50936
208.5000,-68.8679,323.098,1.5078
208.4000,-73.3729,324.179,1.51853
208.3000,-74.2514,325.426,1.53088
208.2000,-76.7543,326.787,1.54431
208.1000,-71.2097,327.403,1.55037
208.0000,-74.4164,328.543,1.56157
207.9000,-73.1515,330.017,1.57599
207.8000,-73.8141,330.768,1.58332
207.7000,-70.501,332.252,1.59776
207.6000,-72.0763,333.158,1.60655
207.5000,-65.6831,332.997,1.60499
207.4000,-72.6286,334.452,1.61907
207.3000,-71.8626,335.763,1.63172
207.2000,-67.7151,336.598,1.63975
207.1000,-69.7219,336.94,1.64303
207.0000,-70.2906,339.336,1.66596
206.9000,-66.0135,340.52,1.67725
206.8000,-64.022,341.331,1.68496
206.7000,-68.4343,341.265,1.68433
206.6000,-61.6194,342.22,1.6934
206.5000,-68.0111,344.925,1.71894
206.4000,-64.0104,344.302,1.71307
206.3000,-64.3775,346.139,1.73035
206.2000,-68.2904,347.34,1.74161
206.1000,-63.6665,349.133,1.75836
206.0000,-63.8641,349.675,1.7634
205.9000,-55.1778,349.116,1.7582
205.8000,-56.4697,352.532,1.78991
205.7000,-65.9382,353.413,1.79804
205.6000,-58.1417,355.274,1.81517
205.5000,-59.9364,354.946,1.81215
205.4000,-40.8596,359.13,1.85042
205.3000,-56.638,359.772,1.85626
205.2000,-53.8117,360.462,1.86252
205.1000,-57.491,361.063,1.86798
205.0000,-56.7799,363.154,1.88687
204.9000,-50.262,364.943,1.90297
204.8000,-53.0604,366.461,1.91658
204.7000,-48.0753,367.152,1.92276
204.6000,-38.9499,369.471,1.94342
204.5000,-45.483,370.898,1.95608
204.4000,-42.0747,372.42,1.96954
204.3000,-40.1967,374.261,1.98576
204.2000,-37.1092,375.835,1.99957
204.1000,-38.5721,378.275,2.02089
204.0000,-42.2294,379.584,2.03228
203.9000,-47.0363,380.154,2.03723
203.8000,-39.4579,384.128,2.07156
203.7000,-31.6036,385.497,2.08332
203.6000,-19.7863,387.256,2.09838
203.5000,-28.3751,387.994,2.10467
203.4000,-17.3358,391.185,2.1318
203.3000,-21.3464,390.926,2.12961
203.2000,-23.6384,393.342,2.15003
203.1000,-21.6859,395.758,2.17035
203.0000,-19.9026,397.329,2.18351
202.9000,-8.72593,398.876,2.19642
202.8000,-8.11316,401.175,2.21553
202.7000,-16.5715,401.772,2.22048
202.6000,-19.4976,404.575,2.24363
202.5000,-3.9766,406.275,2.2576
202.4000,-6.39841,407.606,2.26851
202.3000,-12.0625,411.113,2.2971
202.2000,-9.14561,412.928,2.31182
202.1000,-8.84913,415.085,2.32924
202.0000,-2.66414,418.726,2.35848
201.9000,-13.3097,419.76,2.36673
201.8000,-5.87006,421.257,2.37867
201.7000,2.39014,425.642,2.41342
201.6000,3.88169,426.591,2.4209
201.5000,0.037483,429.258,2.44185
201.4000,-1.2147,431.172,2.45681
201.3000,2.75148,433.972,2.47861
201.2000,6.27359,435.603,2.49125
201.1000,12.0732,437.979,2.50959
201.0000,-7.78693,440.72,2.53065
200.9000,0.329834,443.546,2.55224
200.8000,5.78753,445.263,2.5653
200.7000,-0.77654,446.775,2.57678
200.6000,2.51334,450.387,2.60404
200.5000,10.7718,453.03,2.62387
200.4000,22.1592,455.654,2.64347
200.3000,17.4398,458.53,2.66484
200.2000,10.6568,460.184,2.67708
200.1000,10.1685,464.702,2.71031
200.0000,20.0878,467.056,2.72753
199.9000,8.40397,470.625,2.75348
199.8000,24.2713,471.799,2.76198
199.7000,18.2469,473.835,2.77668
199.6000,21.67,477.702,2.80446
199.5000,28.3384,480.094,2.82154
199.4000,20.8958,483.293,2.84428
199.3000,22.1973,485.662,2.86104
199.2000,27.5376,488.042,2.8778
199.1000,34.6404,489.462,2.88778
199.0000,13.119,494.795,2.92499
198.9000,32.8959,495.377,2.92904
198.8000,31.4378,500.622,2.96528
198.7000,23.1276,501.678,2.97254
198.6000,28.2304,506.881,3.00812
198.5000,38.6742,507.886,3.01496
198.4000,18.6602,513.15,3.05058
198.3000,23.3102,515.997,3.06971
198.2000,23.1119,519.684,3.09436
198.1000,28.1463,521.332,3.10533
198.0000,29.0939,523.564,3.12014
197.9000,22.9097,528.704,3.15405
197.8000,21.0588,531.014,3.16919
197.7000,14.0386,533.106,3.18286
197.6000,22.2299,536.581,3.20547
197.5000,32.7664,539.066,3.22155
197.4000,25.1353,542.158,3.24149
197.3000,27.1524,546.186,3.26731
197.2000,20.415,548.803,3.284
197.1000,31.549,551.999,3.30428
197.0000,20.2948,556.573,3.33315
196.9000,18.5156,561.216,3.36225
196.8000,37.7234,563.883,3.37887
196.7000,31.2241,566.333,3.39408
196.6000,29.4577,569.446,3.41332
196.5000,30.5797,573.952,3.44102
196.4000,52.5807,577.411,3.46216
196.3000,40.7038,581.201,3.4852
196.2000,35.1971,585.502,3.51119
196.1000,40.8435,587.822,3.52514
196.0000,21.8543,591.173,3.54521
195.9000,19.7561,593.963,3.56185
195.8000,28.4154,598.619,3.58946
195.7000,30.9866,602.297,3.61115
195.6000,20.5693,604.654,3.62498
195.5000,17.2346,607.803,3.6434
195.4000,21.1423,609.607,3.65392
195.3000,27.8552,612.728,3.67204
195.2000,27.8343,616.239,3.69234
195.1000,29.2216,617.87,3.70174
195.0000,38.144,620.95,3.71943
194.9000,10.2466,624.01,3.73692
194.8000,30.3658,627.001,3.75395
194.7000,28.8516,630.621,3.77448
194.6000,27.6107,632.798,3.78677
194.5000,17.4074,636.123,3.80548
194.4000,20.8301,639.077,3.82202
194.3000,24.6803,641.752,3.83696
194.2000,38.8955,645.076,3.85543
194.1000,25.4495,647.863,3.87086
194.0000,23.7942,651.321,3.88993
193.9000,22.2835,654.356,3.90659
193.8000,11.5072,656.934,3.9207
193.7000,34.6151,661.124,3.94352
193.6000,22.8509,664.2,3.96019
193.5000,11.6759,666.798,3.97423
193.4000,31.2735,669.037,3.98628
193.3000,5.11815,669.537,3.98898
193.2000,10.5094,673.068,4.00791
193.1000,22.8326,675.846,4.02274
193.0000,17.2668,678.997,4.03951
192.9000,17.689,681.764,4.05418
192.8000,22.6292,684.016,4.06607
192.7000,10.6935,686.829,4.08089
192.6000,13.6494,690.086,4.09798
192.5000,21.9913,692.555,4.11089
192.4000,21.0514,696.961,4.13383
192.3000,10.178,699.862,4.14887
192.2000,17.8707,702.786,4.16397
192.1000,14.0587,703.8,4.1692
192.0000,0.750542,707.288,4.18712
191.9000,17.378,709.886,4.20042
191.8000,9.12272,714.269,4.22277
191.7000,7.52012,714.465,4.22376
191.6000,23.9039,717.854,4.24096
191.5000,5.17921,721.022,4.25697
191.4000,8.59321,723.109,4.26749
191.3000,13.5736,726.942,4.28673
191.2000,8.02219,730.878,4.3064
191.1000,1.45667,735.846,4.3311
191.0000,19.8899,738.54,4.34443
190.9000,-1.58213,741.518,4.35912
190.8000,-3.04354,746.768,4.38491
190.7000,27.3074,749.175,4.39667
190.6000,2.56088,754.22,4.42123
190.5000,15.6621,755.906,4.4294
190.4000,11.5528,759.838,4.44841
190.3000,23.8105,762.966,4.46347
190.2000,7.30638,766.545,4.48064
190.1000,22.4322,767.721,4.48627
190.0000,11.7519,771.799,4.50572

##### Extended Information
[Comments]
Sample name,AZNTEA_BUFFER&PROTEIN_928
Comment,BUFFER7PROTIEN
User,ALEXZHANG
Division
Company,Saint Mary's College

[Detailed Information]
Creation date,9/28/2022 3:48 PM

Data array type,Linear data array * 3
Horizontal axis,Wavelength [nm]
Vertical axis(1),CD [mdeg]
Vertical axis(2),HT [V]
Vertical axis(3),Abs
Start,320 nm
End,190 nm
Data interval,0.1 nm
Data points,1301    

[Measurement Information]
Instrument name,J-1500
Model name,J-1500
Serial No.,B051061638

Detector,PM-539
Detector S/N,B051061638
  Lock-in amp.,X mode
  HT volt,Auto

Accessory,PTC-517
Accessory S/N,B026561646
  Temperature,23.25 C
  Control sensor,Holder
  Monitor sensor,Holder

Measurement date,9/28/2022 3:48 PM

CD Overload detect,943
Photometric mode,CD, HT, Abs
Measure range,320 - 190 nm
Data pitch,0.1 nm
CD scale,20 mdeg/0.05 dOD
FL scale,20 mdeg/0.05 dOD
D.I.T.,8 msec
Bandwidth,2.00 nm
Start mode,Immediately
Scanning mode,Continuous
Scanning speed,200 nm/min
Baseline correction,None
Shutter control,Auto
No. of cycle,1/1
N2 Flowmeter,Manual

Solvent,NaPO4 buffer

