TITLE,AZNTEA_ADDITIVE&PROTEIN_928
DATA TYPE,
ORIGIN,JASCO
OWNER,
DATE,22/09/28
TIME,15:56:34
SPECTROMETER/DATA SYSTEM,
LOCALE,1033
RESOLUTION,
DELTAX,-0.1
XUNITS,NANOMETERS
YUNITS,CD [mdeg]
Y2UNITS,HT [V]
Y3UNITS,ABSORBANCE
FIRSTX,  320.0000
LASTX,  190.0000
NPOINTS,    1301
FIRSTY,     1.86138
MAXY,    51.26155
MINY,   -68.44477
XYDATA
320.0000,1.86138,207.853,0.142104
319.9000,1.29642,209.249,0.162058
319.8000,0.797022,207.954,0.143549
319.7000,1.66318,208.573,0.152402
319.6000,1.5581,208.755,0.155009
319.5000,2.26317,208.31,0.148643
319.4000,1.93353,207.682,0.13965
319.3000,0.0909494,207.993,0.144101
319.2000,1.51435,208.464,0.150847
319.1000,1.4639,207.5,0.137033
319.0000,1.8727,208.719,0.154491
318.9000,1.66491,208.52,0.151641
318.8000,0.872432,208.989,0.158341
318.7000,1.56202,208.539,0.151916
318.6000,0.507706,208.556,0.152159
318.5000,1.64843,208.566,0.152305
318.4000,1.48811,208.202,0.147102
318.3000,0.536839,207.986,0.144003
318.2000,0.863095,208.552,0.152111
318.1000,0.0683717,207.643,0.139081
318.0000,2.07123,208.436,0.150442
317.9000,2.35264,208.363,0.149405
317.8000,0.829143,207.941,0.143354
317.7000,2.10875,208.154,0.146405
317.6000,0.607318,208.416,0.150167
317.5000,1.82948,208.055,0.144993
317.4000,2.34436,208.68,0.15394
317.3000,0.234091,208.37,0.149502
317.2000,1.65968,208.444,0.150555
317.1000,2.98971,208.563,0.152256
317.0000,1.01892,208.719,0.154491
316.9000,1.93731,208.875,0.156724
316.8000,1.94928,207.883,0.142526
316.7000,2.04871,208.421,0.150231
316.6000,2.4708,207.979,0.143906
316.5000,1.2899,208.341,0.149081
316.4000,1.30185,207.89,0.142623
316.3000,2.13439,207.951,0.1435
316.2000,0.612387,207.819,0.141617
316.1000,1.58562,208.421,0.150231
316.0000,0.9884,208.463,0.150831
315.9000,0.148171,208.353,0.149259
315.8000,1.65727,207.892,0.142656
315.7000,0.608601,208.109,0.145772
315.6000,1.7733,207.916,0.142997
315.5000,1.61517,207.943,0.143386
315.4000,0.92147,207.722,0.140219
315.3000,0.434059,208.295,0.148432
315.2000,0.154643,207.447,0.136268
315.1000,-0.832714,208.029,0.14462
315.0000,1.54605,208.057,0.145026
314.9000,0.946856,208.881,0.156804
314.8000,1.48892,208.067,0.145172
314.7000,1.58,207.643,0.139081
314.6000,2.59395,208.205,0.147135
314.5000,1.9187,208.089,0.14548
314.4000,1.50122,208.155,0.146421
314.3000,-0.377018,208.16,0.146502
314.2000,1.30984,208.351,0.149226
314.1000,2.42142,207.38,0.135309
314.0000,1.25745,207.994,0.144117
313.9000,1.07623,208.023,0.144539
313.8000,1.53253,207.877,0.142445
313.7000,0.938024,208.33,0.148935
313.6000,1.18545,208.246,0.147735
313.5000,1.4324,208.137,0.146162
313.4000,3.8167,207.45,0.136317
313.3000,2.07841,207.846,0.142006
313.2000,0.808234,207.558,0.137862
313.1000,2.10672,207.187,0.132541
313.0000,1.28039,207.074,0.130913
312.9000,2.55747,207.917,0.143013
312.8000,1.98477,208.049,0.144912
312.7000,0.401662,206.915,0.128631
312.6000,0.029157,207.175,0.132362
312.5000,-0.104578,207.439,0.136154
312.4000,0.743121,208.03,0.144636
312.3000,2.46905,207.484,0.136805
312.2000,0.831067,207.43,0.136024
312.1000,2.99406,208.253,0.147832
312.0000,2.04423,208.339,0.149064
311.9000,1.43985,207.558,0.137862
311.8000,-0.853906,208.07,0.145204
311.7000,1.10742,208.04,0.144783
311.6000,1.57317,207.914,0.14298
311.5000,1.13196,208.345,0.149145
311.4000,1.31524,208.178,0.146762
311.3000,0.663066,208.151,0.146372
311.2000,0.124928,207.262,0.133616
311.1000,1.44526,207.398,0.135569
311.0000,1.5944,206.946,0.129071
310.9000,1.4592,207.239,0.13329
310.8000,1.93683,207.431,0.136041
310.7000,2.74058,207.869,0.142331
310.6000,-0.216122,208.061,0.145075
310.5000,1.05614,207.701,0.139927
310.4000,0.0726547,208.342,0.149097
310.3000,0.0365478,208.011,0.14436
310.2000,2.09342,207.788,0.141162
310.1000,0.205791,207.362,0.135048
310.0000,1.1283,207.85,0.142055
309.9000,-0.060089,208.36,0.149356
309.8000,0.926232,207.384,0.135374
309.7000,0.451069,207.679,0.139602
309.6000,2.89368,207.933,0.14324
309.5000,1.25685,207.322,0.134479
309.4000,1.74803,208.267,0.148027
309.3000,1.48473,207.683,0.139667
309.2000,0.98282,208.344,0.149129
309.1000,1.15891,207.621,0.138773
309.0000,1.14634,207.691,0.13978
308.9000,1.01324,208.275,0.14814
308.8000,2.76281,207.373,0.135211
308.7000,1.17498,208.402,0.149956
308.6000,1.82307,207.526,0.137407
308.5000,2.54071,208.262,0.147962
308.4000,3.04507,207.675,0.139553
308.3000,1.00113,207.963,0.143679
308.2000,2.01023,207.731,0.140349
308.1000,2.23769,208.529,0.151771
308.0000,2.98253,208.107,0.14574
307.9000,1.289,207.414,0.135797
307.8000,0.237619,207.307,0.134267
307.7000,1.69938,208.29,0.148351
307.6000,2.85368,207.968,0.143744
307.5000,2.61637,208.234,0.147557
307.4000,1.28962,208.072,0.145237
307.3000,3.26807,207.771,0.140918
307.2000,0.48714,207.411,0.135764
307.1000,1.07299,207.561,0.137911
307.0000,2.5138,207.938,0.143322
306.9000,2.45072,207.814,0.141535
306.8000,2.30594,207.562,0.137927
306.7000,0.666972,207.89,0.142623
306.6000,0.641453,207.527,0.137423
306.5000,0.571874,208.382,0.14968
306.4000,2.28337,207.088,0.131124
306.3000,1.22898,207.417,0.135846
306.2000,1.8432,207.512,0.137212
306.1000,3.3766,208.061,0.145075
306.0000,1.50954,208.226,0.147443
305.9000,1.27299,207.629,0.138886
305.8000,1.40268,208.07,0.145204
305.7000,1.49591,207.357,0.134983
305.6000,1.40811,207.565,0.137976
305.5000,2.26628,207.697,0.139862
305.4000,2.46718,207.11,0.131434
305.3000,1.40377,207.158,0.132118
305.2000,2.43513,208.197,0.147021
305.1000,-0.911708,207.093,0.131189
305.0000,0.104168,207.552,0.137781
304.9000,1.18186,207.558,0.137862
304.8000,0.86038,207.723,0.140236
304.7000,2.84193,207.68,0.139618
304.6000,1.60065,207.686,0.139699
304.5000,1.71502,207.291,0.134039
304.4000,1.5128,207.318,0.13443
304.3000,0.0184529,207.187,0.132541
304.2000,1.72055,207.442,0.136203
304.1000,1.92366,207.385,0.13539
304.0000,2.11025,207.345,0.134804
303.9000,1.64536,207.067,0.130815
303.8000,1.77958,207.635,0.138968
303.7000,2.26231,207.691,0.13978
303.6000,1.45806,207.383,0.135357
303.5000,-0.950712,207.274,0.133795
303.4000,0.763232,208.166,0.146583
303.3000,0.762416,207.752,0.140658
303.2000,1.776,207.644,0.139098
303.1000,0.37987,207.918,0.143029
303.0000,0.853995,206.937,0.128941
302.9000,1.44974,207.059,0.130701
302.8000,2.9277,207.333,0.134641
302.7000,0.830089,208.189,0.146908
302.6000,0.288371,207.141,0.131874
302.5000,1.12074,207.779,0.141031
302.4000,1.36864,208.321,0.148805
302.3000,0.67157,208.469,0.150912
302.2000,0.620583,207.647,0.139147
302.1000,2.14789,207.29,0.134023
302.0000,0.0350341,207.602,0.138496
301.9000,0.767008,207.837,0.141876
301.8000,-1.09042,207.245,0.133372
301.7000,0.576581,206.727,0.125924
301.6000,1.50211,206.856,0.127783
301.5000,1.34631,207.167,0.132248
301.4000,0.530718,207.507,0.13713
301.3000,1.62364,206.805,0.12705
301.2000,1.72995,207.646,0.13913
301.1000,0.296348,207.464,0.136512
301.0000,1.84443,207.459,0.136447
300.9000,0.205619,207.299,0.134153
300.8000,0.709619,207.834,0.141827
300.7000,1.40744,207.643,0.139081
300.6000,1.5652,207.545,0.137683
300.5000,0.882098,207.992,0.144085
300.4000,0.228695,206.533,0.123133
300.3000,1.84774,207.363,0.135064
300.2000,1.60422,208.04,0.144783
300.1000,0.624602,207.445,0.136252
300.0000,1.58628,206.829,0.127392
299.9000,0.8285,207.947,0.143451
299.8000,0.840806,207.782,0.14108
299.7000,2.00167,207.577,0.138139
299.6000,0.656138,207.636,0.138984
299.5000,1.97603,207.221,0.13303
299.4000,0.553496,207.197,0.132688
299.3000,2.51097,206.963,0.129315
299.2000,-2.76035,207.857,0.142152
299.1000,0.592378,206.976,0.129511
299.0000,2.18822,206.688,0.125369
298.9000,1.16549,206.976,0.129511
298.8000,0.887019,207.261,0.1336
298.7000,-0.809416,207.271,0.133746
298.6000,2.65612,206.934,0.128908
298.5000,1.49031,206.938,0.128957
298.4000,1.1422,207.172,0.132329
298.3000,0.037312,207.712,0.140073
298.2000,2.40567,207.416,0.135829
298.1000,2.61445,207.379,0.135292
298.0000,1.37592,206.815,0.127196
297.9000,0.225932,206.528,0.123052
297.8000,0.122843,207.453,0.136366
297.7000,1.17345,206.894,0.128321
297.6000,0.92734,207.125,0.131646
297.5000,1.8138,207.187,0.132541
297.4000,-1.29408,207.033,0.130326
297.3000,1.74164,206.925,0.128778
297.2000,-1.08254,206.845,0.12762
297.1000,0.282384,206.627,0.124488
297.0000,0.594379,206.986,0.129658
296.9000,0.29414,206.767,0.126495
296.8000,1.58085,207.589,0.138318
296.7000,0.825398,207.006,0.129935
296.6000,3.17897,207.375,0.135243
296.5000,0.33856,206.853,0.127734
296.4000,2.22531,207.399,0.135585
296.3000,0.424707,207.323,0.134495
296.2000,0.996104,207.188,0.132557
296.1000,1.42567,207.575,0.138106
296.0000,1.90362,206.685,0.12532
295.9000,0.325465,206.696,0.125483
295.8000,1.34619,206.676,0.12519
295.7000,1.14884,206.8,0.126968
295.6000,1.03207,206.861,0.127848
295.5000,1.92309,207.041,0.13044
295.4000,0.488056,207.005,0.129919
295.3000,2.20013,207.071,0.13088
295.2000,0.645208,206.809,0.127098
295.1000,0.545292,206.174,0.117954
295.0000,1.56442,206.606,0.124178
294.9000,0.165979,206.414,0.121419
294.8000,0.95544,207.329,0.134576
294.7000,-0.362771,206.975,0.129495
294.6000,3.08628,206.655,0.12488
294.5000,0.492193,207.152,0.132037
294.4000,0.375255,207.3,0.134169
294.3000,0.263389,207.346,0.13482
294.2000,1.85258,207.33,0.134592
294.1000,-0.498002,207.248,0.133421
294.0000,1.81084,207.589,0.138318
293.9000,1.53248,207.993,0.144101
293.8000,2.85889,206.649,0.124798
293.7000,0.503888,206.892,0.128305
293.6000,1.62985,206.321,0.120079
293.5000,1.14367,207.775,0.140983
293.4000,0.647676,207.188,0.132557
293.3000,1.30586,207.548,0.137732
293.2000,0.699147,206.953,0.129169
293.1000,2.26444,207.245,0.133372
293.0000,0.830155,206.645,0.124749
292.9000,1.4869,207.828,0.141746
292.8000,1.67511,206.64,0.124667
292.7000,2.22734,206.648,0.124782
292.6000,0.70138,206.634,0.124586
292.5000,2.49491,206.834,0.127457
292.4000,2.35672,207.626,0.138838
292.3000,0.125705,207.041,0.13044
292.2000,-1.31972,206.602,0.124129
292.1000,3.09518,206.33,0.12021
292.0000,1.8293,206.5,0.12266
291.9000,-0.111502,206.312,0.119948
291.8000,1.47761,206.696,0.125483
291.7000,0.335425,207.546,0.1377
291.6000,1.74117,206.562,0.123541
291.5000,1.39196,206.749,0.126234
291.4000,1.15797,206.815,0.127196
291.3000,1.80928,206.293,0.11967
291.2000,1.66067,206.607,0.124194
291.1000,1.03618,206.975,0.129495
291.0000,-0.0669598,206.922,0.128729
290.9000,0.435175,207.068,0.130831
290.8000,0.725365,206.147,0.117561
290.7000,1.03863,206.403,0.121255
290.6000,0.559123,206.685,0.12532
290.5000,0.326173,206.912,0.128582
290.4000,1.75913,206.858,0.127816
290.3000,1.39667,207.069,0.130847
290.2000,-0.226167,206.925,0.128778
290.1000,-0.220266,206.651,0.124831
290.0000,1.9164,206.713,0.125728
289.9000,2.00373,206.936,0.128925
289.8000,2.05867,207.819,0.141617
289.7000,0.461087,207.013,0.130033
289.6000,0.241482,206.685,0.12532
289.5000,0.644652,207.24,0.133306
289.4000,1.22026,207.689,0.139748
289.3000,1.6835,207.791,0.14121
289.2000,1.03921,206.699,0.125516
289.1000,1.56407,206.504,0.122709
289.0000,0.17009,207.454,0.136382
288.9000,2.29054,206.35,0.120487
288.8000,2.15627,206.532,0.123117
288.7000,0.195614,207.584,0.138236
288.6000,0.438789,207.217,0.132965
288.5000,0.882019,207.018,0.130114
288.4000,-0.574461,207.79,0.141194
288.3000,0.0678756,207.573,0.13809
288.2000,2.08383,207.194,0.132639
288.1000,1.18414,207.505,0.137114
288.0000,0.835683,207.076,0.130945
287.9000,-0.615189,207.811,0.141503
287.8000,1.16985,207.283,0.133925
287.7000,-0.0304549,208.047,0.14488
287.6000,2.88588,207.757,0.140723
287.5000,0.900801,206.851,0.127702
287.4000,1.00552,207.756,0.140707
287.3000,1.89064,207.513,0.137228
287.2000,1.21984,207.449,0.136301
287.1000,0.93712,207.44,0.136171
287.0000,3.21446,207.117,0.131532
286.9000,0.590472,207.453,0.136366
286.8000,0.801702,207.442,0.136203
286.7000,-0.665724,207.308,0.134283
286.6000,0.747769,207.994,0.144117
286.5000,1.23835,207.681,0.139634
286.4000,0.909144,208.428,0.150329
286.3000,1.41132,207.752,0.140658
286.2000,2.70825,207.551,0.137765
286.1000,-0.147573,207.977,0.143873
286.0000,1.98357,208.386,0.149729
285.9000,-0.0204347,207.818,0.1416
285.8000,1.56023,207.109,0.131417
285.7000,2.49591,207.257,0.133551
285.6000,1.74551,207.658,0.139309
285.5000,1.13684,207.997,0.144166
285.4000,2.02428,208.501,0.151382
285.3000,0.683943,208.308,0.148611
285.2000,-1.90188,207.621,0.138773
285.1000,-1.35358,207.282,0.133909
285.0000,1.82091,207.858,0.142168
284.9000,-0.57679,207.121,0.131597
284.8000,1.40228,207.109,0.131417
284.7000,1.3107,207.705,0.139975
284.6000,0.414116,208.071,0.145221
284.5000,-0.495718,206.734,0.126022
284.4000,2.77106,207.791,0.14121
284.3000,1.15964,207.272,0.133762
284.2000,1.74801,208.015,0.144425
284.1000,-0.481043,207.637,0.139
284.0000,0.584385,207.451,0.136334
283.9000,0.644599,207.528,0.137439
283.8000,1.16147,207.701,0.139927
283.7000,1.86052,207.925,0.143127
283.6000,0.00365236,207.907,0.142867
283.5000,3.12273,207.631,0.138919
283.4000,2.39684,207.614,0.138675
283.3000,0.965339,208.141,0.146226
283.2000,2.90651,207.527,0.137423
283.1000,0.831363,208.108,0.145756
283.0000,1.21761,207.13,0.131727
282.9000,0.583055,207.972,0.143809
282.8000,1.75332,207.959,0.143614
282.7000,0.968157,208.002,0.144231
282.6000,0.773278,207.127,0.131678
282.5000,1.21796,207.439,0.136154
282.4000,1.97914,207.722,0.140219
282.3000,-1.31071,206.997,0.129804
282.2000,1.53521,208.158,0.14647
282.1000,1.01534,207.873,0.14238
282.0000,0.440891,207.921,0.143078
281.9000,0.418201,207.664,0.13939
281.8000,1.48781,207.522,0.137358
281.7000,2.65417,207.587,0.138285
281.6000,0.84366,207.825,0.141698
281.5000,1.29014,207.258,0.133567
281.4000,0.539195,207.193,0.132623
281.3000,-0.443777,207.026,0.130228
281.2000,-0.792048,207.879,0.142477
281.1000,1.14702,207.417,0.135846
281.0000,1.03527,206.886,0.128207
280.9000,1.67221,207.781,0.141064
280.8000,0.904895,208.699,0.154199
280.7000,1.32424,208.057,0.145026
280.6000,1.884,207.621,0.138773
280.5000,0.996893,207.569,0.138025
280.4000,-0.0897163,208.095,0.145561
280.3000,1.38333,207.036,0.130375
280.2000,0.816563,207.433,0.136073
280.1000,0.487613,207.709,0.14004
280.0000,1.33317,207.944,0.143403
279.9000,2.13747,207.67,0.139472
279.8000,1.58153,208.055,0.144993
279.7000,0.913111,207.622,0.138789
279.6000,0.870546,208.257,0.147881
279.5000,1.15949,208.389,0.149778
279.4000,0.103496,208.339,0.149064
279.3000,0.237471,207.185,0.132509
279.2000,0.258625,207.215,0.132948
279.1000,2.30504,207.708,0.140024
279.0000,-0.613213,208.634,0.153276
278.9000,0.843576,208.175,0.146713
278.8000,0.994253,206.943,0.129039
278.7000,-1.26776,207.713,0.140089
278.6000,0.238402,207.624,0.138821
278.5000,0.739998,207.655,0.13926
278.4000,0.863589,208.234,0.147557
278.3000,0.552446,207.812,0.141519
278.2000,0.828579,208.08,0.145351
278.1000,2.54246,207.172,0.132329
278.0000,2.41102,207.794,0.141259
277.9000,-1.15799,207.969,0.14376
277.8000,0.527302,207.726,0.140284
277.7000,-0.35508,207.863,0.14225
277.6000,1.66061,208.236,0.147589
277.5000,-0.855194,208.155,0.146421
277.4000,1.09019,207.578,0.138155
277.3000,1.81813,208.19,0.146924
277.2000,0.246763,208.222,0.147378
277.1000,1.17336,207.252,0.133469
277.0000,1.49669,207.124,0.131629
276.9000,0.430252,207.505,0.137114
276.8000,0.3785,208.019,0.144474
276.7000,1.19205,207.224,0.133079
276.6000,0.5236,207.652,0.139212
276.5000,0.260136,207.639,0.139033
276.4000,2.08423,207.372,0.135195
276.3000,-0.490842,208.324,0.148838
276.2000,1.58565,208.381,0.149664
276.1000,-0.228825,207.972,0.143809
276.0000,1.13451,208.295,0.148432
275.9000,0.269617,206.926,0.128794
275.8000,1.00825,208.063,0.145107
275.7000,-0.507689,207.664,0.13939
275.6000,1.18614,207.368,0.135146
275.5000,0.0578237,208.125,0.146
275.4000,1.14042,207.85,0.142055
275.3000,1.47764,208.066,0.145156
275.2000,0.218637,207.789,0.141178
275.1000,0.83478,207.447,0.136268
275.0000,0.695595,207.521,0.137342
274.9000,-1.02767,208.259,0.147913
274.8000,0.0205476,208.263,0.147978
274.7000,-0.191589,207.315,0.134381
274.6000,1.5061,207.66,0.139325
274.5000,0.740387,208.347,0.149178
274.4000,0.151444,208.202,0.147102
274.3000,-0.0520325,207.706,0.139992
274.2000,-0.868913,208.352,0.149243
274.1000,0.46418,207.396,0.135536
274.0000,0.323629,207.716,0.140138
273.9000,1.70562,207.377,0.135276
273.8000,1.31883,208.482,0.151106
273.7000,0.737315,208.218,0.14733
273.6000,3.32314,208.114,0.145837
273.5000,0.880234,207.972,0.143809
273.4000,-0.000886175,208.512,0.151528
273.3000,2.09554,207.691,0.13978
273.2000,0.324193,207.513,0.137228
273.1000,0.666213,207.006,0.129935
273.0000,-0.377411,207.89,0.142623
272.9000,1.15296,207.994,0.144117
272.8000,0.688806,207.11,0.131434
272.7000,1.88977,207.874,0.142396
272.6000,0.122314,207.67,0.139472
272.5000,0.52837,208.183,0.146827
272.4000,1.83497,207.929,0.143192
272.3000,1.1221,207.696,0.139846
272.2000,2.54109,207.64,0.139049
272.1000,1.12381,207.426,0.135976
272.0000,-0.201601,207.538,0.137586
271.9000,1.09036,208.173,0.146681
271.8000,0.512934,208.787,0.155462
271.7000,-0.128874,208.594,0.15271
271.6000,0.160932,207.527,0.137423
271.5000,1.92237,208.904,0.157128
271.4000,-0.32118,207.643,0.139081
271.3000,1.42975,207.998,0.144182
271.2000,2.1255,207.79,0.141194
271.1000,1.60714,208.493,0.151268
271.0000,2.08625,207.005,0.129919
270.9000,-0.760411,208.675,0.153859
270.8000,1.07746,207.862,0.142234
270.7000,-0.487177,209.308,0.162897
270.6000,-0.0317633,207.841,0.141925
270.5000,-1.52671,207.462,0.136496
270.4000,-0.224186,208.507,0.151463
270.3000,1.19626,209.561,0.166497
270.2000,0.409244,208.994,0.158422
270.1000,0.808037,208.252,0.147816
270.0000,0.4833,207.701,0.139927
269.9000,1.1797,208.012,0.144377
269.8000,-0.972491,208.616,0.153017
269.7000,1.59101,207.121,0.131597
269.6000,1.22545,207.745,0.140544
269.5000,2.09036,208.821,0.155947
269.4000,0.968113,209.082,0.159666
269.3000,1.41751,208.831,0.156093
269.2000,1.16061,208.856,0.156449
269.1000,-0.654688,208.802,0.155672
269.0000,1.40872,208.673,0.153827
268.9000,1.49726,208.418,0.150183
268.8000,-1.1481,208.096,0.145577
268.7000,1.52841,208.978,0.158195
268.6000,0.037757,208.277,0.148173
268.5000,1.13897,208.336,0.149016
268.4000,2.42519,209.309,0.162914
268.3000,1.22605,207.99,0.144068
268.2000,0.34466,208.206,0.147151
268.1000,0.680431,208.398,0.149907
268.0000,1.75038,208.456,0.150734
267.9000,0.777561,208.266,0.14801
267.8000,0.166749,208.275,0.14814
267.7000,-0.00024082,208.947,0.157743
267.6000,1.69966,208.491,0.151236
267.5000,-0.784873,208.307,0.148594
267.4000,0.436126,209.663,0.167948
267.3000,1.35847,209.185,0.161137
267.2000,1.66243,208.865,0.156578
267.1000,0.169082,207.729,0.140317
267.0000,0.536827,208.691,0.154086
266.9000,3.21222,208.193,0.146973
266.8000,0.391544,209.119,0.1602
266.7000,0.348122,208.899,0.157063
266.6000,1.61458,209.308,0.162897
266.5000,-0.382101,208.891,0.15695
266.4000,-0.0284319,209.256,0.162154
266.3000,1.37556,209.099,0.159909
266.2000,1.70429,209.421,0.164512
266.1000,-0.34387,208.908,0.157193
266.0000,1.20099,209.033,0.158971
265.9000,0.494714,209.308,0.162897
265.8000,-0.227049,209.234,0.161848
265.7000,-0.888717,209.809,0.170028
265.6000,0.453483,209.709,0.168609
265.5000,-0.359482,210.215,0.175793
265.4000,0.717614,209.024,0.158842
265.3000,0.592221,208.708,0.154329
265.2000,0.837089,208.666,0.15373
265.1000,2.31462,209.657,0.167868
265.0000,0.959415,209.622,0.167368
264.9000,0.936844,209.194,0.161266
264.8000,1.62207,209.099,0.159909
264.7000,-0.106083,209.708,0.168593
264.6000,0.864249,209.197,0.161315
264.5000,0.356117,209.45,0.164915
264.4000,0.101032,208.745,0.154863
264.3000,-0.042905,208.913,0.157257
264.2000,1.84374,209.462,0.165093
264.1000,-1.03478,209.538,0.166174
264.0000,3.32657,209.519,0.1659
263.9000,-0.718868,209.291,0.162655
263.8000,-0.623003,209.407,0.164302
263.7000,-0.184723,209.753,0.169238
263.6000,1.30249,209.591,0.166932
263.5000,2.33547,209.347,0.163446
263.4000,-1.21316,208.87,0.156643
263.3000,0.589513,209.471,0.165222
263.2000,0.198657,209.466,0.165141
263.1000,0.661008,209.717,0.168722
263.0000,0.378086,210.046,0.173395
262.9000,0.189867,209.547,0.166303
262.8000,-0.154298,209.454,0.16498
262.7000,-0.0497522,209.603,0.167093
262.6000,-1.05829,209.888,0.171156
262.5000,0.626211,209.048,0.159181
262.4000,0.559954,210.228,0.175986
262.3000,-0.0337705,209.445,0.164851
262.2000,2.27004,209.877,0.170995
262.1000,-0.167352,210.377,0.178093
262.0000,-0.181578,210.483,0.179605
261.9000,0.720214,210.199,0.175568
261.8000,-0.226141,210.371,0.178013
261.7000,0.860515,210.232,0.176034
261.6000,-0.187134,209.535,0.166126
261.5000,0.609258,210.27,0.176581
261.4000,-0.425917,210.099,0.174151
261.3000,-0.0898466,210.6,0.18126
261.2000,0.0128892,209.93,0.171752
261.1000,-0.832182,210.11,0.174312
261.0000,1.28599,210.04,0.173314
260.9000,0.596835,210.315,0.177225
260.8000,3.13541,210.321,0.177305
260.7000,0.428503,210.516,0.180071
260.6000,0.770504,209.559,0.166465
260.5000,1.46461,210.863,0.184985
260.4000,1.17915,210.829,0.184504
260.3000,-0.584517,209.927,0.171704
260.2000,0.935852,210.196,0.175536
260.1000,0.550752,210.432,0.178881
260.0000,-0.00602259,210.591,0.181131
259.9000,0.266088,211.59,0.195275
259.8000,1.99556,210.673,0.182304
259.7000,0.0522678,210.915,0.185724
259.6000,-1.10868,210.762,0.183557
259.5000,0.604154,211.134,0.188819
259.4000,0.752336,211.041,0.187504
259.3000,0.138968,211.566,0.194939
259.2000,-0.584533,211.177,0.189428
259.1000,0.608928,211.247,0.190422
259.0000,-0.0117266,210.48,0.179556
258.9000,0.679779,210.743,0.183284
258.8000,-0.666932,210.909,0.185643
258.7000,-0.133683,209.687,0.168287
258.6000,1.86795,210.87,0.185082
258.5000,-0.677669,210.9,0.185515
258.4000,1.37493,210.846,0.184745
258.3000,-0.68088,209.835,0.170398
258.2000,0.770907,210.3,0.177
258.1000,2.0358,211.158,0.189172
258.0000,1.44636,211.39,0.192441
257.9000,2.72442,211,0.186927
257.8000,-0.494602,210.726,0.183043
257.7000,-0.388286,211.211,0.189909
257.6000,0.070952,210.897,0.185467
257.5000,1.59081,210.702,0.182705
257.4000,1.12069,210.845,0.184729
257.3000,0.27452,210.836,0.1846
257.2000,1.08069,212.168,0.203428
257.1000,1.22808,211.945,0.200281
257.0000,0.274276,211.503,0.194042
256.9000,-0.550381,211.036,0.18744
256.8000,-0.561443,212.196,0.203827
256.7000,0.672637,210.433,0.178897
256.6000,1.47253,211.862,0.199114
256.5000,1.78543,212.11,0.202614
256.4000,0.276157,211.997,0.201016
256.3000,0.636047,211.49,0.193866
256.2000,-0.264465,210.624,0.181597
256.1000,1.49449,212.115,0.202678
256.0000,0.18567,211.66,0.196267
255.9000,-0.998333,211.238,0.190294
255.8000,1.02347,211.669,0.196395
255.7000,-0.345082,212.576,0.209172
255.6000,-1.31137,211.384,0.192361
255.5000,0.10528,211.943,0.200249
255.4000,0.632111,212.397,0.206653
255.3000,0.692771,212.115,0.202678
255.2000,-0.0344244,211.236,0.190262
255.1000,-0.0392987,211.791,0.198107
255.0000,0.0213297,212.214,0.204083
254.9000,2.72942,211.58,0.195131
254.8000,3.50847,212.322,0.205599
254.7000,0.490059,212.362,0.206158
254.6000,-0.203928,212.361,0.206142
254.5000,1.01859,212.201,0.203891
254.4000,0.734745,211.907,0.199753
254.3000,0.216412,212.159,0.203301
254.2000,1.80047,212.446,0.207338
254.1000,0.368172,212.561,0.208965
254.0000,1.13268,212.537,0.20863
253.9000,1.75571,211.781,0.197963
253.8000,0.434735,211.718,0.197083
253.7000,1.28694,211.928,0.200041
253.6000,1.59649,212.658,0.21032
253.5000,-0.62126,212.478,0.207801
253.4000,1.33326,212.254,0.204642
253.3000,-0.660433,212.756,0.211707
253.2000,1.46788,212.345,0.205918
253.1000,-0.893605,212.188,0.203716
253.0000,0.520227,212.501,0.20812
252.9000,0.695294,213.895,0.227684
252.8000,1.13882,213.786,0.226161
252.7000,-1.35654,212.533,0.208567
252.6000,0.831287,212.372,0.206301
252.5000,2.43941,212.375,0.206349
252.4000,1.89634,212.088,0.202294
252.3000,-0.826181,212.945,0.214366
252.2000,-0.0449314,212.807,0.212423
252.1000,0.751796,212.798,0.212296
252.0000,0.251783,212.702,0.210942
251.9000,1.72565,212.49,0.207961
251.8000,1.22389,212.714,0.211117
251.7000,0.0253544,214.084,0.230332
251.6000,1.52686,213.111,0.21669
251.5000,2.19036,213.086,0.21634
251.4000,-1.98802,212.846,0.212965
251.3000,0.357012,212.638,0.210049
251.2000,1.4761,213.719,0.225224
251.1000,-0.594343,213.144,0.217151
251.0000,-0.279784,213.459,0.221571
250.9000,1.491,213.444,0.221365
250.8000,0.255208,213.156,0.217327
250.7000,1.28156,213.265,0.218853
250.6000,-0.468254,212.987,0.214955
250.5000,0.166522,213.821,0.226652
250.4000,0.145205,213.643,0.22416
250.3000,-0.0450757,213.981,0.228889
250.2000,0.0609056,214.007,0.229254
250.1000,1.82404,214.136,0.231061
250.0000,1.38457,213.266,0.218869
249.9000,-1.4202,213.365,0.220252
249.8000,-0.426696,214.402,0.234783
249.7000,-0.55919,213.709,0.225081
249.6000,-0.823427,213.865,0.227271
249.5000,-0.470561,213.72,0.22524
249.4000,0.597639,213.726,0.225319
249.3000,-1.78602,213.538,0.222683
249.2000,-1.03039,214.279,0.233057
249.1000,2.19072,213.939,0.228302
249.0000,-0.541082,213.568,0.223112
248.9000,-0.152452,213.638,0.224081
248.8000,-0.932246,214.262,0.23282
248.7000,-0.991913,213.365,0.220252
248.6000,0.243829,214.418,0.235005
248.5000,-0.845537,213.391,0.220618
248.4000,2.57818,213.781,0.226097
248.3000,-0.956831,214.358,0.234166
248.2000,0.775098,214.209,0.232075
248.1000,-0.54402,214.492,0.236033
248.0000,-1.36583,213.902,0.227779
247.9000,1.1866,213.568,0.223112
247.8000,0.860457,215.175,0.245564
247.7000,-1.47585,214.24,0.232518
247.6000,0.145449,214.302,0.233374
247.5000,-1.2452,214.067,0.230094
247.4000,-2.93315,214.789,0.240178
247.3000,1.56301,214.356,0.234134
247.2000,0.855514,214.047,0.229809
247.1000,-2.77855,214.536,0.236651
247.0000,-1.29843,214.481,0.235875
246.9000,0.0300029,214.393,0.234656
246.8000,-1.66913,214.799,0.24032
246.7000,-0.0475148,214.598,0.237521
246.6000,-0.00897853,214.524,0.236477
246.5000,-0.578258,214.656,0.238328
246.4000,-1.06193,214.646,0.238185
246.3000,-0.881969,215.281,0.247032
246.2000,-1.22461,215.215,0.246117
246.1000,-1.22224,214.978,0.242817
246.0000,-1.75174,215.419,0.248957
245.9000,-1.50521,215.737,0.253385
245.8000,-0.317102,214.943,0.242327
245.7000,-1.04355,215.337,0.247821
245.6000,-2.2961,215.53,0.250502
245.5000,-1.69892,215.727,0.253243
245.4000,-1.35255,215.771,0.253858
245.3000,-2.6766,215.79,0.254126
245.2000,1.30122,215.856,0.255039
245.1000,-0.457958,215.165,0.245422
245.0000,-0.821336,215.384,0.248468
244.9000,-0.76783,215.6,0.251479
244.8000,-2.42692,215.799,0.254251
244.7000,-2.54993,215.458,0.249508
244.6000,-2.34564,215.518,0.250344
244.5000,-2.21109,216.824,0.268459
244.4000,-1.388,216.185,0.259601
244.3000,-2.49526,216.782,0.267879
244.2000,-2.74379,215.627,0.251857
244.1000,-2.50131,215.575,0.251132
244.0000,-2.1857,215.847,0.254913
243.9000,-2.57878,216.611,0.265509
243.8000,-1.9889,215.651,0.252188
243.7000,-1.18499,215.805,0.25433
243.6000,-3.31138,216.485,0.263766
243.5000,-1.03819,216.553,0.264708
243.4000,-4.36667,216.86,0.268961
243.3000,-0.157576,217.327,0.275417
243.2000,-2.75496,217.174,0.273303
243.1000,-2.91411,217.604,0.279251
243.0000,-1.49476,216.307,0.261299
242.9000,-2.61514,216.793,0.268036
242.8000,-4.77982,216.238,0.260341
242.7000,-1.20001,216.792,0.26802
242.6000,-4.68038,216.947,0.270169
242.5000,-3.86882,216.618,0.265603
242.4000,-3.94431,217.211,0.27382
242.3000,-4.3256,217.442,0.277014
242.2000,-3.98967,217.719,0.28083
242.1000,-3.90754,217.778,0.281643
242.0000,-1.61516,217.419,0.276685
241.9000,-2.86731,217.204,0.273726
241.8000,-5.47236,217.411,0.276576
241.7000,-6.22665,218.752,0.295059
241.6000,-5.18044,217.697,0.280533
241.5000,-3.88068,217.55,0.2785
241.4000,-4.16646,218.696,0.294281
241.3000,-6.3032,218.491,0.29146
241.2000,-4.92075,217.9,0.28333
241.1000,-6.04322,218.673,0.293969
241.0000,-6.19503,218.57,0.292551
240.9000,-5.42798,218.037,0.28522
240.8000,-4.84953,218.055,0.28547
240.7000,-7.32164,218.817,0.295947
240.6000,-5.71493,219.109,0.299961
240.5000,-6.91037,218.843,0.296305
240.4000,-7.04093,218.481,0.291336
240.3000,-5.10769,219.472,0.304934
240.2000,-5.49847,219.713,0.30824
240.1000,-7.5016,219.592,0.30658
240.0000,-6.98446,219.709,0.308178
239.9000,-8.13779,219.821,0.309714
239.8000,-6.15707,220.699,0.321714
239.7000,-6.0737,219.868,0.310365
239.6000,-6.48226,220.819,0.323352
239.5000,-9.42877,219.89,0.31066
239.4000,-5.82252,220.87,0.324048
239.3000,-8.34714,220.198,0.314875
239.2000,-7.71966,221.003,0.325855
239.1000,-7.54531,221.39,0.331132
239.0000,-8.30633,220.502,0.319023
238.9000,-9.40051,221.145,0.3278
238.8000,-8.92754,220.7,0.32173
238.7000,-9.58265,221.874,0.33771
238.6000,-11.4781,221.969,0.339002
238.5000,-11.8039,221.311,0.330052
238.4000,-11.3278,221.69,0.335216
238.3000,-11.163,222.698,0.348882
238.2000,-9.99925,220.848,0.323754
238.1000,-14.2102,222.946,0.352241
238.0000,-9.43942,222.628,0.347946
237.9000,-13.7315,221.931,0.338479
237.8000,-10.3993,222.809,0.350385
237.7000,-13.592,222.908,0.351735
237.6000,-10.1626,223.929,0.365523
237.5000,-11.831,223.153,0.355045
237.4000,-13.4396,223.07,0.353927
237.3000,-13.9994,224.327,0.37088
237.2000,-13.4554,224.12,0.368088
237.1000,-15.6651,224.037,0.366974
237.0000,-13.5685,223.99,0.366348
236.9000,-15.9543,223.641,0.361641
236.8000,-12.8648,224.6,0.374555
236.7000,-14.0841,225.439,0.385813
236.6000,-15.2483,226.14,0.395203
236.5000,-14.2124,224.453,0.372573
236.4000,-15.8734,225.449,0.385949
236.3000,-17.9612,226.023,0.393642
236.2000,-17.2941,225.785,0.390458
236.1000,-17.2414,226.355,0.398081
236.0000,-17.9505,225.676,0.389001
235.9000,-16.5029,225.471,0.386253
235.8000,-18.0384,225.654,0.388698
235.7000,-18.8876,225.991,0.393218
235.6000,-16.9733,225.869,0.39158
235.5000,-17.6968,227.29,0.410549
235.4000,-16.0627,225.681,0.389062
235.3000,-19.3656,228.116,0.421532
235.2000,-18.7145,227.279,0.410398
235.1000,-20.2136,228.006,0.420073
235.0000,-18.261,227.625,0.415013
234.9000,-17.4927,228.446,0.425907
234.8000,-21.3823,226.458,0.399458
234.7000,-20.2088,228.209,0.422765
234.6000,-22.1665,228.688,0.429121
234.5000,-19.5457,227.998,0.419967
234.4000,-21.7029,228.58,0.427694
234.3000,-20.4817,228.909,0.432047
234.2000,-22.1915,229.105,0.434641
234.1000,-20.7547,229.25,0.436559
234.0000,-22.2668,229.227,0.436259
233.9000,-25.258,229.604,0.44123
233.8000,-22.8706,229.627,0.441544
233.7000,-25.6712,231.236,0.462728
233.6000,-27.124,231.012,0.459781
233.5000,-24.9453,229.941,0.445686
233.4000,-24.7863,231.273,0.463204
233.3000,-26.3597,229.674,0.442158
233.2000,-24.6893,231.919,0.471672
233.1000,-26.568,231.58,0.467232
233.0000,-25.4744,231.405,0.464944
232.9000,-28.0538,231.649,0.468138
232.8000,-28.5308,232.088,0.473897
232.7000,-30.5981,231.717,0.46903
232.6000,-27.4576,231.892,0.471331
232.5000,-30.6105,232.654,0.48129
232.4000,-29.4912,233.252,0.489096
232.3000,-28.8503,232.662,0.481393
232.2000,-27.255,232.767,0.482769
232.1000,-31.9341,234.024,0.49914
232.0000,-27.9516,233.331,0.49013
231.9000,-34.1306,233.87,0.497136
231.8000,-32.7713,234.817,0.509435
231.7000,-33.1743,235.024,0.512122
231.6000,-34.0155,234.085,0.499935
231.5000,-33.4066,234.69,0.50779
231.4000,-35.2454,234.482,0.505085
231.3000,-33.7124,234.723,0.508216
231.2000,-30.2332,234.872,0.510155
231.1000,-32.7355,237.201,0.540209
231.0000,-35.4938,233.841,0.496768
230.9000,-33.104,235.953,0.524137
230.8000,-37.2858,236.685,0.533576
230.7000,-34.491,237.463,0.543572
230.6000,-37.2555,236.751,0.534422
230.5000,-37.9903,236.92,0.536595
230.4000,-37.3508,237.099,0.538898
230.3000,-37.1266,236.575,0.53216
230.2000,-38.2019,237.186,0.540019
230.1000,-37.2511,236.884,0.536128
230.0000,-37.8371,236.72,0.534028
229.9000,-41.5532,238.29,0.554179
229.8000,-38.3785,237.441,0.543295
229.7000,-38.8698,238.028,0.550826
229.6000,-40.2868,237.843,0.548458
229.5000,-40.2753,238.699,0.559414
229.4000,-42.2722,240.6,0.583648
229.3000,-43.0383,238.716,0.559631
229.2000,-42.616,240.146,0.577871
229.1000,-41.9281,239.719,0.572432
229.0000,-39.1693,239.586,0.570742
228.9000,-42.1395,240.778,0.585907
228.8000,-43.71,241.192,0.591154
228.7000,-43.9297,240.258,0.579298
228.6000,-44.6274,241.348,0.593137
228.5000,-45.7134,240.934,0.587892
228.4000,-43.7064,241.11,0.59012
228.3000,-49.0968,242.118,0.602887
228.2000,-44.9411,242.141,0.603174
228.1000,-47.5283,241.145,0.590566
228.0000,-47.0485,242.364,0.605993
227.9000,-47.932,243.36,0.618549
227.8000,-45.5003,243.428,0.619404
227.7000,-45.8846,243.501,0.620317
227.6000,-49.0946,243.483,0.620089
227.5000,-46.6259,243.62,0.621813
227.4000,-43.8087,243.078,0.614996
227.3000,-50.1459,243.948,0.625942
227.2000,-49.649,244.165,0.62866
227.1000,-46.8752,245.137,0.640841
227.0000,-48.2952,245.495,0.645317
226.9000,-49.7661,245.512,0.64553
226.8000,-51.6212,245.586,0.64645
226.7000,-51.8352,245.606,0.646704
226.6000,-50.0999,245.596,0.646577
226.5000,-49.9447,247.327,0.668139
226.4000,-48.9657,245.417,0.64434
226.3000,-51.4633,245.582,0.646407
226.2000,-52.8654,245.269,0.642499
226.1000,-50.9636,247.874,0.674929
226.0000,-52.1159,246.89,0.662704
225.9000,-52.112,247.472,0.66994
225.8000,-52.4256,247.269,0.667421
225.7000,-54.1294,247.519,0.670516
225.6000,-53.2863,248.024,0.676782
225.5000,-51.9783,247.726,0.673089
225.4000,-53.5061,248.051,0.677119
225.3000,-54.0641,249.06,0.68959
225.2000,-51.9067,249.207,0.691408
225.1000,-56.8455,249.777,0.698435
225.0000,-55.1294,250.218,0.70386
224.9000,-54.9827,248.971,0.688499
224.8000,-53.053,249.639,0.696732
224.7000,-54.6998,250.48,0.707092
224.6000,-55.2624,250.053,0.701838
224.5000,-56.1703,250.078,0.702145
224.4000,-55.6928,251.092,0.714603
224.3000,-53.5505,251.047,0.714047
224.2000,-57.1579,250.789,0.710877
224.1000,-57.0394,250.636,0.708998
224.0000,-52.9274,252.822,0.73576
223.9000,-56.9432,251.669,0.721669
223.8000,-57.5691,252.441,0.731101
223.7000,-56.8203,252.276,0.729095
223.6000,-56.6422,252.869,0.736327
223.5000,-56.6745,253.371,0.742442
223.4000,-55.762,253.004,0.73797
223.3000,-55.3429,253.932,0.749262
223.2000,-56.0558,253.747,0.747017
223.1000,-58.6438,253.493,0.743931
223.0000,-55.7624,254.153,0.751946
222.9000,-60.466,254.736,0.759024
222.8000,-56.5599,254.631,0.757746
222.7000,-61.1491,255.689,0.770553
222.6000,-55.1997,254.576,0.757087
222.5000,-58.1835,255.687,0.770526
222.4000,-56.4763,255.512,0.768417
222.3000,-58.5093,256.242,0.777227
222.2000,-58.2901,256.171,0.776366
222.1000,-58.9657,256.946,0.785702
222.0000,-56.9369,255.95,0.7737
221.9000,-57.8119,256.502,0.780355
221.8000,-57.1547,257.454,0.791818
221.7000,-59.2996,257.677,0.794485
221.6000,-57.6437,258.233,0.801157
221.5000,-56.1675,257.339,0.79043
221.4000,-59.7575,258.813,0.808101
221.3000,-59.3164,258.584,0.805363
221.2000,-58.7992,259.12,0.811772
221.1000,-56.3901,258.676,0.806461
221.0000,-60.8793,259.034,0.810743
220.9000,-57.4114,259.278,0.813653
220.8000,-58.7677,261.23,0.836894
220.7000,-56.2174,259.256,0.813396
220.6000,-58.2803,259.531,0.816683
220.5000,-56.2559,260.63,0.829774
220.4000,-61.5019,261.362,0.838467
220.3000,-57.5114,261.794,0.843585
220.2000,-59.7113,262.068,0.846831
220.1000,-59.8947,262.199,0.848373
220.0000,-56.1074,263.247,0.860753
219.9000,-60.4206,262.481,0.85171
219.8000,-55.0875,262.551,0.85254
219.7000,-59.0297,262.959,0.857358
219.6000,-55.1126,262.542,0.852433
219.5000,-55.199,262.346,0.850116
219.4000,-58.815,262.779,0.855231
219.3000,-55.3317,264.425,0.874623
219.2000,-58.4229,264.993,0.881287
219.1000,-55.6922,264.237,0.872413
219.0000,-61.1249,263.391,0.86245
218.9000,-60.0739,264.295,0.873092
218.8000,-60.1892,265.438,0.886505
218.7000,-56.1475,264.933,0.880582
218.6000,-57.6785,265.811,0.890868
218.5000,-57.6459,265.849,0.891319
218.4000,-56.1796,265.752,0.890179
218.3000,-58.3137,266.405,0.897807
218.2000,-57.3356,266.226,0.895716
218.1000,-54.3859,265.897,0.891876
218.0000,-57.993,266.264,0.896167
217.9000,-56.5684,267.908,0.915322
217.8000,-56.9454,267.781,0.913847
217.7000,-56.6146,267.95,0.915809
217.6000,-58.9244,269.011,0.928113
217.5000,-57.5391,270.206,0.941933
217.4000,-57.2881,268.418,0.921243
217.3000,-59.0391,270.008,0.939644
217.2000,-58.5111,269.795,0.937183
217.1000,-56.1935,270.013,0.939709
217.0000,-59.794,270.067,0.940324
216.9000,-56.2288,270.828,0.949104
216.8000,-54.4583,270.793,0.948699
216.7000,-53.6353,272.006,0.962652
216.6000,-57.2282,271.715,0.959308
216.5000,-58.7959,272.12,0.963952
216.4000,-57.1398,272.52,0.968538
216.3000,-59.0313,273.103,0.975218
216.2000,-54.0673,272.608,0.96955
216.1000,-52.0754,272.932,0.97326
216.0000,-58.8914,272.826,0.972041
215.9000,-58.2156,273.641,0.981369
215.8000,-56.5403,273.389,0.978482
215.7000,-57.8111,274.157,0.987251
215.6000,-60.3443,274.893,0.995639
215.5000,-54.3314,275.025,0.997133
215.4000,-57.6951,273.912,0.98446
215.3000,-55.6793,275.342,1.00074
215.2000,-57.0004,275.483,1.00234
215.1000,-56.3332,275.535,1.00293
215.0000,-59.3906,275.986,1.00804
214.9000,-57.4766,276.922,1.01864
214.8000,-54.5668,276.44,1.01319
214.7000,-54.5021,277.176,1.02151
214.6000,-60.3714,277.927,1.02999
214.5000,-57.2112,277.684,1.02725
214.4000,-58.1638,278.699,1.03869
214.3000,-54.5736,278.663,1.03828
214.2000,-53.2815,279.884,1.05198
214.1000,-56.665,278.791,1.03972
214.0000,-59.4902,279.582,1.0486
213.9000,-53.1927,279.608,1.04889
213.8000,-57.5874,279.222,1.04456
213.7000,-54.4494,279.688,1.04978
213.6000,-56.1613,281.293,1.06774
213.5000,-56.4928,281.298,1.0678
213.4000,-56.3694,281.573,1.07087
213.3000,-59.8001,282.435,1.08047
213.2000,-55.3888,281.498,1.07003
213.1000,-56.6743,282.884,1.08546
213.0000,-57.3029,283.72,1.09473
212.9000,-61.3256,283.771,1.0953
212.8000,-58.4493,283.634,1.09378
212.7000,-56.505,284.341,1.10161
212.6000,-55.7267,284.598,1.10445
212.5000,-60.0169,285.798,1.11769
212.4000,-56.0538,284.374,1.10197
212.3000,-54.5074,285.812,1.11784
212.2000,-58.6671,286.907,1.12989
212.1000,-53.1866,287.069,1.13167
212.0000,-55.3753,287.339,1.13463
211.9000,-61.3445,287.906,1.14083
211.8000,-57.1558,288.596,1.14838
211.7000,-55.2391,289.651,1.15989
211.6000,-57.1138,289.036,1.15319
211.5000,-61.4744,289.204,1.15502
211.4000,-68.3985,290.392,1.16795
211.3000,-57.258,290.531,1.16946
211.2000,-60.7854,290.781,1.17218
211.1000,-59.1475,292.037,1.18579
211.0000,-58.5727,292.2,1.18755
210.9000,-62.8132,292.625,1.19214
210.8000,-57.8147,293.281,1.19922
210.7000,-63.2668,293.374,1.20022
210.6000,-59.4755,294.594,1.21335
210.5000,-60.2179,294.65,1.21395
210.4000,-57.7342,295.136,1.21916
210.3000,-59.6353,294.919,1.21684
210.2000,-67.4162,295.605,1.22419
210.1000,-61.8214,296.585,1.23467
210.0000,-63.6276,297.405,1.24342
209.9000,-56.7509,297.965,1.24938
209.8000,-68.4448,298.495,1.25502
209.7000,-59.4287,298.971,1.26007
209.6000,-65.4185,299.3,1.26355
209.5000,-64.1645,301.319,1.28489
209.4000,-67.8976,300.827,1.27971
209.3000,-60.5045,302.456,1.29686
209.2000,-57.5659,302.282,1.29503
209.1000,-62.1802,303.329,1.30602
209.0000,-60.4321,303.449,1.30728
208.9000,-63.533,303.071,1.30331
208.8000,-66.3279,304.893,1.32237
208.7000,-63.9801,304.589,1.3192
208.6000,-62.4011,307.022,1.34453
208.5000,-61.0481,306.633,1.34049
208.4000,-62.6873,306.09,1.33485
208.3000,-63.7064,307.444,1.34891
208.2000,-61.3309,308.789,1.36282
208.1000,-52.9113,308.955,1.36453
208.0000,-63.7853,309.207,1.36714
207.9000,-56.7069,311.944,1.39526
207.8000,-58.5615,312.195,1.39783
207.7000,-57.8136,312.569,1.40166
207.6000,-58.7945,314.03,1.41656
207.5000,-60.7035,314.83,1.42469
207.4000,-56.2431,314.841,1.42481
207.3000,-53.3904,315.816,1.43471
207.2000,-54.2785,317.548,1.45221
207.1000,-59.1939,317.559,1.45233
207.0000,-61.184,317.859,1.45536
206.9000,-50.9165,318.599,1.46281
206.8000,-55.7162,320.059,1.47746
206.7000,-52.452,320.507,1.48196
206.6000,-59.5234,322.093,1.49779
206.5000,-55.747,322.27,1.49956
206.4000,-52.5566,323.695,1.51373
206.3000,-45.5354,324.89,1.52558
206.2000,-56.2951,325.483,1.53144
206.1000,-51.5451,326.489,1.54137
206.0000,-49.9441,327.383,1.55017
205.9000,-53.392,329.599,1.57191
205.8000,-51.1985,328.652,1.56263
205.7000,-41.2475,330.582,1.5815
205.6000,-55.0985,331.515,1.5906
205.5000,-48.9587,332.569,1.60084
205.4000,-47.3871,333.001,1.60503
205.3000,-51.3427,334.063,1.61532
205.2000,-47.4044,336.025,1.63424
205.1000,-46.1643,337.144,1.64499
205.0000,-38.2072,337.659,1.64993
204.9000,-36.536,338.932,1.66211
204.8000,-40.2862,339.589,1.66838
204.7000,-33.2767,341.395,1.68557
204.6000,-42.1088,342.152,1.69275
204.5000,-36.5114,344.784,1.71762
204.4000,-35.7755,345.852,1.72766
204.3000,-38.2341,346.404,1.73284
204.2000,-41.2275,347.831,1.74621
204.1000,-31.1055,348.828,1.75552
204.0000,-39.0068,350.097,1.76733
203.9000,-28.4617,351.718,1.78237
203.8000,-20.6992,353.17,1.7958
203.7000,-30.239,354.829,1.81108
203.6000,-25.5764,355.526,1.81748
203.5000,-18.7982,357.176,1.83259
203.4000,-20.7763,357.78,1.83811
203.3000,-20.9949,358.729,1.84677
203.2000,-19.8808,360.671,1.86442
203.1000,-22.089,361.226,1.86945
203.0000,-13.5125,363.831,1.89298
202.9000,-24.3427,363.95,1.89405
202.8000,-12.6329,366.476,1.91671
202.7000,-19.359,367.156,1.92279
202.6000,-13.1023,367.733,1.92794
202.5000,-13.3164,370.4,1.95166
202.4000,-11.0495,372.029,1.96609
202.3000,-20.0596,373.398,1.97816
202.2000,-9.426,374.985,1.99212
202.1000,-13.2214,376.514,2.00551
202.0000,-9.54806,378.765,2.02516
201.9000,-2.56798,380.659,2.0416
201.8000,-10.998,382.567,2.05811
201.7000,-0.781889,383.952,2.07005
201.6000,-10.4986,387.285,2.09862
201.5000,-8.33586,388.43,2.10839
201.4000,1.71497,390.447,2.12554
201.3000,6.58945,391.669,2.13589
201.2000,9.78231,392.902,2.14632
201.1000,12.24,395.273,2.16627
201.0000,2.62715,397.265,2.18297
200.9000,0.439671,398.334,2.1919
200.8000,8.24946,399.865,2.20465
200.7000,8.75444,401.313,2.21668
200.6000,17.3208,403.652,2.23602
200.5000,14.5485,405.001,2.24714
200.4000,16.7216,408.226,2.27358
200.3000,18.4333,409.918,2.28738
200.2000,21.2091,412.184,2.30579
200.1000,11.0885,413.988,2.32039
200.0000,17.4084,416.297,2.33899
199.9000,14.31,418.717,2.3584
199.8000,16.814,420.586,2.37332
199.7000,28.4352,422.264,2.38667
199.6000,22.7225,424.259,2.40249
199.5000,21.0019,425.194,2.40988
199.4000,26.4725,427.152,2.42531
199.3000,27.513,429.523,2.44393
199.2000,15.4935,432.371,2.46616
199.1000,25.0216,431.972,2.46305
199.0000,36.0462,435.34,2.48922
198.9000,28.1096,436.983,2.50192
198.8000,26.6911,440.869,2.53179
198.7000,42.8001,443.301,2.55038
198.6000,32.7388,444.781,2.56164
198.5000,30.8718,445.722,2.56879
198.4000,38.279,449.154,2.59475
198.3000,37.3236,451.513,2.6125
198.2000,37.7946,453.664,2.62862
198.1000,29.764,456.112,2.64688
198.0000,34.6551,458.543,2.66494
197.9000,43.4745,460.664,2.68062
197.8000,32.0908,463.827,2.7039
197.7000,24.8127,465.852,2.71873
197.6000,30.7981,467.461,2.73048
197.5000,32.6977,469.956,2.74862
197.4000,33.0524,472.113,2.76425
197.3000,25.3255,474.441,2.78105
197.2000,26.7744,477.504,2.80304
197.1000,42.3142,478.055,2.80698
197.0000,32.1783,481.828,2.83388
196.9000,37.9667,483.514,2.84585
196.8000,25.4021,485.517,2.86001
196.7000,51.2615,488.06,2.87793
196.6000,41.6891,490.983,2.89842
196.5000,35.5542,492.77,2.9109
196.4000,30.3058,495.574,2.93041
196.3000,39.4499,498.297,2.94926
196.2000,47.3223,501.118,2.9687
196.1000,42.9316,503.028,2.9818
196.0000,36.4481,506.015,3.00222
195.9000,43.7998,508.096,3.01638
195.8000,37.3979,511.994,3.04278
195.7000,45.5555,513.139,3.0505
195.6000,28.3847,514.97,3.06282
195.5000,27.8202,516.993,3.07638
195.4000,33.6131,519.811,3.0952
195.3000,29.799,520.477,3.09964
195.2000,38.1538,523.041,3.11668
195.1000,34.1247,525.911,3.13566
195.0000,39.5919,528.097,3.15005
194.9000,44.1394,529.116,3.15675
194.8000,42.397,530.475,3.16566
194.7000,29.9732,533.765,3.18716
194.6000,30.2728,534.904,3.19457
194.5000,37.5709,537.003,3.2082
194.4000,35.1389,539.067,3.22156
194.3000,44.7811,541.22,3.23545
194.2000,36.3895,543.2,3.24818
194.1000,48.3262,545.835,3.26506
194.0000,39.2088,547.121,3.27328
193.9000,34.6031,550.594,3.29538
193.8000,31.398,552.758,3.30909
193.7000,31.6802,554.704,3.32138
193.6000,17.8337,557.265,3.3375
193.5000,30.5287,558.54,3.3455
193.4000,22.4264,560.427,3.35731
193.3000,23.4906,561.865,3.3663
193.2000,26.2047,563.178,3.37448
193.1000,30.2905,565.714,3.39024
193.0000,30.5791,566.855,3.39732
192.9000,17.9145,569.396,3.41301
192.8000,22.5519,572.482,3.43201
192.7000,20.1154,573.005,3.43522
192.6000,40.8656,574.775,3.44606
192.5000,35.8932,577.4,3.46209
192.4000,20.1166,578.833,3.47082
192.3000,30.774,582.465,3.49285
192.2000,17.6441,582.807,3.49492
192.1000,26.264,584.735,3.50657
192.0000,21.6048,587.086,3.52072
191.9000,33.0917,589.631,3.53599
191.8000,29.4833,590.58,3.54166
191.7000,24.2821,592.748,3.55461
191.6000,17.4376,594.655,3.56597
191.5000,26.7644,596.051,3.57426
191.4000,35.7202,597.566,3.58323
191.3000,31.3345,601.96,3.60917
191.2000,26.3047,602.478,3.61221
191.1000,30.4808,605.451,3.62966
191.0000,42.0256,609.096,3.65094
190.9000,21.5909,609.85,3.65533
190.8000,29.4187,613.891,3.67878
190.7000,34.4681,615.401,3.6875
190.6000,36.2615,618.996,3.70821
190.5000,24.1177,619.507,3.71115
190.4000,32.1892,622.47,3.72812
190.3000,19.0803,624.591,3.74023
190.2000,21.9583,626.193,3.74936
190.1000,19.0503,627.999,3.75962
190.0000,23.1933,630.81,3.77555

##### Extended Information
[Comments]
Sample name,AZNTEA_ADDITIVE&PROTEIN_928
Comment,ADDITIVE&PROTIEN
User,ALEXZHANG
Division
Company,Saint Mary's College

[Detailed Information]
Creation date,9/28/2022 3:56 PM

Data array type,Linear data array * 3
Horizontal axis,Wavelength [nm]
Vertical axis(1),CD [mdeg]
Vertical axis(2),HT [V]
Vertical axis(3),Abs
Start,320 nm
End,190 nm
Data interval,0.1 nm
Data points,1301    

[Measurement Information]
Instrument name,J-1500
Model name,J-1500
Serial No.,B051061638

Detector,PM-539
Detector S/N,B051061638
  Lock-in amp.,X mode
  HT volt,Auto

Accessory,PTC-517
Accessory S/N,B026561646
  Temperature,23.11 C
  Control sensor,Holder
  Monitor sensor,Holder

Measurement date,9/28/2022 3:56 PM

CD Overload detect,969
Photometric mode,CD, HT, Abs
Measure range,320 - 190 nm
Data pitch,0.1 nm
CD scale,20 mdeg/0.05 dOD
FL scale,20 mdeg/0.05 dOD
D.I.T.,8 msec
Bandwidth,2.00 nm
Start mode,Immediately
Scanning mode,Continuous
Scanning speed,200 nm/min
Baseline correction,None
Shutter control,Auto
No. of cycle,1/1
N2 Flowmeter,Manual

Solvent,NaPO4 buffer

