TITLE,AZNTEA_BUFFER&PROTEIN_928
DATA TYPE,
ORIGIN,JASCO
OWNER,
DATE,22/09/28
TIME,15:50:19
SPECTROMETER/DATA SYSTEM,
LOCALE,1033
RESOLUTION,
DELTAX,-0.1
XUNITS,NANOMETERS
YUNITS,CD [mdeg]
Y2UNITS,HT [V]
Y3UNITS,ABSORBANCE
FIRSTX,  320.0000
LASTX,  190.0000
NPOINTS,    1301
FIRSTY,     0.82728
MAXY,    43.95797
MINY,   -83.30482
XYDATA
320.0000,0.82728,208.277,0.148173
319.9000,0.731979,209.531,0.166077
319.8000,1.89183,208.515,0.151576
319.7000,1.22754,208.963,0.157969
319.6000,1.64691,208.378,0.149615
319.5000,2.36389,208.175,0.146713
319.4000,0.709913,208.806,0.155737
319.3000,3.0964,209.105,0.160006
319.2000,0.310201,208.446,0.150588
319.1000,1.41709,208.046,0.144864
319.0000,1.31813,208.706,0.154313
318.9000,0.528063,209.503,0.165674
318.8000,0.851275,209.201,0.161363
318.7000,1.01541,208.3,0.148497
318.6000,1.16538,209.127,0.160313
318.5000,0.868396,209.794,0.169818
318.4000,1.50207,208.329,0.148919
318.3000,1.72059,208.362,0.149388
318.2000,0.00743781,208.186,0.146875
318.1000,1.07024,208.637,0.153325
318.0000,1.17876,208.273,0.148108
317.9000,0.763323,209.223,0.161686
317.8000,1.5015,208.384,0.149696
317.7000,1.37063,207.97,0.143776
317.6000,1.24016,208.591,0.152661
317.5000,2.29594,208.827,0.156028
317.4000,0.22588,208.303,0.148546
317.3000,3.0843,208.035,0.144701
317.2000,0.861292,208.023,0.144539
317.1000,0.649471,208.631,0.153228
317.0000,0.966204,209.137,0.160458
316.9000,2.22102,207.893,0.142672
316.8000,2.49481,207.946,0.143435
316.7000,-0.216185,208.104,0.145691
316.6000,2.98658,207.987,0.14402
316.5000,2.2638,207.466,0.136545
316.4000,1.47401,208.344,0.149129
316.3000,1.95993,207.963,0.143679
316.2000,0.613616,207.97,0.143776
316.1000,0.383456,208.496,0.151301
316.0000,0.306381,208.284,0.14827
315.9000,2.74031,208.878,0.156756
315.8000,1.23494,208.157,0.146454
315.7000,1.35464,208.312,0.148675
315.6000,1.10421,208.301,0.148513
315.5000,2.18727,208.314,0.148708
315.4000,0.675293,207.66,0.139325
315.3000,0.640529,207.748,0.140593
315.2000,1.74082,207.852,0.142087
315.1000,0.232168,209.424,0.164544
315.0000,1.44827,208.307,0.148594
314.9000,-0.34137,208.137,0.146162
314.8000,0.60343,206.523,0.122986
314.7000,1.13756,208.275,0.14814
314.6000,3.31505,207.68,0.139618
314.5000,0.324346,207.679,0.139602
314.4000,0.132673,208.628,0.153195
314.3000,0.277835,208.219,0.147346
314.2000,0.683273,208.273,0.148108
314.1000,1.25445,207.89,0.142623
314.0000,1.60781,208.192,0.146956
313.9000,1.56011,208.09,0.145496
313.8000,0.110116,207.087,0.131108
313.7000,1.94543,207.883,0.142526
313.6000,2.58527,207.645,0.139114
313.5000,1.32388,207.667,0.139439
313.4000,1.71378,208.985,0.158292
313.3000,0.867527,207.722,0.140219
313.2000,2.01844,207.244,0.133355
313.1000,1.02869,207.649,0.139179
313.0000,-0.0699068,207.9,0.14277
312.9000,0.573014,207.767,0.140869
312.8000,0.453557,209.096,0.159876
312.7000,0.183053,208.372,0.149534
312.6000,2.22174,207.509,0.137163
312.5000,1.36632,207.243,0.133339
312.4000,1.71811,207.382,0.135341
312.3000,0.351016,207.771,0.140918
312.2000,3.72728,207.63,0.138903
312.1000,0.674891,208.003,0.144247
312.0000,1.64568,206.293,0.11967
311.9000,0.631692,206.023,0.115779
311.8000,1.2061,208.195,0.147005
311.7000,-0.385472,208.265,0.147994
311.6000,2.40829,208.065,0.145139
311.5000,1.10218,208.198,0.147037
311.4000,3.10947,207.322,0.134479
311.3000,3.07921,207.102,0.13132
311.2000,-0.216341,208.425,0.150296
311.1000,0.0946452,207.962,0.143663
311.0000,0.608228,207.511,0.137195
310.9000,0.280268,207.846,0.142006
310.8000,-0.0576251,208.706,0.154313
310.7000,0.674699,207.287,0.133974
310.6000,-0.255153,207.638,0.139017
310.5000,1.4639,208.062,0.145091
310.4000,2.02132,207.546,0.1377
310.3000,1.19166,205.781,0.112276
310.2000,0.651434,208.317,0.14874
310.1000,0.976321,207.663,0.139374
310.0000,1.19617,207.728,0.1403
309.9000,1.03072,208.09,0.145496
309.8000,1.54087,208.659,0.153633
309.7000,2.12017,207.313,0.134348
309.6000,1.00999,206.922,0.128729
309.5000,1.27248,208.386,0.149729
309.4000,1.44205,207.355,0.134951
309.3000,0.35782,208.364,0.149421
309.2000,0.295254,207.759,0.140755
309.1000,-0.00275417,207.245,0.133372
309.0000,2.42002,207.555,0.13783
308.9000,2.00627,207.091,0.131157
308.8000,2.42294,208.836,0.156157
308.7000,0.921223,207.975,0.143841
308.6000,1.82581,207.17,0.132297
308.5000,1.7236,208.736,0.154733
308.4000,1.87205,208.351,0.149226
308.3000,1.22785,207.89,0.142623
308.2000,1.54606,207.93,0.143208
308.1000,1.75379,208.304,0.148562
308.0000,-0.260645,208.622,0.153098
307.9000,1.8471,207.475,0.136675
307.8000,2.51592,208.098,0.14561
307.7000,0.956083,208.19,0.146924
307.6000,1.71475,207.077,0.130962
307.5000,0.862956,208.029,0.14462
307.4000,1.84025,206.508,0.122774
307.3000,0.86912,208.061,0.145075
307.2000,2.71782,207.749,0.140609
307.1000,2.51703,207.647,0.139147
307.0000,-0.0614066,207.973,0.143825
306.9000,2.19572,207.955,0.143565
306.8000,1.74747,207.747,0.140577
306.7000,0.891714,207.629,0.138886
306.6000,1.24731,207.53,0.137472
306.5000,0.0984886,207.788,0.141162
306.4000,-0.231613,207.223,0.133062
306.3000,1.68305,207.34,0.134739
306.2000,2.12306,208.097,0.145594
306.1000,2.59471,208.299,0.148481
306.0000,1.42632,208.079,0.145334
305.9000,1.8516,208.475,0.151009
305.8000,0.834935,207.868,0.142315
305.7000,0.726301,208.069,0.145188
305.6000,-0.231571,207.867,0.142299
305.5000,1.21439,207.854,0.14212
305.4000,0.958055,206.923,0.128745
305.3000,2.512,209.191,0.161234
305.2000,-0.0923434,207.503,0.137082
305.1000,0.402099,207.946,0.143435
305.0000,1.11474,207.158,0.132118
304.9000,1.253,207.008,0.129967
304.8000,1.02678,207.661,0.139342
304.7000,3.22571,207.728,0.1403
304.6000,3.03465,208.814,0.15585
304.5000,0.245625,208.033,0.144685
304.4000,1.04512,208.28,0.148221
304.3000,0.699126,207.411,0.135764
304.2000,1.34929,208.706,0.154313
304.1000,2.63855,207.703,0.139943
304.0000,0.392528,207.578,0.138155
303.9000,2.2645,207.896,0.142721
303.8000,0.947226,207.487,0.136854
303.7000,0.915918,207.805,0.141405
303.6000,-0.558019,207.505,0.137114
303.5000,2.27996,207.567,0.137992
303.4000,0.824394,207.437,0.136138
303.3000,1.70476,208.293,0.1484
303.2000,0.261044,208.509,0.151495
303.1000,2.18576,206.999,0.129837
303.0000,1.78157,207.291,0.134039
302.9000,1.29954,208.307,0.148594
302.8000,1.50698,206.761,0.126413
302.7000,1.83287,207.571,0.138057
302.6000,1.43389,208.031,0.144653
302.5000,2.03967,207.034,0.130342
302.4000,0.6234,207.518,0.137293
302.3000,1.06023,207.15,0.132004
302.2000,1.34864,208.214,0.147265
302.1000,1.62448,207.461,0.13648
302.0000,1.30748,207.731,0.140349
301.9000,0.945467,207.563,0.137943
301.8000,3.24663,207.488,0.13687
301.7000,0.474135,208.178,0.146762
301.6000,2.06898,207.856,0.142136
301.5000,1.00977,207.732,0.140365
301.4000,0.49462,208.004,0.144263
301.3000,0.390317,206.962,0.129299
301.2000,-0.0671267,206.674,0.125157
301.1000,0.930391,208.322,0.148821
301.0000,1.30216,206.903,0.128452
300.9000,1.35781,207.992,0.144085
300.8000,1.30937,208.81,0.155785
300.7000,0.405254,207.524,0.137374
300.6000,0.643098,207.905,0.142851
300.5000,-0.105882,207.206,0.132818
300.4000,1.14819,208.263,0.147978
300.3000,0.721091,206.898,0.128386
300.2000,0.249237,208.139,0.146194
300.1000,1.15517,207.507,0.13713
300.0000,0.810068,208.29,0.148351
299.9000,2.70286,207.568,0.138009
299.8000,0.526975,206.685,0.12532
299.7000,1.47157,208.109,0.145772
299.6000,0.82324,207.482,0.136773
299.5000,1.50174,207.631,0.138919
299.4000,1.18342,208.398,0.149907
299.3000,0.703796,207.101,0.131304
299.2000,2.44536,207.922,0.143094
299.1000,0.114814,207.511,0.137195
299.0000,1.14269,207.098,0.131255
298.9000,1.70606,205.899,0.113979
298.8000,1.90149,207.126,0.131662
298.7000,1.73954,207.372,0.135195
298.6000,0.691991,207.195,0.132655
298.5000,0.346449,207.496,0.136984
298.4000,-0.297126,206.848,0.127669
298.3000,3.36684,206.086,0.116679
298.2000,-0.167029,207.646,0.13913
298.1000,0.759443,207.729,0.140317
298.0000,0.963845,207.939,0.143338
297.9000,1.86608,207.757,0.140723
297.8000,2.74997,207.22,0.133014
297.7000,2.56639,207.219,0.132997
297.6000,0.0274245,207.445,0.136252
297.5000,1.76736,206.721,0.125842
297.4000,0.647155,208.082,0.145383
297.3000,2.55484,207.58,0.138187
297.2000,0.804958,207.098,0.131255
297.1000,1.1123,207.419,0.135878
297.0000,-0.736741,207.771,0.140918
296.9000,2.34955,207.543,0.137651
296.8000,-1.12656,207.197,0.132688
296.7000,0.273963,207.439,0.136154
296.6000,1.20837,207.873,0.14238
296.5000,3.05013,207.326,0.134544
296.4000,0.955611,207.002,0.129886
296.3000,2.32989,207.049,0.130554
296.2000,-0.170325,207.914,0.14298
296.1000,2.01939,206.872,0.128011
296.0000,-1.0043,208.393,0.149826
295.9000,0.532043,206.885,0.128191
295.8000,0.656846,207.731,0.140349
295.7000,-0.465933,206.712,0.125712
295.6000,-0.884412,206.98,0.12956
295.5000,1.23107,207.093,0.131189
295.4000,0.492931,207.321,0.134462
295.3000,2.18916,207.011,0.130016
295.2000,1.55303,206.524,0.123003
295.1000,0.521363,206.977,0.129527
295.0000,2.2526,207.152,0.132037
294.9000,1.68172,207.119,0.131564
294.8000,1.22043,207.482,0.136773
294.7000,0.778489,207.305,0.134234
294.6000,0.845048,208.362,0.149388
294.5000,0.148008,206.958,0.129251
294.4000,2.13252,206.809,0.127098
294.3000,0.16848,208.045,0.144847
294.2000,2.25125,207.535,0.137537
294.1000,0.0509185,207.367,0.13513
294.0000,-0.21645,206.506,0.122741
293.9000,1.67202,207.372,0.135195
293.8000,2.32076,207.059,0.130701
293.7000,1.79325,208.676,0.153876
293.6000,1.40446,208.078,0.145318
293.5000,0.628984,208.331,0.148951
293.4000,-0.475018,207.579,0.138171
293.3000,2.43386,207.741,0.140495
293.2000,0.822242,207.255,0.133518
293.1000,2.41494,208.115,0.145853
293.0000,2.89882,207.074,0.130913
292.9000,1.76632,206.289,0.119605
292.8000,1.57847,207.576,0.138123
292.7000,1.07434,207.588,0.138301
292.6000,1.68763,207.083,0.131043
292.5000,1.35161,206.954,0.129185
292.4000,1.71545,207.286,0.133958
292.3000,1.45858,207.664,0.13939
292.2000,1.90191,206.521,0.122953
292.1000,2.58174,206.707,0.12563
292.0000,0.809356,206.273,0.119376
291.9000,0.176203,206.191,0.118199
291.8000,1.62547,207.107,0.131385
291.7000,1.1037,207.912,0.142948
291.6000,1.55929,206.334,0.120258
291.5000,0.708044,206.333,0.120242
291.4000,2.25379,206.576,0.123753
291.3000,0.982022,206.803,0.127017
291.2000,1.79414,206.402,0.121239
291.1000,1.70134,206.815,0.127196
291.0000,0.650413,207.104,0.131352
290.9000,1.80215,206.832,0.127441
290.8000,1.65839,206.878,0.128093
290.7000,1.57997,206.849,0.127685
290.6000,-0.0960296,206.696,0.125483
290.5000,1.4392,207.122,0.131613
290.4000,1.22505,206.73,0.125973
290.3000,1.05647,206.704,0.125598
290.2000,2.08917,206.69,0.125385
290.1000,-0.231963,207.196,0.132672
290.0000,2.69939,207.912,0.142948
289.9000,0.739764,207.859,0.142185
289.8000,0.228461,207.028,0.130261
289.7000,1.3244,207.916,0.142997
289.6000,1.43677,207.496,0.136984
289.5000,1.77068,206.576,0.123753
289.4000,1.8287,206.845,0.12762
289.3000,1.10405,207.145,0.131939
289.2000,0.926655,207.382,0.135341
289.1000,1.3094,207.938,0.143322
289.0000,0.604443,207.691,0.13978
288.9000,2.29374,207.428,0.136008
288.8000,2.63905,206.611,0.124259
288.7000,0.345024,207.874,0.142396
288.6000,1.58155,208.41,0.150069
288.5000,0.317355,208.546,0.152013
288.4000,0.403198,207.5,0.137033
288.3000,0.681543,207.714,0.140105
288.2000,1.29441,207.704,0.139959
288.1000,1.92826,207.919,0.143045
288.0000,1.7789,208.215,0.147281
287.9000,1.88846,208.6,0.152791
287.8000,1.42778,209.386,0.164011
287.7000,0.823143,207.448,0.136285
287.6000,1.56399,207.877,0.142445
287.5000,1.61634,207.03,0.130277
287.4000,1.15777,207.295,0.134088
287.3000,2.26453,207.601,0.13848
287.2000,2.20537,208.176,0.14673
287.1000,1.81616,207.272,0.133762
287.0000,2.25188,207.402,0.135634
286.9000,1.41074,208.405,0.150004
286.8000,0.762445,207.811,0.141503
286.7000,0.377092,208.126,0.146016
286.6000,0.348936,208.964,0.157985
286.5000,1.99344,207.326,0.134544
286.4000,1.14097,207.592,0.13835
286.3000,0.941807,208.787,0.155462
286.2000,1.83244,207.816,0.141568
286.1000,2.11134,207.267,0.133697
286.0000,1.08027,208.271,0.148092
285.9000,0.840543,208.637,0.153325
285.8000,1.58927,207.161,0.132167
285.7000,3.21524,208.134,0.146129
285.6000,0.844528,207.807,0.141438
285.5000,2.21976,208.288,0.148335
285.4000,1.63536,208.125,0.146
285.3000,0.202083,207.57,0.138041
285.2000,0.916089,207.96,0.14363
285.1000,1.92896,207.818,0.1416
285.0000,0.020332,208.605,0.152855
284.9000,1.96777,208.058,0.145042
284.8000,0.350709,207.415,0.135813
284.7000,-0.719187,208.036,0.144718
284.6000,1.3801,208.004,0.144263
284.5000,0.727883,208.117,0.145886
284.4000,1.22465,208.086,0.145432
284.3000,1.07871,207.167,0.132248
284.2000,1.13219,207.731,0.140349
284.1000,1.04916,207.723,0.140236
284.0000,0.739662,208.925,0.157435
283.9000,1.45429,207.409,0.135731
283.8000,-0.11975,208.227,0.147459
283.7000,-0.0380909,207.834,0.141827
283.6000,1.16413,208.641,0.153374
283.5000,-0.543693,207.633,0.138952
283.4000,1.14451,208.365,0.149437
283.3000,0.474991,207.897,0.142737
283.2000,1.33495,208.184,0.146843
283.1000,-0.0773765,208.365,0.149437
283.0000,2.32249,208.608,0.152904
282.9000,1.53973,208.082,0.145383
282.8000,0.399435,207.791,0.14121
282.7000,1.81652,208.206,0.147151
282.6000,0.499397,208.848,0.156335
282.5000,1.9622,207.954,0.143549
282.4000,1.51031,208.725,0.154571
282.3000,0.757144,208.401,0.14994
282.2000,0.445103,207.836,0.14186
282.1000,1.82872,207.44,0.136171
282.0000,0.986109,207.684,0.139683
281.9000,0.801666,208.055,0.144993
281.8000,1.85488,207.891,0.14264
281.7000,0.838351,208.002,0.144231
281.6000,1.17147,208.896,0.157015
281.5000,-0.0615822,208.992,0.158389
281.4000,0.323604,208.946,0.157726
281.3000,0.808363,207.652,0.139212
281.2000,-0.130722,207.948,0.143468
281.1000,0.328521,208.168,0.146616
281.0000,0.136452,208.282,0.148238
280.9000,1.07234,208.709,0.154345
280.8000,1.11718,208.527,0.151754
280.7000,0.345725,208.01,0.144344
280.6000,0.655569,208.161,0.146519
280.5000,0.25632,208.362,0.149388
280.4000,0.308435,207.696,0.139846
280.3000,2.1081,208.207,0.147167
280.2000,0.723449,208.299,0.148481
280.1000,0.846451,208.589,0.152629
280.0000,-0.363308,208.639,0.153341
279.9000,1.09076,208.733,0.154685
279.8000,1.1508,207.654,0.139244
279.7000,2.60432,207.946,0.143435
279.6000,0.713961,208.643,0.153406
279.5000,1.1813,208.453,0.150685
279.4000,-0.69665,208.53,0.151787
279.3000,0.913187,208.602,0.152823
279.2000,0.0722336,208.459,0.150782
279.1000,1.55885,208.056,0.14501
279.0000,0.763753,208.137,0.146162
278.9000,-0.617903,208.039,0.144766
278.8000,1.77078,209.011,0.158664
278.7000,-0.135327,208.141,0.146226
278.6000,0.390855,208.146,0.146291
278.5000,0.0502316,208.523,0.15169
278.4000,2.60275,208.74,0.154798
278.3000,2.0573,208.358,0.149324
278.2000,-0.136899,208.762,0.155106
278.1000,1.19155,208.253,0.147832
278.0000,2.62308,208.029,0.14462
277.9000,2.57016,207.533,0.137505
277.8000,0.789983,208.635,0.153293
277.7000,1.00584,208.825,0.156012
277.6000,2.44361,208.41,0.150069
277.5000,1.53877,208.412,0.150102
277.4000,2.04045,208.706,0.154313
277.3000,-0.348648,208.706,0.154313
277.2000,0.531706,208.576,0.152451
277.1000,0.00727664,207.754,0.140674
277.0000,0.278498,208.759,0.155057
276.9000,0.508609,208.506,0.151447
276.8000,-0.0182193,208.929,0.157484
276.7000,-0.590899,208.592,0.152677
276.6000,1.20292,208.753,0.154976
276.5000,0.275915,208.123,0.145967
276.4000,1.55815,207.959,0.143614
276.3000,1.3346,208.883,0.156837
276.2000,1.66604,208.135,0.146145
276.1000,0.709587,207.947,0.143451
276.0000,0.804485,208.702,0.154248
275.9000,0.783025,208.148,0.146324
275.8000,-0.460612,208.636,0.153309
275.7000,-0.0104091,208.367,0.149453
275.6000,-0.458749,207.869,0.142331
275.5000,0.549634,208.733,0.154685
275.4000,-0.607373,207.927,0.143159
275.3000,-0.231325,208.373,0.149551
275.2000,-1.55707,208.525,0.151722
275.1000,0.377935,208.343,0.149113
275.0000,0.0248763,208.295,0.148432
274.9000,1.39983,208.552,0.152111
274.8000,-0.494411,208.656,0.153584
274.7000,0.28724,208.469,0.150912
274.6000,-0.985659,208.662,0.153681
274.5000,0.0858368,208.718,0.154474
274.4000,1.23012,208.815,0.155866
274.3000,-0.663456,207.977,0.143873
274.2000,1.15161,208.054,0.144977
274.1000,1.33339,208.761,0.15509
274.0000,1.7071,208.305,0.148578
273.9000,2.20783,208.632,0.153244
273.8000,0.863633,208.33,0.148935
273.7000,0.826632,208.619,0.153066
273.6000,0.961428,207.791,0.14121
273.5000,-0.156678,208.32,0.148789
273.4000,-0.350134,209.006,0.158583
273.3000,0.367308,208.692,0.154102
273.2000,-1.13213,207.356,0.134967
273.1000,-1.03538,209.302,0.162817
273.0000,1.91985,208.466,0.15088
272.9000,0.811252,208.525,0.151722
272.8000,1.38216,208.376,0.149583
272.7000,1.02134,208.382,0.14968
272.6000,0.18203,208.353,0.149259
272.5000,-0.310035,209.357,0.163592
272.4000,1.53324,208.518,0.151625
272.3000,-0.698227,208.944,0.15771
272.2000,0.272702,208.694,0.154135
272.1000,-0.886866,208.286,0.148302
272.0000,1.45238,208.467,0.150896
271.9000,1.05014,208.844,0.156271
271.8000,0.927923,208.743,0.154831
271.7000,0.700699,208.44,0.150507
271.6000,-0.167655,208.218,0.14733
271.5000,0.566105,208.552,0.152111
271.4000,0.410557,207.878,0.142461
271.3000,-1.11333,208.184,0.146843
271.2000,1.37976,208.164,0.146551
271.1000,0.568553,208.023,0.144539
271.0000,-0.502051,208.22,0.147362
270.9000,-0.643824,208.659,0.153633
270.8000,0.307292,208.075,0.145286
270.7000,0.0897367,208.96,0.157937
270.6000,0.531661,208.675,0.153859
270.5000,1.31881,209.046,0.159165
270.4000,0.406974,207.986,0.144003
270.3000,1.8306,208.423,0.150264
270.2000,-0.0923093,208.994,0.158422
270.1000,-0.502878,209.044,0.159133
270.0000,1.08359,208.457,0.15075
269.9000,0.121512,208.7,0.154215
269.8000,-0.140729,208.872,0.156675
269.7000,0.748782,208.465,0.150863
269.6000,1.78462,209.147,0.160604
269.5000,0.36791,208.619,0.153066
269.4000,0.136042,208.398,0.149907
269.3000,-0.65719,209.152,0.160668
269.2000,-0.693934,209.662,0.167932
269.1000,-0.574702,208.788,0.155478
269.0000,-1.02707,209.773,0.169512
268.9000,1.29123,209.267,0.162316
268.8000,-0.361713,208.658,0.153617
268.7000,0.608543,208.798,0.155623
268.6000,-0.0873098,208.907,0.157177
268.5000,1.16594,209.547,0.166303
268.4000,1.05894,209.077,0.159602
268.3000,-0.540451,208.662,0.153681
268.2000,1.45743,208.944,0.15771
268.1000,-1.57194,208.963,0.157969
268.0000,0.54479,210.284,0.176775
267.9000,1.70287,208.768,0.155187
267.8000,0.875598,209.065,0.159424
267.7000,1.57156,209.41,0.16435
267.6000,-0.0390021,209.459,0.165045
267.5000,1.70182,208.463,0.150831
267.4000,1.2931,208.914,0.157274
267.3000,0.185573,209.151,0.160652
267.2000,-0.980596,209.17,0.160927
267.1000,1.08315,209.184,0.161121
267.0000,1.51787,209.224,0.161702
266.9000,0.947737,209.122,0.160248
266.8000,0.186565,209.59,0.166916
266.7000,0.390437,209.449,0.164899
266.6000,-1.17795,209.527,0.166013
266.5000,-0.269682,209.799,0.169883
266.4000,0.128389,209.033,0.158971
266.3000,0.601645,209.685,0.168271
266.2000,0.0699786,209.309,0.162914
266.1000,-1.53125,209.518,0.165883
266.0000,0.55979,209.81,0.170044
265.9000,-0.207551,209.587,0.166868
265.8000,0.0631659,209.943,0.171929
265.7000,2.59374,209.928,0.17172
265.6000,0.791339,209.438,0.164754
265.5000,0.0234253,209.637,0.167577
265.4000,0.869806,209.312,0.162946
265.3000,-0.64846,210.327,0.177386
265.2000,-1.97709,209.655,0.167836
265.1000,-0.10811,209.867,0.17085
265.0000,0.703079,210.502,0.179878
264.9000,0.0954564,209.921,0.171623
264.8000,1.54827,209.553,0.166384
264.7000,-0.00880298,209.536,0.166142
264.6000,-0.321517,209.742,0.169077
264.5000,1.38819,209.903,0.171365
264.4000,1.42128,209.773,0.169512
264.3000,1.35818,210.071,0.173749
264.2000,0.256416,209.368,0.163753
264.1000,0.16443,209.655,0.167836
264.0000,1.26942,209.606,0.167142
263.9000,0.335992,209.336,0.163301
263.8000,-0.776641,209.719,0.168755
263.7000,1.31116,209.82,0.170189
263.6000,-1.98635,209.832,0.17035
263.5000,-0.227732,209.917,0.171559
263.4000,-1.17732,209.943,0.171929
263.3000,-0.248236,209.915,0.171543
263.2000,0.595892,211.224,0.190102
263.1000,-1.09598,210.95,0.186221
263.0000,-1.2852,209.801,0.169915
262.9000,0.195279,209.563,0.166529
262.8000,-0.929835,210.051,0.173475
262.7000,0.992127,209.982,0.172493
262.6000,-1.8104,209.866,0.170834
262.5000,-0.131363,211.37,0.192169
262.4000,0.600781,210.458,0.179251
262.3000,0.803372,209.696,0.168416
262.2000,0.0182534,210.987,0.186751
262.1000,-0.265383,209.909,0.171446
262.0000,1.33437,209.987,0.172557
261.9000,0.900065,210.562,0.18073
261.8000,-1.43043,209.051,0.15923
261.7000,-0.402133,210.513,0.180022
261.6000,0.0535559,209.969,0.1723
261.5000,1.76462,211.361,0.192041
261.4000,2.5108,211.793,0.198139
261.3000,1.74512,210.36,0.177852
261.2000,-0.217172,210.541,0.180424
261.1000,1.14199,210.518,0.180103
261.0000,1.47487,210.293,0.176903
260.9000,-0.658906,210.406,0.178511
260.8000,2.11065,210.394,0.178335
260.7000,0.865247,210.476,0.179508
260.6000,1.21078,210.15,0.174876
260.5000,0.531685,210.687,0.182497
260.4000,1.11861,210.559,0.180681
260.3000,-0.445117,211.045,0.187569
260.2000,1.37454,210.74,0.183251
260.1000,-0.655633,210.93,0.185932
260.0000,-0.427724,211.16,0.189188
259.9000,-0.230619,210.114,0.174361
259.8000,0.155222,208.709,0.154345
259.7000,0.683991,210.62,0.181549
259.6000,0.684691,211.502,0.194026
259.5000,0.629918,211.02,0.187216
259.4000,0.833562,210.763,0.183573
259.3000,0.0126992,210.872,0.185114
259.2000,0.405001,211.31,0.19132
259.1000,-0.291993,211.039,0.187488
259.0000,-0.940516,211.41,0.192729
258.9000,-0.658111,210.855,0.184873
258.8000,2.16975,210.41,0.17856
258.7000,0.059943,210.498,0.179813
258.6000,0.0340346,210.828,0.184488
258.5000,0.120565,212.091,0.202342
258.4000,0.935901,211.482,0.193754
258.3000,-0.230654,211.379,0.192297
258.2000,-0.214207,211.781,0.197963
258.1000,-0.480809,211.761,0.197691
258.0000,-0.604804,211.428,0.192986
257.9000,-1.22792,211.552,0.194731
257.8000,1.88295,211.189,0.189605
257.7000,1.27654,211.529,0.19441
257.6000,-0.106748,211.777,0.197915
257.5000,0.241534,211.926,0.200009
257.4000,0.188869,212.35,0.205998
257.3000,-0.668409,211.565,0.194923
257.2000,0.21475,211.237,0.190278
257.1000,0.202199,210.95,0.186221
257.0000,0.839914,212.199,0.203859
256.9000,-0.512231,210.948,0.186189
256.8000,1.09347,211.752,0.197563
256.7000,-0.179539,211.662,0.196283
256.6000,0.432573,211.58,0.195131
256.5000,-0.899637,211.435,0.193082
256.4000,1.98669,211.841,0.19881
256.3000,0.447841,211.396,0.192537
256.2000,1.24483,211.736,0.197339
256.1000,1.20279,211.469,0.193562
256.0000,-1.33791,212.119,0.202742
255.9000,1.89216,212.728,0.211308
255.8000,1.88632,211.553,0.194747
255.7000,0.801944,211.614,0.195611
255.6000,0.255642,211.995,0.200984
255.5000,-0.0893582,212.466,0.207626
255.4000,0.65639,212.363,0.206174
255.3000,-1.02226,212.278,0.204977
255.2000,-1.34407,212.345,0.205918
255.1000,-0.559961,212.143,0.203077
255.0000,-1.01927,212.505,0.208168
254.9000,-0.0775364,212.244,0.204498
254.8000,-0.41714,211.977,0.200728
254.7000,1.17683,211.904,0.199706
254.6000,1.00766,212.727,0.211292
254.5000,0.0428786,211.948,0.200329
254.4000,1.65015,211.978,0.200745
254.3000,0.35273,212.938,0.214271
254.2000,0.875121,212.268,0.204833
254.1000,0.419503,211.41,0.192729
254.0000,-0.560688,212.631,0.209954
253.9000,-0.506454,212.412,0.20686
253.8000,1.38926,212.486,0.207913
253.7000,0.695667,213.127,0.216913
253.6000,-0.0328485,212.663,0.2104
253.5000,-0.588113,212.622,0.209826
253.4000,-0.655281,212.812,0.212487
253.3000,1.10707,213.483,0.221921
253.2000,0.417284,212.298,0.205264
253.1000,-0.621584,212.843,0.212933
253.0000,0.970981,213.255,0.21871
252.9000,1.06868,212.55,0.208806
252.8000,0.674124,213.442,0.221333
252.7000,0.508184,212.646,0.210161
252.6000,0.625671,212.921,0.214032
252.5000,-0.4655,212.359,0.206126
252.4000,0.20315,213.343,0.21995
252.3000,-0.928955,213.454,0.221508
252.2000,-0.586146,213.444,0.221365
252.1000,0.843438,213.617,0.223795
252.0000,-0.944493,213.564,0.223049
251.9000,-1.90458,212.912,0.213905
251.8000,-1.44866,212.929,0.214144
251.7000,0.990462,212.401,0.206716
251.6000,0.318936,212.733,0.211388
251.5000,0.0246222,214.383,0.234514
251.4000,-0.00401698,214.771,0.239925
251.3000,0.630581,214.85,0.241031
251.2000,1.03028,212.829,0.212726
251.1000,-0.408627,213.793,0.226256
251.0000,0.387917,213.28,0.21906
250.9000,1.37339,213.806,0.226446
250.8000,0.0152972,213.948,0.228429
250.7000,-0.0373819,213.506,0.222238
250.6000,0.93956,213.615,0.223764
250.5000,0.0727884,213.846,0.227001
250.4000,0.978018,213.542,0.222747
250.3000,-0.12709,214.021,0.229444
250.2000,0.410655,214.177,0.231631
250.1000,0.179869,214.203,0.231996
250.0000,-1.04345,213.224,0.218281
249.9000,-0.367998,213.839,0.226906
249.8000,0.667888,213.668,0.22451
249.7000,0.194776,213.704,0.225018
249.6000,0.470827,213.675,0.224605
249.5000,1.01707,213.921,0.228049
249.4000,1.27025,213.942,0.22835
249.3000,0.563681,213.571,0.223144
249.2000,-0.052231,213.447,0.221412
249.1000,-0.84692,213.164,0.217438
249.0000,0.236676,214.183,0.231711
248.9000,0.0469371,213.463,0.221635
248.8000,-1.52604,214.389,0.234593
248.7000,-1.07825,213.691,0.224827
248.6000,-0.155544,214.537,0.236666
248.5000,1.07687,213.627,0.223938
248.4000,0.365903,214.211,0.232107
248.3000,-0.51322,214.39,0.234609
248.2000,-0.179318,213.944,0.228366
248.1000,-1.41659,214.69,0.238802
248.0000,-0.133606,213.998,0.229127
247.9000,-0.958867,213.999,0.229143
247.8000,-1.2776,214.349,0.234039
247.7000,-0.916649,214.374,0.234387
247.6000,-2.16526,214.691,0.238818
247.5000,-1.29403,215.143,0.245122
247.4000,-0.357847,214.878,0.241426
247.3000,-3.72939,214.921,0.242027
247.2000,-2.93696,214.767,0.239877
247.1000,-2.0361,215.157,0.245312
247.0000,-1.5612,215.01,0.243259
246.9000,-2.55385,215.258,0.246717
246.8000,-1.22138,214.784,0.240114
246.7000,2.0207,215.439,0.24924
246.6000,-2.64532,215.155,0.24528
246.5000,-0.327835,215.176,0.24558
246.4000,-1.49054,215.293,0.247206
246.3000,-1.47913,215.6,0.251479
246.2000,-1.5686,215.66,0.252314
246.1000,-0.261416,215.761,0.253716
246.0000,-2.06559,216.062,0.257903
245.9000,-0.468293,215.545,0.250706
245.8000,-1.40798,215.591,0.251353
245.7000,-2.64055,216.087,0.258249
245.6000,-0.594227,215.899,0.255637
245.5000,-2.66661,215.744,0.25348
245.4000,-1.26356,216.009,0.257163
245.3000,-0.576172,215.993,0.256943
245.2000,-1.33117,215.918,0.255904
245.1000,-3.6479,216.744,0.267361
245.0000,0.622504,215.846,0.254897
244.9000,-3.54335,215.683,0.252629
244.8000,-1.99508,216.789,0.267973
244.7000,-3.88654,216.803,0.268177
244.6000,-1.18264,216.766,0.267659
244.5000,-1.58041,216.069,0.257997
244.4000,-1.94216,216.003,0.257085
244.3000,-2.51834,215.753,0.253606
244.2000,-6.02781,217.161,0.273131
244.1000,-3.02093,217.419,0.276685
244.0000,-3.59104,216.094,0.258343
243.9000,-2.25461,216.401,0.262603
243.8000,-3.0628,218.11,0.286219
243.7000,-4.07448,216.964,0.270404
243.6000,-4.79719,216.8,0.26813
243.5000,-3.33115,217.2,0.273663
243.4000,-3.56103,216.995,0.270827
243.3000,-4.0703,217.369,0.275996
243.2000,-5.21838,217.311,0.275198
243.1000,-3.98501,217.182,0.273412
243.0000,-3.33214,217.508,0.277921
242.9000,-4.80658,217.113,0.272457
242.8000,-4.32551,216.727,0.267126
242.7000,-4.83456,216.852,0.268851
242.6000,-4.90647,218.346,0.289465
242.5000,-2.85256,217.643,0.279783
242.4000,-5.81073,218.091,0.285954
242.3000,-6.00402,218.634,0.29344
242.2000,-5.26817,218.155,0.286844
242.1000,-6.41704,217.687,0.280392
242.0000,-7.09093,217.944,0.28394
241.9000,-4.54745,217.633,0.279642
241.8000,-5.21934,218.377,0.289901
241.7000,-3.96451,218.343,0.289433
241.6000,-7.90033,218.974,0.29811
241.5000,-5.70954,219.283,0.30234
241.4000,-5.95277,218.73,0.294748
241.3000,-4.68928,219.334,0.303039
241.2000,-6.71052,219.164,0.300708
241.1000,-7.42414,220.072,0.313156
241.0000,-7.4021,219.527,0.305695
240.9000,-6.91113,219.373,0.303583
240.8000,-6.6873,219.343,0.303163
240.7000,-6.5332,219.748,0.308721
240.6000,-6.94002,218.867,0.296632
240.5000,-7.70435,219.548,0.305975
240.4000,-7.9606,219.962,0.311652
240.3000,-8.11305,220.382,0.317383
240.2000,-8.06022,220.154,0.314271
240.1000,-8.02002,219.909,0.310924
240.0000,-8.63439,220.395,0.317569
239.9000,-10.6685,220.522,0.319302
239.8000,-10.2828,220.376,0.317306
239.7000,-10.29,220.281,0.316006
239.6000,-10.2806,220.996,0.325762
239.5000,-10.8097,221.546,0.333259
239.4000,-10.8018,221.494,0.33255
239.3000,-11.2326,222.117,0.341017
239.2000,-11.2983,222.376,0.344522
239.1000,-10.34,221.398,0.33124
239.0000,-12.3773,221.646,0.334615
238.9000,-13.9233,222.485,0.345996
238.8000,-14.3521,222.253,0.342862
238.7000,-11.2975,222.527,0.346564
238.6000,-10.3531,222.46,0.345658
238.5000,-15.6969,222.898,0.351597
238.4000,-12.9164,223.295,0.356959
238.3000,-14.8512,222.941,0.35218
238.2000,-14.8679,223.249,0.356347
238.1000,-13.4807,224.407,0.371963
238.0000,-15.1775,223.992,0.366363
237.9000,-15.1209,223.843,0.364362
237.8000,-15.342,223.983,0.366241
237.7000,-16.2869,223.703,0.362467
237.6000,-17.0302,223.913,0.365309
237.5000,-15.66,224.024,0.366806
237.4000,-17.6104,224.65,0.375225
237.3000,-17.4159,224.984,0.379716
237.2000,-17.5422,224.483,0.372985
237.1000,-18.1406,225.495,0.386572
237.0000,-15.5754,225.565,0.387513
236.9000,-20.024,225.658,0.388758
236.8000,-19.2061,225.418,0.385539
236.7000,-18.6365,225.724,0.389638
236.6000,-18.4487,225.316,0.384172
236.5000,-20.4532,226.953,0.406066
236.4000,-20.6605,226.419,0.398928
236.3000,-20.9244,226.572,0.400971
236.2000,-19.8508,227.528,0.413716
236.1000,-20.0279,227.29,0.410549
236.0000,-21.5416,227.957,0.419425
235.9000,-22.5783,227.493,0.413249
235.8000,-23.5726,227.679,0.415721
235.7000,-23.5714,228.149,0.421968
235.6000,-21.0677,227.803,0.417378
235.5000,-21.291,228.668,0.428851
235.4000,-23.8139,228.679,0.429001
235.3000,-24.1526,228.804,0.430652
235.2000,-23.3993,228.635,0.428415
235.1000,-27.1592,229.823,0.444132
235.0000,-25.2627,229.821,0.444102
234.9000,-24.2365,228.817,0.430832
234.8000,-28.5224,229.525,0.440198
234.7000,-28.2848,229.413,0.438716
234.6000,-26.4638,230.955,0.459037
234.5000,-26.8794,230.682,0.455447
234.4000,-28.0636,230.547,0.453673
234.3000,-28.5639,231.366,0.464423
234.2000,-30.9748,230.568,0.453941
234.1000,-31.8119,231.998,0.47271
234.0000,-28.8062,231.703,0.468851
233.9000,-33.4171,232.229,0.475735
233.8000,-30.9254,232.016,0.472948
233.7000,-32.8285,232.16,0.474831
233.6000,-31.9162,233.271,0.489347
233.5000,-29.5544,232.681,0.481645
233.4000,-31.3459,231.693,0.468718
233.3000,-31.415,233.699,0.49491
233.2000,-34.7482,233.612,0.493789
233.1000,-31.8134,233.363,0.490543
233.0000,-32.597,233.273,0.489361
232.9000,-35.1672,233.676,0.494615
232.8000,-35.9602,233.003,0.485845
232.7000,-35.4949,234.364,0.503556
232.6000,-35.0513,234.31,0.502864
232.5000,-34.727,235.346,0.516288
232.4000,-38.4809,235.284,0.515481
232.3000,-36.6929,235.491,0.518164
232.2000,-36.9293,235.237,0.51488
232.1000,-38.1899,236.049,0.525366
232.0000,-40.1242,236.878,0.536055
231.9000,-38.983,236.96,0.537105
231.8000,-42.6341,237.114,0.539087
231.7000,-41.253,236.501,0.531196
231.6000,-41.6947,237.659,0.546088
231.5000,-39.5842,238.12,0.552002
231.4000,-40.1473,238.073,0.551407
231.3000,-43.6726,238.345,0.55489
231.2000,-40.1019,237.791,0.547789
231.1000,-43.936,238.665,0.558979
231.0000,-44.6356,239.22,0.566073
230.9000,-44.6844,239.882,0.57451
230.8000,-46.9152,239.464,0.569182
230.7000,-45.4414,239.398,0.568343
230.6000,-47.7745,239.11,0.56467
230.5000,-45.6008,240.617,0.583864
230.4000,-44.9063,240.417,0.581315
230.3000,-45.9343,239.881,0.574496
230.2000,-47.1343,240.533,0.582799
230.1000,-47.8596,240.336,0.580292
230.0000,-48.5069,241.278,0.592246
229.9000,-48.8888,240.726,0.585245
229.8000,-48.614,241.987,0.601226
229.7000,-49.9958,241.82,0.599119
229.6000,-48.1201,242.028,0.601741
229.5000,-50.9631,241.339,0.593022
229.4000,-49.6944,242.618,0.609197
229.3000,-50.8589,242.45,0.60708
229.2000,-49.9566,242.509,0.607824
229.1000,-55.3453,243.43,0.619433
229.0000,-54.8048,243.59,0.621443
228.9000,-50.6273,243.211,0.616666
228.8000,-51.4269,244.191,0.628987
228.7000,-52.5735,244.039,0.627081
228.6000,-55.5406,244.813,0.636785
228.5000,-54.7343,245.599,0.64662
228.4000,-56.4867,245.661,0.647398
228.3000,-56.2119,245.31,0.643009
228.2000,-57.1997,246.003,0.651654
228.1000,-58.715,246.432,0.657007
228.0000,-58.0474,246.992,0.663972
227.9000,-57.9415,246.96,0.663577
227.8000,-59.2619,246.287,0.6552
227.7000,-59.5483,247.922,0.675519
227.6000,-60.7349,247.998,0.676459
227.5000,-60.3587,248.805,0.686441
227.4000,-58.8223,247.178,0.666281
227.3000,-60.3484,247.825,0.674311
227.2000,-63.5697,249.113,0.690248
227.1000,-63.1658,248.708,0.685251
227.0000,-63.12,249.346,0.693128
226.9000,-60.9869,249.568,0.695866
226.8000,-62.2712,249.853,0.69937
226.7000,-59.5093,250.496,0.707286
226.6000,-63.5083,250.655,0.709235
226.5000,-63.9977,250.011,0.701323
226.4000,-62.3316,251.515,0.719782
226.3000,-62.6342,251.361,0.717894
226.2000,-62.8918,250.885,0.712059
226.1000,-64.962,251.455,0.719046
226.0000,-64.1852,251.949,0.725093
225.9000,-66.9414,252.288,0.729233
225.8000,-66.3105,252.464,0.731392
225.7000,-63.0048,252.449,0.731198
225.6000,-62.0399,252.333,0.729787
225.5000,-67.7121,253.116,0.739337
225.4000,-65.9681,253.442,0.74331
225.3000,-63.9169,253.934,0.74929
225.2000,-67.4386,253.268,0.741186
225.1000,-67.1363,254.142,0.751822
225.0000,-67.3527,255.152,0.764059
224.9000,-68.8501,254.418,0.755163
224.8000,-66.8078,254.965,0.761796
224.7000,-69.0357,255.143,0.76395
224.6000,-69.548,256.072,0.775177
224.5000,-68.2387,255.223,0.764923
224.4000,-69.1862,256.35,0.778525
224.3000,-69.8889,256.932,0.785539
224.2000,-69.8134,256.841,0.784448
224.1000,-71.1554,257.909,0.797272
224.0000,-73.3614,257.161,0.788291
223.9000,-71.5901,257.488,0.792226
223.8000,-71.6811,258.329,0.80231
223.7000,-72.0525,258.168,0.800383
223.6000,-69.6164,258.574,0.805241
223.5000,-73.3037,258.676,0.806461
223.4000,-70.843,259.749,0.819278
223.3000,-69.5917,259.502,0.816331
223.2000,-74.5951,259.356,0.814586
223.1000,-73.854,259.172,0.812394
223.0000,-69.8296,259.97,0.821911
222.9000,-71.8829,260.525,0.828521
222.8000,-70.2603,261.126,0.835657
222.7000,-71.6379,261.344,0.838252
222.6000,-71.5641,261.405,0.838978
222.5000,-71.7273,262.524,0.852219
222.4000,-70.08,260.729,0.830946
222.3000,-72.4369,262.841,0.855967
222.2000,-71.1923,262.587,0.852969
222.1000,-69.439,263.956,0.869108
222.0000,-71.6122,263.324,0.861662
221.9000,-75.0929,262.678,0.85404
221.8000,-72.193,263.027,0.85816
221.7000,-72.1249,263.397,0.86253
221.6000,-74.6088,263.005,0.857906
221.5000,-75.7885,264.714,0.878016
221.4000,-74.2623,264.347,0.873704
221.3000,-69.7546,265.108,0.882642
221.2000,-73.5771,265.354,0.885523
221.1000,-73.3257,265.199,0.883704
221.0000,-75.5846,266.05,0.893664
220.9000,-74.8664,266.696,0.901206
220.8000,-72.4873,265.761,0.890285
220.7000,-70.9035,268.273,0.91956
220.6000,-71.9442,265.77,0.890391
220.5000,-73.4801,267.201,0.907096
220.4000,-76.4793,267.884,0.915046
220.3000,-74.3909,268.762,0.925238
220.2000,-72.1132,269.053,0.928599
220.1000,-72.3081,268.493,0.922111
220.0000,-69.1296,269.136,0.929569
219.9000,-75.4099,270.052,0.940154
219.8000,-73.5204,269.566,0.934538
219.7000,-73.7462,270.266,0.942625
219.6000,-73.0345,270.814,0.948947
219.5000,-72.7883,271.38,0.955454
219.4000,-73.7354,271.1,0.952235
219.3000,-71.7351,271.587,0.957837
219.2000,-71.496,271.822,0.960532
219.1000,-75.3313,272.171,0.964537
219.0000,-69.8806,272.853,0.972353
218.9000,-71.8528,272.395,0.967109
218.8000,-73.2547,273.053,0.974647
218.7000,-76.8881,272.519,0.968525
218.6000,-76.2797,273.263,0.977045
218.5000,-71.4265,274.035,0.985855
218.4000,-68.6023,273.527,0.980062
218.3000,-71.5891,274.861,0.995265
218.2000,-71.4736,274.379,0.989782
218.1000,-73.8573,274.248,0.988284
218.0000,-71.0987,275.027,0.997159
217.9000,-71.353,276.029,1.00853
217.8000,-70.3816,276.105,1.00939
217.7000,-76.4493,277.034,1.01991
217.6000,-73.8515,276.593,1.01492
217.5000,-77.3675,278.628,1.03788
217.4000,-70.9303,277.594,1.02623
217.3000,-69.257,277.411,1.02417
217.2000,-71.3831,278.483,1.03625
217.1000,-74.8532,279.09,1.04308
217.0000,-71.9698,279.102,1.04321
216.9000,-70.1164,279.385,1.04639
216.8000,-72.3613,280.385,1.0576
216.7000,-69.5253,280.404,1.05781
216.6000,-70.129,279.913,1.05231
216.5000,-74.1995,281.174,1.06642
216.4000,-69.9147,280.444,1.05826
216.3000,-71.2805,281.856,1.07402
216.2000,-67.4193,282.291,1.07887
216.1000,-71.7858,282.266,1.07859
216.0000,-67.6481,282.697,1.08338
215.9000,-67.9451,282.853,1.08512
215.8000,-66.9783,283.401,1.09119
215.7000,-73.3245,283.59,1.09329
215.6000,-72.7922,284.399,1.10225
215.5000,-70.0681,284.901,1.10779
215.4000,-71.761,285.073,1.1097
215.3000,-72.2217,284.938,1.10821
215.2000,-74.4123,285.914,1.11896
215.1000,-76.0718,286.263,1.1228
215.0000,-73.5015,286.208,1.12221
214.9000,-64.7604,286.766,1.12833
214.8000,-71.2854,287.262,1.13378
214.7000,-73.636,287.295,1.13414
214.6000,-73.6095,287.909,1.14087
214.5000,-71.68,287.961,1.14144
214.4000,-72.7982,289.763,1.16111
214.3000,-73.2324,289.388,1.15702
214.2000,-73.1928,289.554,1.15884
214.1000,-73.2484,289.368,1.15681
214.0000,-71.082,290.407,1.16812
213.9000,-73.5668,290.899,1.17346
213.8000,-77.5036,291.441,1.17933
213.7000,-70.1755,292.597,1.19184
213.6000,-73.3329,292.67,1.19263
213.5000,-66.6011,292.878,1.19487
213.4000,-75.4455,292.642,1.19233
213.3000,-70.5824,293.365,1.20012
213.2000,-75.9915,293.692,1.20365
213.1000,-74.2676,294.44,1.2117
213.0000,-75.7821,294.457,1.21188
212.9000,-75.8003,294.673,1.2142
212.8000,-71.7322,295.139,1.2192
212.7000,-70.8555,295.703,1.22524
212.6000,-69.3948,296.269,1.23129
212.5000,-72.5038,297.07,1.23985
212.4000,-73.5934,297.298,1.24227
212.3000,-74.9318,298.018,1.24995
212.2000,-72.6847,298.487,1.25493
212.1000,-71.9975,298.785,1.2581
212.0000,-69.8232,299.422,1.26485
211.9000,-76.6363,300.842,1.27986
211.8000,-69.0219,300.395,1.27515
211.7000,-73.3014,302.035,1.29243
211.6000,-66.9357,302.02,1.29228
211.5000,-71.2978,303.113,1.30375
211.4000,-69.0483,303.549,1.30832
211.3000,-78.071,304.207,1.31521
211.2000,-71.1088,304.774,1.32113
211.1000,-74.8437,305.04,1.32391
211.0000,-74.3879,305.268,1.32628
210.9000,-74.8805,306.16,1.33558
210.8000,-74.193,306.728,1.34148
210.7000,-82.4366,307.579,1.35031
210.6000,-77.1454,307.973,1.35439
210.5000,-73.2534,307.526,1.34976
210.4000,-73.7329,309.306,1.36815
210.3000,-80.4083,309.99,1.37521
210.2000,-71.913,310.051,1.37584
210.1000,-83.3048,310.832,1.38386
210.0000,-75.814,312.926,1.4053
209.9000,-72.9426,312.473,1.40067
209.8000,-75.9902,312.679,1.40278
209.7000,-74.8839,313.937,1.41561
209.6000,-74.3685,315.24,1.42886
209.5000,-68.8572,316.095,1.43753
209.4000,-80.5068,317.088,1.44757
209.3000,-74.1023,317.551,1.45225
209.2000,-78.9176,319.028,1.46711
209.1000,-76.339,318.843,1.46526
209.0000,-74.2194,320.931,1.4862
208.9000,-72.9509,320.26,1.47948
208.8000,-73.7169,321.342,1.49031
208.7000,-78.8381,321.602,1.4929
208.6000,-76.5291,322.554,1.50239
208.5000,-78.9385,322.103,1.49789
208.4000,-67.7913,324.228,1.51902
208.3000,-78.4207,324.198,1.51872
208.2000,-75.2876,326.113,1.53766
208.1000,-81.2806,327.27,1.54906
208.0000,-81.8544,328.96,1.56565
207.9000,-71.4674,329.318,1.56916
207.8000,-69.8508,329.736,1.57325
207.7000,-72.8154,331.404,1.58952
207.6000,-71.6873,332.572,1.60087
207.5000,-68.5571,333.438,1.60926
207.4000,-74.378,334.508,1.61961
207.3000,-71.9161,335.718,1.63128
207.2000,-69.1053,335.909,1.63312
207.1000,-66.3937,337.533,1.64872
207.0000,-75.8381,338.152,1.65465
206.9000,-64.6381,339.831,1.67069
206.8000,-67.6021,339.138,1.66408
206.7000,-67.4157,340.84,1.6803
206.6000,-65.0396,342.753,1.69844
206.5000,-71.4901,343.396,1.70453
206.4000,-69.8623,345.936,1.72845
206.3000,-70.954,346.787,1.73643
206.2000,-53.9792,347.176,1.74008
206.1000,-56.0713,348.481,1.75227
206.0000,-53.6955,350.615,1.77215
205.9000,-59.251,351.768,1.78283
205.8000,-62.2919,352.529,1.78988
205.7000,-63.0291,353.758,1.80122
205.6000,-58.9955,355.308,1.81548
205.5000,-50.3758,356.436,1.82582
205.4000,-56.2742,358.384,1.84362
205.3000,-53.6239,359.037,1.84958
205.2000,-45.1243,360.467,1.86257
205.1000,-53.789,361.802,1.87466
205.0000,-47.7148,363.9,1.8936
204.9000,-40.2176,365.477,1.90776
204.8000,-41.383,366.885,1.92037
204.7000,-53.8063,368.364,1.93357
204.6000,-47.1297,369.714,1.94558
204.5000,-32.8947,369.999,1.94811
204.4000,-48.8458,373.38,1.978
204.3000,-34.8793,374.873,1.99114
204.2000,-36.4582,376.099,2.00188
204.1000,-38.6744,377.709,2.01596
204.0000,-39.6091,379.515,2.03168
203.9000,-32.2801,381.409,2.0481
203.8000,-35.3202,382.794,2.06007
203.7000,-21.8428,385.426,2.08271
203.6000,-21.7983,386.254,2.0898
203.5000,-26.4876,388.726,2.11091
203.4000,-25.2906,390.805,2.12858
203.3000,-24.2664,391.899,2.13784
203.2000,-21.4349,394.056,2.15604
203.1000,-27.254,396.067,2.17294
203.0000,-30.4221,397.297,2.18323
202.9000,-14.3725,398.262,2.1913
202.8000,-12.7721,400.852,2.21285
202.7000,-4.79518,402.801,2.22899
202.6000,-16.8363,403.757,2.23689
202.5000,-13.2492,406.898,2.26271
202.4000,-8.5751,408.532,2.27608
202.3000,-2.81677,410.057,2.28851
202.2000,-5.54443,412.852,2.31121
202.1000,-3.13596,415.044,2.32891
202.0000,-13.8579,417.837,2.35135
201.9000,-15.7465,419.659,2.36593
201.8000,-11.3474,422.898,2.39171
201.7000,3.88032,424.733,2.40624
201.6000,1.57106,426.926,2.42354
201.5000,9.11209,429.485,2.44362
201.4000,3.22548,430.825,2.45411
201.3000,4.7804,433.654,2.47614
201.2000,8.60226,436.493,2.49813
201.1000,12.4891,438.265,2.51179
201.0000,8.94714,440.552,2.52937
200.9000,4.61775,443.213,2.5497
200.8000,6.55157,445.51,2.56718
200.7000,8.7168,447.38,2.58136
200.6000,12.869,449.861,2.60008
200.5000,12.3859,452.647,2.62101
200.4000,15.6745,456.221,2.64769
200.3000,9.8797,459.004,2.66835
200.2000,19.8591,460.559,2.67985
200.1000,1.42759,463.778,2.70354
200.0000,20.1178,466.709,2.725
199.9000,14.8739,469.95,2.74858
199.8000,13.9403,472.285,2.7655
199.7000,19.269,474.737,2.78318
199.6000,16.4874,478.218,2.80815
199.5000,22.7139,480.741,2.82615
199.4000,22.3469,482.75,2.84043
199.3000,21.4809,485.315,2.85859
199.2000,21.5586,487.105,2.87121
199.1000,15.5533,489.559,2.88845
199.0000,43.958,492.76,2.91083
198.9000,37.5944,495.583,2.93047
198.8000,29.5456,499.733,2.95916
198.7000,33.3779,502.139,2.97571
198.6000,31.5104,506.272,3.00397
198.5000,16.7534,508.699,3.02047
198.4000,28.4373,512.767,3.048
198.3000,12.5941,515.243,3.06465
198.2000,33.2124,518.121,3.08393
198.1000,25.5044,520.891,3.1024
198.0000,17.5313,523.916,3.12247
197.9000,39.7722,527.107,3.14354
197.8000,18.6823,530.061,3.16295
197.7000,18.7298,533.606,3.18612
197.6000,24.2222,536.14,3.20261
197.5000,25.8124,539.773,3.22612
197.4000,17.0802,542.65,3.24465
197.3000,30.2493,546.798,3.27121
197.2000,22.6688,549.282,3.28704
197.1000,13.3762,552.598,3.30808
197.0000,27.579,556.159,3.33055
196.9000,31.2038,559.187,3.34956
196.8000,35.5438,562.704,3.37153
196.7000,32.4413,566.196,3.39323
196.6000,19.0657,569.119,3.41131
196.5000,38.655,573.518,3.43836
196.4000,24.7787,576.552,3.45692
196.3000,34.4518,580.503,3.48097
196.2000,34.8049,583.669,3.50013
196.1000,39.2412,588.001,3.52622
196.0000,36.6873,591.323,3.54611
195.9000,19.7682,594.562,3.56541
195.8000,24.2066,597.785,3.58453
195.7000,22.9987,601.412,3.60594
195.6000,23.0811,603.735,3.61959
195.5000,33.2622,606.756,3.63729
195.4000,25.58,609.871,3.65545
195.3000,15.546,612.505,3.67075
195.2000,19.2891,615.251,3.68664
195.1000,21.3571,617.384,3.69894
195.0000,38.7253,621.001,3.71972
194.9000,21.0818,623.58,3.73447
194.8000,32.9699,626.635,3.75187
194.7000,23.8414,628.911,3.7648
194.6000,19.5022,632.547,3.78535
194.5000,24.8876,634.936,3.7988
194.4000,17.2614,637.509,3.81325
194.3000,30.1427,640.563,3.83032
194.2000,19.6544,643.83,3.84852
194.1000,20.6323,646.869,3.86537
194.0000,15.7912,649.58,3.88034
193.9000,10.2389,653.906,3.90413
193.8000,10.7626,657.426,3.92339
193.7000,24.0979,660.119,3.93806
193.6000,21.1756,663.396,3.95585
193.5000,11.2653,666.159,3.97078
193.4000,24.1527,668.282,3.98223
193.3000,29.8915,670.155,3.99229
193.2000,21.9356,671.97,4.00203
193.1000,22.5849,675.606,4.02146
193.0000,20.4101,677.669,4.03245
192.9000,18.3251,679.817,4.04386
192.8000,14.7939,682.296,4.05699
192.7000,20.0672,685.291,4.07279
192.6000,21.0015,688.81,4.09129
192.5000,29.5773,691.538,4.10558
192.4000,23.6589,695.238,4.12487
192.3000,4.77131,698.626,4.14247
192.2000,20.8434,701.031,4.15491
192.1000,12.935,703.626,4.1683
192.0000,14.8743,705.559,4.17825
191.9000,20.8759,708.541,4.19354
191.8000,18.2102,711.839,4.2104
191.7000,19.3053,714.815,4.22554
191.6000,17.7611,716.732,4.23528
191.5000,19.9888,718.677,4.24513
191.4000,19.5004,721.961,4.26171
191.3000,-1.47497,725.707,4.28054
191.2000,10.9798,729.147,4.29776
191.1000,9.93664,732.474,4.31435
191.0000,2.26185,735.646,4.33011
190.9000,17.0939,739.851,4.35091
190.8000,27.3781,743.221,4.3675
190.7000,35.8251,747.425,4.38812
190.6000,1.33827,751.913,4.41001
190.5000,17.7429,752.66,4.41365
190.4000,5.30601,756.971,4.43456
190.3000,18.1451,759.887,4.44865
190.2000,12.5589,763.536,4.46621
190.1000,19.0538,765.662,4.47641
190.0000,3.58022,768.924,4.49201

##### Extended Information
[Comments]
Sample name,AZNTEA_BUFFER&PROTEIN_928
Comment,BUFFER7PROTIEN
User,ALEXZHANG
Division
Company,Saint Mary's College

[Detailed Information]
Creation date,9/28/2022 3:50 PM

Data array type,Linear data array * 3
Horizontal axis,Wavelength [nm]
Vertical axis(1),CD [mdeg]
Vertical axis(2),HT [V]
Vertical axis(3),Abs
Start,320 nm
End,190 nm
Data interval,0.1 nm
Data points,1301    

[Measurement Information]
Instrument name,J-1500
Model name,J-1500
Serial No.,B051061638

Detector,PM-539
Detector S/N,B051061638
  Lock-in amp.,X mode
  HT volt,Auto

Accessory,PTC-517
Accessory S/N,B026561646
  Temperature,23.07 C
  Control sensor,Holder
  Monitor sensor,Holder

Measurement date,9/28/2022 3:50 PM

CD Overload detect,920
Photometric mode,CD, HT, Abs
Measure range,320 - 190 nm
Data pitch,0.1 nm
CD scale,20 mdeg/0.05 dOD
FL scale,20 mdeg/0.05 dOD
D.I.T.,8 msec
Bandwidth,2.00 nm
Start mode,Immediately
Scanning mode,Continuous
Scanning speed,200 nm/min
Baseline correction,None
Shutter control,Auto
No. of cycle,1/1
N2 Flowmeter,Manual

Solvent,NaPO4 buffer

