TITLE,AZNTEA_BUFFER&PROTEIN_928
DATA TYPE,
ORIGIN,JASCO
OWNER,
DATE,22/09/28
TIME,15:49:20
SPECTROMETER/DATA SYSTEM,
LOCALE,1033
RESOLUTION,
DELTAX,-0.1
XUNITS,NANOMETERS
YUNITS,CD [mdeg]
Y2UNITS,HT [V]
Y3UNITS,ABSORBANCE
FIRSTX,  320.0000
LASTX,  190.0000
NPOINTS,    1301
FIRSTY,     2.19086
MAXY,    44.79960
MINY,   -82.62258
XYDATA
320.0000,2.19086,208.166,0.146583
319.9000,2.68992,208.745,0.154863
319.8000,0.965764,208.859,0.156497
319.7000,1.23095,208.736,0.154733
319.6000,-0.709615,208.481,0.15109
319.5000,-0.837726,209.153,0.160684
319.4000,0.71381,208.552,0.152111
319.3000,1.91354,208.216,0.147297
319.2000,0.955441,208.855,0.156432
319.1000,1.10265,207.806,0.141421
319.0000,2.35208,208.328,0.148902
318.9000,2.61602,207.931,0.143224
318.8000,-0.0381984,209.514,0.165835
318.7000,1.62053,207.897,0.142737
318.6000,-0.55326,208.657,0.1536
318.5000,3.43534,208.583,0.152548
318.4000,0.79639,208.568,0.152337
318.3000,1.07793,208.169,0.146632
318.2000,2.13282,208.071,0.145221
318.1000,1.67258,207.875,0.142412
318.0000,0.556835,208.7,0.154215
317.9000,1.80937,209.352,0.163527
317.8000,1.25756,208.857,0.156465
317.7000,-0.37158,208.344,0.149129
317.6000,1.47613,207.931,0.143224
317.5000,1.8496,207.209,0.132851
317.4000,0.945669,207.002,0.129886
317.3000,0.976664,207.797,0.141292
317.2000,0.480461,208.19,0.146924
317.1000,2.30599,208.66,0.153649
317.0000,0.787247,209.382,0.163947
316.9000,0.540129,208.96,0.157937
316.8000,2.29653,208.069,0.145188
316.7000,0.120253,208.208,0.147183
316.6000,0.641287,208.287,0.148319
316.5000,-0.137838,208.048,0.144896
316.4000,2.12966,208.056,0.14501
316.3000,0.826127,209.112,0.160103
316.2000,1.56711,207.529,0.137456
316.1000,3.20301,208.36,0.149356
316.0000,2.14757,207.903,0.142818
315.9000,1.10809,207.565,0.137976
315.8000,2.00466,208.624,0.153131
315.7000,3.34414,207.173,0.132346
315.6000,0.433164,208.813,0.155834
315.5000,1.28697,208.223,0.147394
315.4000,-0.350948,207.476,0.136691
315.3000,0.85265,207.786,0.141145
315.2000,1.87657,207.751,0.140642
315.1000,1.67472,208.244,0.147703
315.0000,0.856893,208.585,0.15258
314.9000,0.845336,207.519,0.137309
314.8000,1.34701,208.561,0.15224
314.7000,1.84914,208.39,0.149794
314.6000,1.5837,208.287,0.148319
314.5000,1.7174,208.019,0.144474
314.4000,2.37835,207.532,0.137488
314.3000,0.209407,207.5,0.137033
314.2000,2.47972,207.734,0.140398
314.1000,1.9006,208.318,0.148757
314.0000,-0.317082,207.755,0.14069
313.9000,2.48711,208.138,0.146178
313.8000,2.55746,207.68,0.139618
313.7000,2.125,207.851,0.142071
313.6000,2.82964,207.92,0.143062
313.5000,1.48358,207.596,0.138415
313.4000,1.14026,208.18,0.146778
313.3000,2.25866,207.85,0.142055
313.2000,1.63884,208.276,0.148156
313.1000,2.36454,208.526,0.151738
313.0000,2.1334,207.845,0.14199
312.9000,0.407795,206.836,0.12749
312.8000,0.701081,207.064,0.130766
312.7000,1.3509,207.17,0.132297
312.6000,0.23728,207.572,0.138074
312.5000,1.29559,208.595,0.152726
312.4000,1.04585,207.304,0.134218
312.3000,0.409039,208.043,0.144815
312.2000,1.03661,209.159,0.160765
312.1000,0.751616,207.896,0.142721
312.0000,3.47189,207.904,0.142835
311.9000,1.28327,209.113,0.160119
311.8000,0.864114,207.613,0.138659
311.7000,1.66329,207.682,0.13965
311.6000,2.03626,206.983,0.129609
311.5000,-0.228015,207.237,0.133258
311.4000,1.92705,207.5,0.137033
311.3000,2.39513,208.176,0.14673
311.2000,0.987449,207.682,0.13965
311.1000,-0.0553274,207.967,0.143728
311.0000,1.54935,208.009,0.144328
310.9000,2.10932,207.618,0.138724
310.8000,1.97857,207.466,0.136545
310.7000,-0.644549,207.709,0.14004
310.6000,2.42717,207.82,0.141633
310.5000,0.643054,208.386,0.149729
310.4000,-0.665268,208.714,0.154426
310.3000,2.00058,208.35,0.14921
310.2000,1.3914,207.854,0.14212
310.1000,0.729901,208.499,0.151349
310.0000,1.67595,207.359,0.135015
309.9000,0.557822,208.175,0.146713
309.8000,-0.346439,207.138,0.131841
309.7000,0.180335,207.941,0.143354
309.6000,1.78449,207.946,0.143435
309.5000,0.856445,208.157,0.146454
309.4000,1.88357,208.446,0.150588
309.3000,1.92606,207.918,0.143029
309.2000,2.60748,207.739,0.140463
309.1000,0.717752,208.335,0.149
309.0000,1.8424,208.297,0.148465
308.9000,2.25161,207.896,0.142721
308.8000,1.43035,209.221,0.161654
308.7000,0.749212,208.288,0.148335
308.6000,0.30194,208.226,0.147443
308.5000,2.22831,209.074,0.159553
308.4000,2.36731,207.122,0.131613
308.3000,1.46005,209.225,0.161719
308.2000,0.998204,208.523,0.15169
308.1000,1.78957,208.175,0.146713
308.0000,1.34219,206.824,0.127327
307.9000,0.829635,207.989,0.144052
307.8000,-0.51536,207.393,0.135504
307.7000,0.433388,207.385,0.13539
307.6000,1.53407,207.941,0.143354
307.5000,0.243604,207.918,0.143029
307.4000,0.228457,208.648,0.153471
307.3000,1.4867,207.944,0.143403
307.2000,0.861345,207.742,0.140512
307.1000,2.76002,207.698,0.139878
307.0000,2.07102,207.528,0.137439
306.9000,1.36077,207.641,0.139065
306.8000,1.32215,208.154,0.146405
306.7000,0.928571,207.401,0.135618
306.6000,1.55277,207.534,0.137521
306.5000,2.52947,208.418,0.150183
306.4000,0.554939,209.566,0.166577
306.3000,1.36407,207.155,0.132085
306.2000,1.85985,208.825,0.156012
306.1000,-0.041596,207.529,0.137456
306.0000,1.84034,208.463,0.150831
305.9000,1.85547,207.973,0.143825
305.8000,0.706597,208.129,0.146048
305.7000,0.148842,207.968,0.143744
305.6000,0.433488,208.501,0.151382
305.5000,1.50709,207.424,0.135943
305.4000,-0.759037,207.669,0.139455
305.3000,1.99631,208.02,0.14449
305.2000,-0.042762,208.2,0.14707
305.1000,2.19711,207.053,0.130619
305.0000,2.06706,207.385,0.13539
304.9000,1.96251,207.926,0.143143
304.8000,0.970082,207.498,0.137
304.7000,1.25641,207.102,0.13132
304.6000,2.32553,208.244,0.147703
304.5000,0.923519,208.218,0.14733
304.4000,1.22536,208.92,0.157354
304.3000,1.08695,206.794,0.126886
304.2000,0.271826,206.402,0.121239
304.1000,3.1641,208.731,0.154669
304.0000,1.78576,207.667,0.139439
303.9000,1.93479,207.989,0.144052
303.8000,1.34416,206.95,0.129136
303.7000,0.542918,207.913,0.142964
303.6000,1.99107,206.191,0.118199
303.5000,2.37021,208.276,0.148156
303.4000,2.13427,207.411,0.135764
303.3000,1.03649,208.261,0.147946
303.2000,1.56983,207.679,0.139602
303.1000,2.36584,206.919,0.12868
303.0000,1.17972,208.439,0.150491
302.9000,0.866695,207.505,0.137114
302.8000,1.2652,207.653,0.139228
302.7000,0.600921,208.212,0.147248
302.6000,0.385951,207.179,0.132427
302.5000,0.980157,207.058,0.130684
302.4000,1.91637,207.96,0.14363
302.3000,0.351145,207.442,0.136203
302.2000,1.48681,207.663,0.139374
302.1000,-0.207064,207.943,0.143386
302.0000,0.937142,207.23,0.13316
301.9000,1.67715,206.903,0.128452
301.8000,1.65781,206.874,0.128044
301.7000,0.822179,207.467,0.136561
301.6000,0.875338,207.037,0.130391
301.5000,0.718962,207.81,0.141486
301.4000,0.800864,207.576,0.138123
301.3000,0.660215,207.708,0.140024
301.2000,1.856,207.054,0.130636
301.1000,0.157112,207.346,0.13482
301.0000,1.15246,207.261,0.1336
300.9000,1.52456,207.3,0.134169
300.8000,-0.597414,206.651,0.124831
300.7000,2.32058,207.692,0.139797
300.6000,2.23677,207.045,0.130505
300.5000,1.1999,206.754,0.126316
300.4000,1.41861,207.185,0.132509
300.3000,1.65338,206.89,0.128272
300.2000,1.60821,207.381,0.135325
300.1000,2.29829,207.298,0.134137
300.0000,1.76192,208.058,0.145042
299.9000,0.479582,207.462,0.136496
299.8000,1.36569,206.915,0.128631
299.7000,0.289555,207.745,0.140544
299.6000,2.64312,206.817,0.127213
299.5000,1.33693,207.734,0.140398
299.4000,1.40996,207.213,0.132916
299.3000,0.0520223,207.205,0.132802
299.2000,0.935567,207.203,0.132769
299.1000,0.647329,206.726,0.125908
299.0000,0.127249,207.325,0.134527
298.9000,0.25952,207.699,0.139894
298.8000,0.0243425,208.376,0.149583
298.7000,1.52871,207.042,0.130456
298.6000,1.85501,207.466,0.136545
298.5000,2.78191,207.92,0.143062
298.4000,0.820186,208.219,0.147346
298.3000,0.0602222,207.38,0.135309
298.2000,0.649506,208.49,0.15122
298.1000,1.92879,207.667,0.139439
298.0000,0.90533,206.521,0.122953
297.9000,0.970608,207.104,0.131352
297.8000,1.87168,206.682,0.125271
297.7000,1.66183,207.33,0.134592
297.6000,2.18162,206.984,0.129625
297.5000,-0.44998,206.869,0.127963
297.4000,1.98602,207.03,0.130277
297.3000,2.35017,207.596,0.138415
297.2000,1.86296,205.947,0.114682
297.1000,3.07568,206.932,0.128876
297.0000,1.70763,206.881,0.128142
296.9000,1.81271,207.005,0.129919
296.8000,0.572518,207.45,0.136317
296.7000,1.0253,207.074,0.130913
296.6000,1.93761,206.793,0.12687
296.5000,1.17134,206.951,0.129152
296.4000,0.951686,207.52,0.137326
296.3000,1.31579,208.122,0.145951
296.2000,0.554545,207.901,0.142786
296.1000,0.191618,207.371,0.135178
296.0000,1.54546,208.907,0.157177
295.9000,-0.284921,206.175,0.11797
295.8000,1.91184,206.377,0.120879
295.7000,-0.366054,206.98,0.12956
295.6000,1.24041,207.88,0.142493
295.5000,0.464717,206.175,0.11797
295.4000,2.43722,207.196,0.132672
295.3000,2.15471,207.013,0.130033
295.2000,1.98684,207.998,0.144182
295.1000,1.92375,206.684,0.125304
295.0000,2.53361,207.217,0.132965
294.9000,1.57571,206.95,0.129136
294.8000,-0.800523,206.81,0.127115
294.7000,0.473274,207.212,0.132899
294.6000,1.57393,206.776,0.126625
294.5000,2.34691,207.184,0.132492
294.4000,2.15127,207.388,0.135422
294.3000,1.2457,206.181,0.118052
294.2000,0.709676,207.142,0.13189
294.1000,1.52471,207.359,0.135015
294.0000,0.881731,207.094,0.131206
293.9000,0.111625,207.092,0.131173
293.8000,0.84248,206.99,0.129707
293.7000,0.5481,206.117,0.117136
293.6000,0.66063,207.162,0.132183
293.5000,1.52765,207.002,0.129886
293.4000,1.23619,207.283,0.133925
293.3000,0.572416,207.491,0.136903
293.2000,2.40877,207.289,0.134007
293.1000,1.82622,206.499,0.122643
293.0000,2.47187,207.037,0.130391
292.9000,2.00102,206.713,0.125728
292.8000,0.577858,207.236,0.133242
292.7000,1.61389,206.999,0.129837
292.6000,0.98877,208.151,0.146372
292.5000,1.15116,206.699,0.125516
292.4000,1.6776,206.384,0.120977
292.3000,0.58601,206.828,0.127376
292.2000,-1.24351,207.683,0.139667
292.1000,1.64214,207.301,0.134186
292.0000,2.39023,207.238,0.133274
291.9000,1.278,208.314,0.148708
291.8000,0.34992,206.915,0.128631
291.7000,1.69491,206.792,0.126854
291.6000,2.28629,207.166,0.132232
291.5000,-0.222134,206.65,0.124814
291.4000,0.915108,207.176,0.132378
291.3000,1.19092,207.162,0.132183
291.2000,0.120531,206.923,0.128745
291.1000,0.564803,206.92,0.128696
291.0000,0.62237,207.575,0.138106
290.9000,0.636137,207.522,0.137358
290.8000,2.53979,206.657,0.124912
290.7000,-0.331587,206.865,0.127914
290.6000,0.186569,207.606,0.138561
290.5000,1.97429,206.379,0.120912
290.4000,0.508662,207.805,0.141405
290.3000,1.7892,206.643,0.124716
290.2000,0.518205,207.154,0.132069
290.1000,0.401504,207.831,0.141779
290.0000,1.12331,206.962,0.129299
289.9000,1.16385,207.494,0.136952
289.8000,1.50781,207.228,0.133127
289.7000,1.56631,206.611,0.124259
289.6000,3.10768,206.556,0.12346
289.5000,1.23261,207.604,0.138529
289.4000,1.5971,207.759,0.140755
289.3000,2.08966,207.905,0.142851
289.2000,0.178706,207.265,0.133665
289.1000,1.95631,207.491,0.136903
289.0000,0.741441,206.713,0.125728
288.9000,-0.149148,207.247,0.133404
288.8000,0.927497,208.261,0.147946
288.7000,1.27977,207.104,0.131352
288.6000,1.43493,207.273,0.133779
288.5000,-1.46224,206.977,0.129527
288.4000,0.924638,207.901,0.142786
288.3000,1.23539,208.19,0.146924
288.2000,2.75413,207.836,0.14186
288.1000,1.16355,207.771,0.140918
288.0000,1.37418,208.005,0.144279
287.9000,-0.685679,206.3,0.119768
287.8000,0.76998,207.236,0.133242
287.7000,2.23094,208.642,0.15339
287.6000,0.870684,207.253,0.133486
287.5000,0.3562,207.762,0.140788
287.4000,1.1842,206.364,0.1207
287.3000,0.189008,207.794,0.141259
287.2000,1.66081,207.425,0.135959
287.1000,1.1898,207.667,0.139439
287.0000,0.975867,207.299,0.134153
286.9000,-0.644554,207.619,0.13874
286.8000,1.93142,208.277,0.148173
286.7000,1.09426,208.458,0.150766
286.6000,1.33813,206.878,0.128093
286.5000,0.905813,208.07,0.145204
286.4000,0.471413,208.573,0.152402
286.3000,-0.269267,207.601,0.13848
286.2000,1.39494,207.876,0.142429
286.1000,1.11776,207.827,0.14173
286.0000,1.30653,207.883,0.142526
285.9000,2.86979,207.674,0.139537
285.8000,0.476924,207.606,0.138561
285.7000,1.24131,207.908,0.142883
285.6000,1.63448,207.996,0.14415
285.5000,1.52218,208.079,0.145334
285.4000,0.511628,208.22,0.147362
285.3000,1.91267,208.949,0.157775
285.2000,-0.241456,208.625,0.153147
285.1000,1.422,207.447,0.136268
285.0000,1.06707,208.873,0.156691
284.9000,1.11103,207.305,0.134234
284.8000,2.74493,208.865,0.156578
284.7000,1.85882,208.027,0.144588
284.6000,1.62969,207.917,0.143013
284.5000,2.10913,208.165,0.146567
284.4000,2.94231,208.342,0.149097
284.3000,0.738976,208.02,0.14449
284.2000,0.06924,207.853,0.142104
284.1000,1.97894,207.987,0.14402
284.0000,0.154103,208.585,0.15258
283.9000,1.01638,207.238,0.133274
283.8000,1.72544,206.82,0.127261
283.7000,1.19499,207.653,0.139228
283.6000,2.71241,207.858,0.142168
283.5000,1.22745,207.768,0.140886
283.4000,2.50325,207.993,0.144101
283.3000,0.655217,208.507,0.151463
283.2000,1.65981,207.997,0.144166
283.1000,1.85332,208.54,0.151932
283.0000,0.638498,207.874,0.142396
282.9000,-0.623815,208.61,0.152936
282.8000,0.0786178,209.904,0.171382
282.7000,0.109788,208.679,0.153924
282.6000,1.78976,207.74,0.140479
282.5000,-0.478889,209.017,0.158745
282.4000,-0.907265,209.087,0.159747
282.3000,0.734312,208.842,0.156254
282.2000,0.593527,208.215,0.147281
282.1000,1.79872,208.353,0.149259
282.0000,1.33311,207.432,0.136057
281.9000,0.930895,207.656,0.139277
281.8000,-0.556349,207.69,0.139764
281.7000,0.0259523,207.444,0.136236
281.6000,0.553038,207.988,0.144036
281.5000,-0.667002,208.878,0.156756
281.4000,0.465819,208.679,0.153924
281.3000,1.21077,208.166,0.146583
281.2000,0.548855,208.314,0.148708
281.1000,-0.952545,208.521,0.151657
281.0000,1.03033,206.508,0.122774
280.9000,2.10903,208.458,0.150766
280.8000,1.11133,208.605,0.152855
280.7000,0.703998,206.755,0.126332
280.6000,1.42081,208.183,0.146827
280.5000,0.99974,209.57,0.166626
280.4000,0.924983,208.458,0.150766
280.3000,0.512163,208.634,0.153276
280.2000,-0.397743,207.388,0.135422
280.1000,1.1961,208.922,0.157387
280.0000,2.47267,208.423,0.150264
279.9000,1.36253,208.003,0.144247
279.8000,-0.425524,209.045,0.159149
279.7000,0.871938,208.307,0.148594
279.6000,0.0956657,209.075,0.159569
279.5000,0.448288,208.2,0.14707
279.4000,-0.327273,208.469,0.150912
279.3000,1.21345,209.125,0.16028
279.2000,1.31556,208.364,0.149421
279.1000,1.88909,207.462,0.136496
279.0000,1.34471,208.36,0.149356
278.9000,0.950027,208.337,0.149032
278.8000,0.373737,209.73,0.1689
278.7000,0.12151,207.861,0.142217
278.6000,1.89176,208.889,0.156918
278.5000,1.31339,209.699,0.168464
278.4000,0.585456,208.83,0.156077
278.3000,-1.2998,208.176,0.14673
278.2000,-0.136034,208.842,0.156254
278.1000,2.10257,207.714,0.140105
278.0000,0.85067,208.207,0.147167
277.9000,1.12521,208.787,0.155462
277.8000,0.982541,209.145,0.160571
277.7000,1.37762,207.488,0.13687
277.6000,-0.16301,207.768,0.140886
277.5000,0.740909,208.202,0.147102
277.4000,1.42069,208.845,0.156287
277.3000,0.317835,208.644,0.153422
277.2000,0.0586228,208.678,0.153908
277.1000,2.83478,209.355,0.16356
277.0000,2.47494,207.856,0.142136
276.9000,2.5335,207.564,0.13796
276.8000,0.199844,206.676,0.12519
276.7000,1.95877,209.092,0.159812
276.6000,0.597908,207.989,0.144052
276.5000,2.26355,207.24,0.133306
276.4000,1.00018,207.917,0.143013
276.3000,1.84071,207.193,0.132623
276.2000,0.95925,209.491,0.165496
276.1000,-2.06796,208.972,0.158098
276.0000,0.546991,208.269,0.148059
275.9000,1.092,209.527,0.166013
275.8000,2.06373,207.924,0.14311
275.7000,-0.152181,208.934,0.157565
275.6000,0.33088,207.929,0.143192
275.5000,0.293572,208.055,0.144993
275.4000,0.166541,207.584,0.138236
275.3000,0.830813,208.188,0.146892
275.2000,0.81101,208.416,0.150167
275.1000,2.17245,208.37,0.149502
275.0000,1.29149,208.669,0.153779
274.9000,0.482403,207.76,0.140772
274.8000,1.96002,207.952,0.143516
274.7000,1.62228,208.568,0.152337
274.6000,-0.723194,207.87,0.142347
274.5000,-1.32408,208.874,0.156707
274.4000,1.75239,208.147,0.146308
274.3000,0.480173,208.266,0.14801
274.2000,1.81041,208.411,0.150085
274.1000,0.628379,207.705,0.139975
274.0000,2.8959,208.513,0.151544
273.9000,-1.04281,208.716,0.154442
273.8000,-0.098289,208.98,0.158211
273.7000,-0.359393,208.309,0.148627
273.6000,1.00437,208.397,0.149891
273.5000,0.299453,208.001,0.144215
273.4000,0.196406,207.742,0.140512
273.3000,0.929682,208.404,0.149988
273.2000,0.594832,209.632,0.167513
273.1000,0.638505,207.774,0.140967
273.0000,0.750302,209.369,0.163769
272.9000,0.803527,209.112,0.160103
272.8000,2.84202,208.254,0.147848
272.7000,-0.95458,208.71,0.154361
272.6000,-1.59117,208.684,0.153989
272.5000,1.48356,208.155,0.146421
272.4000,1.8857,208.745,0.154863
272.3000,1.51451,208.719,0.154491
272.2000,-0.781564,208.478,0.151042
272.1000,-0.663413,207.219,0.132997
272.0000,-1.24612,207.973,0.143825
271.9000,0.297666,209.509,0.165755
271.8000,0.351528,209.491,0.165496
271.7000,2.09722,208.585,0.15258
271.6000,-1.31891,207.933,0.14324
271.5000,1.14663,208.506,0.151447
271.4000,0.651208,208.92,0.157354
271.3000,0.375388,210.227,0.17597
271.2000,1.55272,209.577,0.166723
271.1000,1.58403,209.044,0.159133
271.0000,1.08268,210.047,0.173411
270.9000,1.39739,208.53,0.151787
270.8000,0.895744,207.264,0.133649
270.7000,-0.83716,210.865,0.185017
270.6000,0.759911,208.339,0.149064
270.5000,-0.37122,208.654,0.153568
270.4000,-0.114748,209.163,0.16083
270.3000,1.24559,207.896,0.142721
270.2000,-0.54545,208.662,0.153681
270.1000,1.27352,209.118,0.160184
270.0000,1.49958,207.833,0.141811
269.9000,0.47582,208.217,0.147313
269.8000,-0.262828,208.616,0.153017
269.7000,0.831268,208.482,0.151106
269.6000,-0.809628,208.129,0.146048
269.5000,0.150364,209.322,0.163091
269.4000,-0.52416,209.095,0.15986
269.3000,0.879689,209.325,0.16314
269.2000,-0.321872,208.708,0.154329
269.1000,-0.335104,208.983,0.15826
269.0000,0.808101,209.127,0.160313
268.9000,-0.188896,208.43,0.150361
268.8000,-0.78603,209.131,0.160377
268.7000,-0.296691,209.188,0.161185
268.6000,0.441968,209.427,0.164592
268.5000,1.35898,209.406,0.164286
268.4000,-0.0148376,209.189,0.161201
268.3000,1.18004,209.086,0.159731
268.2000,0.00628782,208.939,0.157629
268.1000,-1.71405,208.644,0.153422
268.0000,0.528863,208.845,0.156287
267.9000,1.03368,208.714,0.154426
267.8000,0.034737,208.687,0.154037
267.7000,1.53983,208.923,0.157403
267.6000,0.349561,209.137,0.160458
267.5000,-0.767928,209.499,0.165609
267.4000,0.136313,210.728,0.183075
267.3000,0.779544,210.405,0.178495
267.2000,1.44815,208.92,0.157354
267.1000,-0.9998,210,0.172751
267.0000,-3.28742,209.333,0.163253
266.9000,0.110604,208.923,0.157403
266.8000,0.106431,208.831,0.156093
266.7000,1.89026,209.04,0.159068
266.6000,0.117046,208.394,0.149842
266.5000,-0.770817,209.154,0.160701
266.4000,0.808211,209.329,0.163188
266.3000,1.76285,210.041,0.17333
266.2000,1.40686,208.959,0.15792
266.1000,-0.47631,209.1,0.159925
266.0000,0.301618,209.792,0.169786
265.9000,-0.440025,209.02,0.158794
265.8000,0.636721,209.118,0.160184
265.7000,-0.869382,210.318,0.177257
265.6000,-0.600423,209.65,0.167771
265.5000,-1.62682,208.704,0.15428
265.4000,-1.12682,210.039,0.173298
265.3000,1.71277,209.608,0.167174
265.2000,-0.167541,209.308,0.162897
265.1000,1.02031,210.184,0.175359
265.0000,0.64973,209.743,0.169093
264.9000,-1.59465,210.321,0.177305
264.8000,0.472272,210.296,0.176951
264.7000,-0.108013,210.79,0.183958
264.6000,0.852778,208.811,0.155802
264.5000,-0.810226,209.458,0.165028
264.4000,0.0476263,210.474,0.179476
264.3000,0.872485,210.389,0.17827
264.2000,-0.061246,208.241,0.147654
264.1000,-1.41917,209.33,0.163204
264.0000,0.375776,210.058,0.173572
263.9000,1.15228,211.807,0.19833
263.8000,1.50896,210.615,0.181469
263.7000,-1.51769,210.622,0.181581
263.6000,-0.181194,210.629,0.181678
263.5000,0.913144,209.034,0.158987
263.4000,-0.188677,209.125,0.16028
263.3000,1.50012,210.873,0.18513
263.2000,1.23686,210.602,0.181292
263.1000,-0.379812,210.855,0.184873
263.0000,0.796537,210.855,0.184873
262.9000,-0.735664,210.13,0.174586
262.8000,1.02264,210.395,0.178351
262.7000,0.282349,210.686,0.182481
262.6000,-0.86153,209.375,0.16385
262.5000,0.97152,210.223,0.175906
262.4000,0.991817,211.111,0.188499
262.3000,1.03399,209.944,0.171945
262.2000,-0.805435,210.45,0.179138
262.1000,-0.608377,210.783,0.183862
262.0000,-0.325569,209.807,0.169996
261.9000,-0.634742,209.631,0.167497
261.8000,-0.992763,211.509,0.194122
261.7000,1.69506,210.885,0.185306
261.6000,1.91876,211.234,0.190246
261.5000,-0.498766,209.819,0.170173
261.4000,0.341728,210.134,0.17465
261.3000,1.20888,210.28,0.176726
261.2000,-0.303331,209.506,0.165722
261.1000,-1.3586,210.485,0.179637
261.0000,-0.260921,211.151,0.18906
260.9000,0.20938,210.796,0.184038
260.8000,2.17675,210.938,0.186044
260.7000,0.246903,211.127,0.188723
260.6000,-0.337175,210.083,0.173926
260.5000,0.0509842,211.352,0.191912
260.4000,-0.0783712,210.63,0.181694
260.3000,0.716083,210.831,0.184536
260.2000,1.01024,210.857,0.184905
260.1000,-1.16748,211.586,0.195211
260.0000,-0.141811,210.743,0.183284
259.9000,-2.6953,211.385,0.192377
259.8000,1.44765,210.647,0.181935
259.7000,-0.157007,210.992,0.186815
259.6000,0.226681,212.005,0.201128
259.5000,2.16949,211.52,0.194283
259.4000,-0.280697,210.95,0.186221
259.3000,0.118961,211.499,0.193994
259.2000,0.389605,211.974,0.200696
259.1000,0.578777,210.624,0.181597
259.0000,-0.240082,211.305,0.19124
258.9000,1.66596,210.983,0.186686
258.8000,0.60287,211.769,0.197803
258.7000,0.537384,211.59,0.195275
258.6000,-0.985157,211.139,0.1889
258.5000,0.447096,211.179,0.189461
258.4000,3.02288,211.666,0.196347
258.3000,0.616597,210.797,0.184054
258.2000,1.67109,211.205,0.189829
258.1000,0.935915,211.583,0.195179
258.0000,1.33874,210.769,0.183653
257.9000,-1.71432,212.163,0.203364
257.8000,0.341232,211.387,0.192409
257.7000,0.0219049,211.82,0.198523
257.6000,0.250824,212.231,0.204322
257.5000,0.0925548,211.75,0.197531
257.4000,2.50635,210.488,0.179669
257.3000,1.44235,211.683,0.196587
257.2000,0.033707,211.015,0.187136
257.1000,-1.01495,212.057,0.201863
257.0000,0.892161,211.686,0.196635
256.9000,0.779812,211.482,0.193754
256.8000,-1.92214,212.359,0.206126
256.7000,0.0290019,211.601,0.195435
256.6000,1.52978,211.489,0.19385
256.5000,0.843307,212.387,0.206509
256.4000,0.259507,211.691,0.196699
256.3000,2.07059,211.606,0.195499
256.2000,-0.330491,212.151,0.203189
256.1000,-1.54546,211.844,0.198858
256.0000,-0.28997,212.184,0.203652
255.9000,-0.686419,211.626,0.195787
255.8000,-0.113092,212.724,0.21126
255.7000,0.0152929,212.712,0.211085
255.6000,-1.91268,211.92,0.199929
255.5000,0.243672,213.026,0.215497
255.4000,0.0320798,212.168,0.203428
255.3000,0.608628,211.648,0.196091
255.2000,1.78679,212.738,0.211452
255.1000,0.239075,211.599,0.195403
255.0000,-0.238874,211.56,0.194843
254.9000,0.719506,212.754,0.211675
254.8000,0.810394,212.393,0.206605
254.7000,-1.20173,212.723,0.211244
254.6000,-0.83367,212.112,0.202646
254.5000,0.881038,211.64,0.195979
254.4000,0.161975,211.573,0.195035
254.3000,-0.981228,211.777,0.197915
254.2000,1.25986,212.904,0.213793
254.1000,-0.167767,213.35,0.220046
254.0000,2.33023,212.381,0.206429
253.9000,0.271889,212.52,0.208391
253.8000,-0.81287,212.443,0.207307
253.7000,-0.30011,213.11,0.216674
253.6000,-0.877646,212.883,0.21349
253.5000,1.12127,212.878,0.213427
253.4000,-0.0598975,213.129,0.216945
253.3000,-0.51652,213.115,0.216754
253.2000,0.574716,212.038,0.201591
253.1000,-1.01168,214.053,0.229904
253.0000,0.448947,213.061,0.21599
252.9000,-0.288676,212.386,0.206493
252.8000,-0.0671654,212.703,0.210958
252.7000,0.57414,213.187,0.217756
252.6000,1.71577,212.984,0.214908
252.5000,-0.276036,212.486,0.207913
252.4000,-2.71379,213.064,0.216038
252.3000,-1.62372,212.962,0.214605
252.2000,-0.962001,213.502,0.222175
252.1000,0.681975,213.255,0.21871
252.0000,1.20228,213.496,0.222096
251.9000,-0.0446458,213.284,0.219123
251.8000,-0.356014,214.319,0.233611
251.7000,1.23596,213.568,0.223112
251.6000,1.03939,213.527,0.222525
251.5000,-0.241056,213.67,0.224541
251.4000,0.818906,213.217,0.218185
251.3000,-0.71273,213.485,0.221937
251.2000,-1.69098,212.914,0.213921
251.1000,-1.42675,213.506,0.222238
251.0000,-0.409167,213.928,0.228144
250.9000,0.645141,213.559,0.222985
250.8000,-1.67605,213.466,0.221682
250.7000,2.37163,213.12,0.216817
250.6000,-0.333856,213.781,0.226097
250.5000,0.651748,214.069,0.230126
250.4000,-0.314296,213.382,0.220491
250.3000,-0.555755,213.444,0.221365
250.2000,-0.96785,213.437,0.221269
250.1000,0.752466,213.708,0.225065
250.0000,-0.215012,213.361,0.220205
249.9000,-0.893163,214.168,0.231504
249.8000,0.365788,213.191,0.21782
249.7000,-0.565785,214.485,0.235939
249.6000,-1.61613,214.689,0.238786
249.5000,-0.0462058,214.561,0.236999
249.4000,-0.648385,214.528,0.23654
249.3000,1.11925,213.666,0.224478
249.2000,0.462293,213.655,0.224319
249.1000,0.499794,213.784,0.226129
249.0000,-0.971153,215.046,0.243764
248.9000,-1.81888,212.982,0.214876
248.8000,1.7459,214.264,0.232851
248.7000,-0.4361,213.35,0.220046
248.6000,-0.566837,213.161,0.21739
248.5000,-1.27064,214.661,0.238391
248.4000,0.283968,214.989,0.242975
248.3000,1.02279,213.377,0.220427
248.2000,-0.789777,214.33,0.23377
248.1000,0.361142,215.589,0.251321
248.0000,-1.42213,213.119,0.216801
247.9000,-1.0718,214.385,0.234546
247.8000,-1.94463,215.676,0.252534
247.7000,-0.757116,214.964,0.242627
247.6000,-1.01376,215.921,0.255936
247.5000,-0.235361,214.138,0.231092
247.4000,-0.825955,213.777,0.226033
247.3000,-1.49802,215.3,0.2473
247.2000,-0.476206,214.708,0.239055
247.1000,-0.0354198,215.123,0.244838
247.0000,-2.63104,214.823,0.240652
246.9000,-0.225429,214.605,0.237616
246.8000,-1.46052,214.315,0.233564
246.7000,-2.24898,214.63,0.237964
246.6000,-1.24452,214.367,0.234292
246.5000,-0.0673097,215.301,0.247316
246.4000,-1.52134,215.641,0.252046
246.3000,-2.77203,216.18,0.259539
246.2000,-2.27661,215.571,0.251069
246.1000,-0.878622,214.5,0.236144
246.0000,-2.20331,215.036,0.243622
245.9000,-2.03114,215.738,0.253401
245.8000,-0.761188,215.525,0.250439
245.7000,-4.89535,216.077,0.258107
245.6000,-0.207749,215.509,0.250218
245.5000,-3.1916,215.794,0.254173
245.4000,-0.271365,216.033,0.257494
245.3000,-3.52331,215.827,0.254629
245.2000,-2.12883,215.311,0.247458
245.1000,-3.00981,215.721,0.253165
245.0000,-6.17508,216.248,0.260482
244.9000,-3.18891,216.153,0.259161
244.8000,-3.48924,217.135,0.27277
244.7000,-1.60626,216.238,0.260341
244.6000,-2.64579,215.938,0.256172
244.5000,-3.00838,214.954,0.242485
244.4000,-0.762007,216.636,0.265854
244.3000,-3.23872,216.127,0.2588
244.2000,-4.08096,215.819,0.254519
244.1000,-3.65121,217.474,0.277452
244.0000,-4.71468,215.311,0.247458
243.9000,-3.78389,217.261,0.274509
243.8000,-3.43197,216.415,0.262792
243.7000,-4.18839,216.636,0.265854
243.6000,-2.94619,216.946,0.270153
243.5000,-2.84106,216.203,0.259853
243.4000,-4.67282,217.158,0.273084
243.3000,-4.52911,216.604,0.265415
243.2000,-4.7001,217.614,0.279376
243.1000,-2.77456,217.201,0.273679
243.0000,-5.32413,217.344,0.275652
242.9000,-3.64225,217.989,0.284549
242.8000,-7.0287,217.566,0.278719
242.7000,-3.20631,217.416,0.276654
242.6000,-4.33127,218.932,0.297534
242.5000,-4.33332,217.285,0.274838
242.4000,-3.62434,218.066,0.28561
242.3000,-2.50474,218.341,0.289402
242.2000,-4.80217,219.42,0.30422
242.1000,-6.63067,218.453,0.290946
242.0000,-7.03646,217.462,0.27728
241.9000,-6.67747,218.215,0.287671
241.8000,-6.20171,218.4,0.290213
241.7000,-5.46421,217.754,0.281315
241.6000,-5.39755,218.023,0.285017
241.5000,-6.07966,219.126,0.300194
241.4000,-7.58695,219.883,0.310567
241.3000,-5.69901,218.305,0.288903
241.2000,-5.77649,218.852,0.296429
241.1000,-6.45193,218.761,0.295184
241.0000,-7.20545,218.63,0.293377
240.9000,-8.44053,219.166,0.300739
240.8000,-7.02138,219.747,0.308706
240.7000,-7.0756,219.164,0.300708
240.6000,-6.68319,219.241,0.301765
240.5000,-7.71764,220.676,0.321405
240.4000,-6.16964,219.842,0.310009
240.3000,-9.1907,218.654,0.293704
240.2000,-9.98401,220.292,0.31616
240.1000,-7.81802,219.978,0.311869
240.0000,-9.86333,220.212,0.315061
239.9000,-9.68376,220.974,0.325469
239.8000,-8.7728,220.296,0.316207
239.7000,-11.0467,219.409,0.30408
239.6000,-10.0443,221.199,0.328525
239.5000,-11.4508,221.348,0.330561
239.4000,-10.381,222.239,0.342662
239.3000,-8.32925,220.868,0.324017
239.2000,-12.7928,221.63,0.334399
239.1000,-10.9463,222.932,0.352057
239.0000,-12.4553,219.851,0.310133
238.9000,-11.2239,222.351,0.344184
238.8000,-13.3555,221.174,0.328186
238.7000,-13.2134,221.727,0.335708
238.6000,-12.2063,223.509,0.359852
238.5000,-14.0331,221.461,0.332103
238.4000,-12.3027,220.905,0.324527
238.3000,-13.1574,223.632,0.361519
238.2000,-14.3234,223.271,0.356638
238.1000,-15.1275,223.226,0.356025
238.0000,-12.9988,224.577,0.37425
237.9000,-14.5952,224.329,0.370911
237.8000,-13.5709,224.367,0.371414
237.7000,-17.4747,223.457,0.359148
237.6000,-14.6392,225.228,0.382986
237.5000,-15.462,224.182,0.368928
237.4000,-16.4839,224.185,0.368973
237.3000,-16.0086,224.889,0.378438
237.2000,-15.7519,225.637,0.38847
237.1000,-16.5835,225.632,0.388409
237.0000,-18.6826,224.418,0.3721
236.9000,-17.2014,225.809,0.390776
236.8000,-18.3503,225.427,0.385661
236.7000,-18.1369,226.219,0.396263
236.6000,-18.4119,226.542,0.400578
236.5000,-20.899,226.423,0.398989
236.4000,-19.9985,226.91,0.405491
236.3000,-21.2341,226.148,0.395309
236.2000,-16.8072,226.456,0.399428
236.1000,-19.2223,227.402,0.412043
236.0000,-21.0945,227.156,0.408769
235.9000,-20.1233,226.966,0.406232
235.8000,-21.5464,226.212,0.396173
235.7000,-20.8349,226.731,0.403104
235.6000,-22.0924,228.891,0.431807
235.5000,-20.1866,228.639,0.428475
235.4000,-20.9242,227.575,0.41435
235.3000,-23.1722,228.553,0.427334
235.2000,-25.7094,230.317,0.450644
235.1000,-23.9581,229.278,0.436933
235.0000,-23.3325,230.135,0.448241
234.9000,-27.9234,228.584,0.427739
234.8000,-26.4634,229.871,0.44476
234.7000,-28.6226,230.252,0.449779
234.6000,-24.619,230.826,0.457339
234.5000,-28.3227,230.558,0.453807
234.4000,-29.7853,231.712,0.46897
234.3000,-25.2281,231.575,0.467173
234.2000,-27.888,231.13,0.461329
234.1000,-27.3774,232.142,0.474594
234.0000,-29.7521,232.101,0.47406
233.9000,-31.0265,231.956,0.472161
233.8000,-30.591,232.453,0.478669
233.7000,-29.7238,232.856,0.483923
233.6000,-29.9076,232.68,0.48163
233.5000,-31.458,233.207,0.488505
233.4000,-32.2721,232.63,0.480979
233.3000,-32.4586,232.714,0.482074
233.2000,-32.3059,233.626,0.493966
233.1000,-32.8274,233.318,0.489952
233.0000,-34.8491,233.831,0.496635
232.9000,-35.083,234.177,0.501127
232.8000,-35.3892,234.111,0.500273
232.7000,-34.8461,234.978,0.51152
232.6000,-35.7203,233.76,0.495706
232.5000,-36.1509,234.854,0.50992
232.4000,-38.3874,234.738,0.508407
232.3000,-38.4163,235.157,0.513839
232.2000,-39.3029,235.395,0.516918
232.1000,-36.3565,236.923,0.536638
232.0000,-39.5504,236.584,0.532277
231.9000,-39.457,237.769,0.547499
231.8000,-39.8742,237.825,0.548225
231.7000,-42.3238,236.26,0.5281
231.6000,-41.3081,236.521,0.531459
231.5000,-42.1465,238.102,0.55177
231.4000,-42.5828,237.454,0.543455
231.3000,-44.0551,239.068,0.564134
231.2000,-41.6168,238.732,0.559834
231.1000,-42.8146,238.904,0.562036
231.0000,-42.6632,238.554,0.557559
230.9000,-44.8035,239.33,0.567476
230.8000,-41.9909,239.014,0.56344
230.7000,-44.5678,238.556,0.557588
230.6000,-44.9625,238.607,0.55824
230.5000,-47.4401,239.285,0.566898
230.4000,-46.6095,240.119,0.577525
230.3000,-48.2279,241.19,0.59114
230.2000,-49.3142,240.599,0.583634
230.1000,-48.2919,239.618,0.571146
230.0000,-48.386,240.709,0.58503
229.9000,-46.9782,241.699,0.597585
229.8000,-50.3778,243.372,0.618692
229.7000,-47.9997,242.206,0.60399
229.6000,-49.409,242.254,0.604605
229.5000,-50.6899,241.671,0.597226
229.4000,-51.3426,241.437,0.594271
229.3000,-51.1369,243.804,0.624134
229.2000,-53.2774,242.955,0.61344
229.1000,-52.7221,243.58,0.621314
229.0000,-53.9858,243.747,0.623408
228.9000,-56.2342,243.396,0.619005
228.8000,-54.8451,245.15,0.641011
228.7000,-53.4753,244.905,0.637934
228.6000,-54.135,245.838,0.649604
228.5000,-59.2436,244.756,0.636075
228.4000,-51.6133,243.965,0.626156
228.3000,-53.3965,245.444,0.64468
228.2000,-57.6022,246.006,0.651697
228.1000,-57.8536,246.843,0.662126
228.0000,-57.3752,247.592,0.67143
227.9000,-59.6361,247.362,0.668575
227.8000,-58.2811,247.464,0.669841
227.7000,-58.4389,247.871,0.674887
227.6000,-58.8026,246.682,0.660124
227.5000,-61.4988,248.615,0.684103
227.4000,-59.1273,247.528,0.670629
227.3000,-58.6295,248.365,0.681005
227.2000,-60.8959,249.365,0.693365
227.1000,-59.6967,249.943,0.700486
227.0000,-59.1107,249.407,0.693882
226.9000,-62.895,249.55,0.695643
226.8000,-62.7409,249.461,0.694539
226.7000,-62.6248,250.139,0.702898
226.6000,-63.7532,250.999,0.713463
226.5000,-61.8928,250.116,0.702605
226.4000,-63.9589,250.844,0.711558
226.3000,-64.2694,250.858,0.711725
226.2000,-66.1883,251.54,0.720087
226.1000,-65.0736,252.035,0.726145
226.0000,-64.959,251.446,0.718935
225.9000,-63.9241,251.691,0.721932
225.8000,-67.8185,251.826,0.723596
225.7000,-65.9543,252.995,0.73786
225.6000,-64.3529,253.53,0.744372
225.5000,-64.1874,253.731,0.746825
225.4000,-69.5803,252.47,0.731461
225.3000,-70.7511,253.982,0.749868
225.2000,-66.7431,254.033,0.750487
225.1000,-68.6428,254.368,0.754559
225.0000,-67.9466,255.225,0.764937
224.9000,-68.8195,255.764,0.771456
224.8000,-68.5003,255.32,0.766088
224.7000,-66.8019,255.453,0.767705
224.6000,-69.2155,255.425,0.767362
224.5000,-70.0579,255.638,0.769937
224.4000,-70.0476,256.82,0.784189
224.3000,-67.2453,256.391,0.779016
224.2000,-71.4286,257.738,0.795219
224.1000,-70.9355,256.75,0.783343
224.0000,-71.3591,257.953,0.797802
223.9000,-73.8987,257.493,0.792281
223.8000,-67.4857,257.731,0.795138
223.7000,-71.7147,258.564,0.805119
223.6000,-71.0021,258.686,0.806583
223.5000,-68.4737,258.714,0.806922
223.4000,-73.0742,259.454,0.815763
223.3000,-71.5283,258.121,0.799812
223.2000,-71.3697,259.533,0.816696
223.1000,-72.51,259.981,0.822046
223.0000,-70.1562,259.956,0.821749
222.9000,-73.3247,260.833,0.832185
222.8000,-72.7422,260.25,0.825244
222.7000,-70.4035,260.771,0.831444
222.6000,-69.755,260.746,0.831148
222.5000,-70.5657,261.769,0.843289
222.4000,-73.9388,261.339,0.838185
222.3000,-70.6396,262.312,0.849714
222.2000,-73.0521,262.04,0.846496
222.1000,-73.0469,262.746,0.854843
222.0000,-73.166,263.489,0.863611
221.9000,-73.6324,263.967,0.869241
221.8000,-72.9219,263.965,0.869215
221.7000,-72.5099,264.314,0.873319
221.6000,-75.3115,263.565,0.864506
221.5000,-76.0403,265.776,0.890458
221.4000,-73.7559,264.583,0.876473
221.3000,-70.4608,263.735,0.866507
221.2000,-73.1118,265.435,0.886465
221.1000,-74.457,265.779,0.890497
221.0000,-71.3492,265.462,0.886784
220.9000,-73.2958,265.641,0.88888
220.8000,-74.2292,267.329,0.908587
220.7000,-75.7335,266.654,0.900717
220.6000,-68.6149,266.716,0.901444
220.5000,-73.0295,266.746,0.901787
220.4000,-73.355,266.629,0.900426
220.3000,-73.7981,269.075,0.928861
220.2000,-71.5771,269.314,0.931628
220.1000,-71.4314,270.215,0.942037
220.0000,-69.9955,269.484,0.933594
219.9000,-74.3962,270.588,0.946336
219.8000,-73.2787,271.231,0.953747
219.7000,-73.0522,270.814,0.948947
219.6000,-73.7095,271.374,0.955389
219.5000,-69.3459,271.404,0.955728
219.4000,-71.6286,270.394,0.944102
219.3000,-70.2735,271.791,0.96018
219.2000,-75.0161,271.759,0.959816
219.1000,-72.4983,271.495,0.956783
219.0000,-72.2002,272.183,0.96468
218.9000,-73.6766,272.134,0.964121
218.8000,-71.4531,274.063,0.986179
218.7000,-72.5327,272.904,0.972936
218.6000,-70.6377,274.948,0.996257
218.5000,-72.0928,273.767,0.982804
218.4000,-70.1731,273.299,0.977459
218.3000,-72.96,274.534,0.991551
218.2000,-67.3031,274.842,0.995059
218.1000,-74.0152,275.393,1.00132
218.0000,-72.6779,275.714,1.00496
217.9000,-69.1619,276.584,1.01482
217.8000,-73.4706,276.526,1.01417
217.7000,-69.7162,275.996,1.00816
217.6000,-73.5457,276.899,1.01838
217.5000,-74.5334,277.454,1.02466
217.4000,-73.8336,277.793,1.02848
217.3000,-68.6503,279.41,1.04667
217.2000,-70.6188,278.728,1.03901
217.1000,-71.3645,278.898,1.04092
217.0000,-71.5667,279.224,1.04458
216.9000,-71.9636,279.718,1.05013
216.8000,-70.2068,279.976,1.05302
216.7000,-71.7783,278.668,1.03833
216.6000,-67.3166,280.686,1.06096
216.5000,-71.6043,281.286,1.06767
216.4000,-72.7395,282.024,1.07589
216.3000,-73.6284,281.784,1.07322
216.2000,-72.2296,282.501,1.0812
216.1000,-73.3442,282.333,1.07934
216.0000,-69.1378,281.557,1.07069
215.9000,-71.5337,284.212,1.10018
215.8000,-73.3803,283.254,1.08957
215.7000,-71.3795,282.277,1.0787
215.6000,-70.52,285.012,1.10902
215.5000,-70.9298,284.461,1.10294
215.4000,-67.9402,284.896,1.10774
215.3000,-74.3737,284.658,1.10512
215.2000,-70.1875,288.255,1.14465
215.1000,-73.3365,286.733,1.12797
215.0000,-67.2785,286.638,1.12693
214.9000,-70.5946,285.889,1.11869
214.8000,-71.5043,287.32,1.13441
214.7000,-74.5699,287.023,1.13116
214.6000,-74.057,286.805,1.12877
214.5000,-72.6936,287.149,1.13254
214.4000,-69.245,288.436,1.14663
214.3000,-71.9373,290.075,1.16451
214.2000,-69.5552,288.666,1.14915
214.1000,-72.7684,290.296,1.16691
214.0000,-69.6463,288.9,1.15171
213.9000,-71.8988,290.675,1.17103
213.8000,-71.3773,289.44,1.15759
213.7000,-72.0114,291.547,1.18049
213.6000,-68.626,292.013,1.18553
213.5000,-70.7796,292.473,1.1905
213.4000,-72.2918,292.003,1.18542
213.3000,-74.0047,292.912,1.19524
213.2000,-75.2013,294.085,1.20788
213.1000,-69.2274,294.212,1.20925
213.0000,-70.2938,294.326,1.21047
212.9000,-78.0545,294.621,1.21364
212.8000,-70.4318,295.855,1.22687
212.7000,-73.3234,295.647,1.22464
212.6000,-68.4861,296.901,1.23805
212.5000,-68.2378,296.774,1.23669
212.4000,-68.2998,297.19,1.24113
212.3000,-73.8259,298.708,1.25728
212.2000,-71.4273,300.181,1.27288
212.1000,-73.5173,299.51,1.26579
212.0000,-73.2111,299.959,1.27054
211.9000,-71.0676,300.143,1.27248
211.8000,-73.3463,300.416,1.27536
211.7000,-73.2228,300.483,1.27607
211.6000,-82.6226,300.988,1.2814
211.5000,-74.9643,303.962,1.31265
211.4000,-70.096,302.294,1.29516
211.3000,-72.1646,304.024,1.31329
211.2000,-77.0045,303.503,1.30785
211.1000,-72.2622,303.936,1.31238
211.0000,-74.7911,307.09,1.34523
210.9000,-72.6635,307.332,1.34775
210.8000,-71.8694,307.836,1.35297
210.7000,-71.835,307.657,1.35112
210.6000,-75.6463,307.248,1.34688
210.5000,-74.6351,309.163,1.36668
210.4000,-74.5583,308.91,1.36407
210.3000,-74.9101,309.668,1.37189
210.2000,-76.7644,311.425,1.38994
210.1000,-73.6606,312.219,1.39808
210.0000,-75.7759,311.241,1.38806
209.9000,-81.8326,312.27,1.3986
209.8000,-72.0101,314.545,1.4218
209.7000,-76.6774,314.198,1.41828
209.6000,-78.5637,315.732,1.43385
209.5000,-72.8786,315.866,1.43521
209.4000,-76.5634,317.589,1.45263
209.3000,-72.2891,317.235,1.44906
209.2000,-77.0053,318.719,1.46402
209.1000,-80.7518,318.938,1.46621
209.0000,-79.6224,320.131,1.47819
208.9000,-74.4826,321.754,1.49441
208.8000,-68.1607,321.799,1.49486
208.7000,-80.0046,321.869,1.49556
208.6000,-68.0342,324.277,1.51951
208.5000,-69.692,323.117,1.50799
208.4000,-72.3218,324.326,1.51999
208.3000,-76.0517,325.502,1.53163
208.2000,-73.1315,326.518,1.54166
208.1000,-74.9395,326.895,1.54537
208.0000,-72.7329,329.013,1.56617
207.9000,-71.9587,329.034,1.56637
207.8000,-70.1021,331.097,1.58653
207.7000,-72.5943,331.083,1.58639
207.6000,-70.7465,333.435,1.60923
207.5000,-71.2924,334.128,1.61594
207.4000,-64.1233,335.714,1.63125
207.3000,-74.43,335.671,1.63083
207.2000,-67.9187,337.287,1.64636
207.1000,-69.1041,337.6,1.64936
207.0000,-67.4827,338.172,1.65484
206.9000,-66.6509,339.393,1.66651
206.8000,-70.6897,340.422,1.67632
206.7000,-66.373,341.141,1.68315
206.6000,-67.3885,342.427,1.69535
206.5000,-62.2775,344.139,1.71153
206.4000,-60.2794,345.081,1.72041
206.3000,-66.9223,346.728,1.73588
206.2000,-64.9259,348.264,1.75025
206.1000,-58.1999,349.234,1.7593
206.0000,-54.83,350.406,1.7702
205.9000,-59.5797,351.589,1.78117
205.8000,-58.326,353.75,1.80115
205.7000,-61.4004,353.289,1.7969
205.6000,-57.0241,356.001,1.82184
205.5000,-54.8446,357.12,1.83209
205.4000,-51.2614,356.336,1.82491
205.3000,-56.5243,359.222,1.85126
205.2000,-55.1737,361.308,1.87019
205.1000,-52.5336,362.818,1.88385
205.0000,-47.3304,363.359,1.88872
204.9000,-54.6963,364.716,1.90093
204.8000,-38.7525,367.096,1.92225
204.7000,-47.5735,367.039,1.92175
204.6000,-48.6782,369.867,1.94694
204.5000,-47.124,371.331,1.95992
204.4000,-35.0648,372.869,1.9735
204.3000,-36.6031,374.733,1.9899
204.2000,-39.781,376.149,2.00232
204.1000,-38.4869,377.175,2.0113
204.0000,-31.9248,379.016,2.02734
203.9000,-35.5399,380.724,2.04217
203.8000,-30.2258,384.37,2.07365
203.7000,-42.414,385.718,2.08521
203.6000,-27.7289,387.244,2.09827
203.5000,-21.3163,389.274,2.11558
203.4000,-29.2724,389.739,2.11953
203.3000,-13.5563,391.12,2.13125
203.2000,-30.5013,393.732,2.15331
203.1000,-18.9886,395.504,2.16822
203.0000,-21.2342,396.361,2.1754
202.9000,-30.1547,399.671,2.20304
202.8000,-14.8199,401.523,2.21841
202.7000,-1.36565,402.202,2.22403
202.6000,-10.7661,405.228,2.249
202.5000,-9.88842,406.749,2.26148
202.4000,-2.61863,407.127,2.26458
202.3000,-10.5274,410.501,2.29213
202.2000,-12.7118,413.687,2.31796
202.1000,-5.19482,413.51,2.31652
202.0000,-6.26075,417.056,2.34509
201.9000,-15.7241,420.442,2.37218
201.8000,1.03223,422.863,2.39143
201.7000,2.07827,425.232,2.41019
201.6000,-10.9689,426.106,2.41708
201.5000,1.47155,427.691,2.42955
201.4000,-2.55595,431.733,2.46119
201.3000,5.40484,434.153,2.48001
201.2000,7.70424,436.275,2.49645
201.1000,-1.07777,437.963,2.50947
201.0000,10.0076,440.151,2.52629
200.9000,1.91041,442.61,2.5451
200.8000,7.34439,444.673,2.56083
200.7000,6.45573,446.217,2.57254
200.6000,4.57444,449.819,2.59976
200.5000,13.4732,451.671,2.61369
200.4000,21.9542,456.626,2.65071
200.3000,12.7882,459.203,2.66982
200.2000,15.2269,460.388,2.67858
200.1000,6.10172,464.405,2.70814
200.0000,16.6113,466.615,2.72431
199.9000,15.754,470.286,2.75102
199.8000,5.45572,472.1,2.76416
199.7000,6.70367,475.808,2.79088
199.6000,19.3507,477.744,2.80476
199.5000,15.3089,480.416,2.82384
199.4000,11.261,481.934,2.83464
199.3000,18.6492,484.717,2.85436
199.2000,35.2156,487.735,2.87564
199.1000,18.3233,490.864,2.89759
199.0000,24.3788,493.298,2.91458
198.9000,33.5345,495.118,2.92724
198.8000,24.0253,499.377,2.95671
198.7000,30.2134,502.743,2.97985
198.6000,16.3267,506.042,3.0024
198.5000,26.9239,508.602,3.01982
198.4000,25.88,512.742,3.04783
198.3000,27.8933,515.35,3.06537
198.2000,16.5085,518.442,3.08607
198.1000,38.0616,520.836,3.10203
198.0000,44.7996,524.009,3.12308
197.9000,21.6139,527.884,3.14865
197.8000,28.7226,531.13,3.16995
197.7000,24.7181,533.841,3.18765
197.6000,21.7248,536.468,3.20473
197.5000,35.7398,540.254,3.22923
197.4000,18.9629,542.936,3.24649
197.3000,27.3201,546.695,3.27056
197.2000,25.8254,550.346,3.2938
197.1000,36.7639,552.688,3.30864
197.0000,25.6003,556.353,3.33177
196.9000,41.7687,559.698,3.35276
196.8000,17.8491,562.699,3.3715
196.7000,34.0627,566.474,3.39495
196.6000,30.8129,569.794,3.41547
196.5000,25.6854,573.465,3.43804
196.4000,27.6102,576.776,3.45829
196.3000,12.2045,579.887,3.47723
196.2000,36.3876,583.692,3.50027
196.1000,22.9705,588.68,3.53029
196.0000,30.9093,592.282,3.55183
195.9000,40.6354,593.719,3.5604
195.8000,36.0193,597.88,3.58509
195.7000,39.0734,600.874,3.60277
195.6000,12.2548,605.001,3.62702
195.5000,31.3752,606.779,3.63742
195.4000,23.3865,612.531,3.6709
195.3000,10.7058,612.146,3.66867
195.2000,27.8078,615.293,3.68688
195.1000,31.1777,617.586,3.7001
195.0000,32.0216,620.707,3.71803
194.9000,16.1688,624.027,3.73702
194.8000,22.1076,626.856,3.75313
194.7000,22.8973,629.643,3.76894
194.6000,18.9291,631.844,3.78138
194.5000,1.58839,634.407,3.79583
194.4000,31.0944,637.541,3.81343
194.3000,25.8805,641.372,3.83483
194.2000,24.0731,642.34,3.84023
194.1000,27.3121,646.585,3.86379
194.0000,17.8275,649.477,3.87977
193.9000,34.1873,654.752,3.90877
193.8000,21.2881,656.419,3.91788
193.7000,32.3718,661.272,3.94432
193.6000,24.7537,661.41,3.94507
193.5000,6.4967,666.389,3.97202
193.4000,22.6048,667.18,3.97629
193.3000,16.0834,669.738,3.99005
193.2000,16.7353,673.355,4.00944
193.1000,20.021,674.881,4.01759
193.0000,12.4594,677.254,4.03024
192.9000,32.4709,681.057,4.05043
192.8000,7.91122,682.2,4.05648
192.7000,4.65195,687.873,4.08637
192.6000,19.3925,691.192,4.10377
192.5000,18.3578,693.263,4.11458
192.4000,28.1612,695.35,4.12546
192.3000,9.44141,698.876,4.14376
192.2000,11.0367,702.08,4.16033
192.1000,17.5586,704.077,4.17062
192.0000,21.8231,706.302,4.18206
191.9000,24.2408,709.463,4.19826
191.8000,27.9249,710.888,4.20554
191.7000,9.87308,713.776,4.22026
191.6000,15.1155,717.816,4.24077
191.5000,19.4487,719.828,4.25094
191.4000,26.6566,724.778,4.27588
191.3000,26.0574,726.883,4.28643
191.2000,18.6514,729.908,4.30156
191.1000,7.68566,733.345,4.31868
191.0000,12.6614,738.174,4.34263
190.9000,0.833943,740.504,4.35413
190.8000,0.853283,743.663,4.36968
190.7000,9.22469,748.536,4.39355
190.6000,7.19848,751.72,4.40908
190.5000,5.72514,754.463,4.42241
190.4000,6.10685,757.146,4.43541
190.3000,14.6264,759.351,4.44606
190.2000,15.2852,764.494,4.47081
190.1000,12.5281,766.587,4.48084
190.0000,17.5897,769.741,4.49591

##### Extended Information
[Comments]
Sample name,AZNTEA_BUFFER&PROTEIN_928
Comment,BUFFER7PROTIEN
User,ALEXZHANG
Division
Company,Saint Mary's College

[Detailed Information]
Creation date,9/28/2022 3:49 PM

Data array type,Linear data array * 3
Horizontal axis,Wavelength [nm]
Vertical axis(1),CD [mdeg]
Vertical axis(2),HT [V]
Vertical axis(3),Abs
Start,320 nm
End,190 nm
Data interval,0.1 nm
Data points,1301    

[Measurement Information]
Instrument name,J-1500
Model name,J-1500
Serial No.,B051061638

Detector,PM-539
Detector S/N,B051061638
  Lock-in amp.,X mode
  HT volt,Auto

Accessory,PTC-517
Accessory S/N,B026561646
  Temperature,23.14 C
  Control sensor,Holder
  Monitor sensor,Holder

Measurement date,9/28/2022 3:49 PM

CD Overload detect,942
Photometric mode,CD, HT, Abs
Measure range,320 - 190 nm
Data pitch,0.1 nm
CD scale,20 mdeg/0.05 dOD
FL scale,20 mdeg/0.05 dOD
D.I.T.,8 msec
Bandwidth,2.00 nm
Start mode,Immediately
Scanning mode,Continuous
Scanning speed,200 nm/min
Baseline correction,None
Shutter control,Auto
No. of cycle,1/1
N2 Flowmeter,Manual

Solvent,NaPO4 buffer

