TITLE,BA_EH_JP
DATA TYPE,
ORIGIN,JASCO
OWNER,
DATE,22/09/27
TIME,17:08:16
SPECTROMETER/DATA SYSTEM,
LOCALE,1033
RESOLUTION,
DELTAX,-0.1
XUNITS,NANOMETERS
YUNITS,CD [mdeg]
Y2UNITS,HT [V]
Y3UNITS,ABSORBANCE
FIRSTX,  320.0000
LASTX,  190.0000
NPOINTS,    1301
FIRSTY,     2.19822
MAXY,     6.68505
MINY,    -5.22862
XYDATA
320.0000,2.19822,207.252,0.133469
319.9000,-0.0558242,205.842,0.11316
319.8000,1.2093,207.031,0.130293
319.7000,2.29561,206.313,0.119965
319.6000,1.70953,206.962,0.129299
319.5000,0.685073,207.081,0.13101
319.4000,2.87735,207.309,0.1343
319.3000,-0.522489,207.211,0.132883
319.2000,1.16059,206.939,0.128973
319.1000,2.78393,207.141,0.131874
319.0000,1.64552,206.596,0.124031
318.9000,2.40107,208.297,0.148465
318.8000,2.08057,206.916,0.128647
318.7000,2.82882,207.738,0.140447
318.6000,2.61877,206.528,0.123052
318.5000,-0.676683,207.594,0.138383
318.4000,0.168737,206.69,0.125385
318.3000,1.97625,207.405,0.135666
318.2000,0.839779,207.053,0.130619
318.1000,0.820863,207.358,0.134999
318.0000,1.42733,207.397,0.135553
317.9000,0.647115,206.717,0.125777
317.8000,0.925806,206.397,0.121174
317.7000,0.597583,206.32,0.120063
317.6000,1.23607,206.972,0.129446
317.5000,1.93393,207.237,0.133258
317.4000,1.37449,207.035,0.130359
317.3000,1.30412,206.074,0.116515
317.2000,0.877962,206.302,0.119801
317.1000,1.67865,205.082,0.102158
317.0000,1.2311,206.635,0.124602
316.9000,-0.0220452,206.687,0.125353
316.8000,0.672279,207.036,0.130375
316.7000,0.840472,206.787,0.126788
316.6000,2.158,206.693,0.125435
316.5000,2.45774,206.295,0.119703
316.4000,1.41768,206.892,0.128305
316.3000,1.26013,206.848,0.127669
316.2000,3.487,206.004,0.115501
316.1000,2.09295,206.802,0.127
316.0000,0.587159,205.994,0.115353
315.9000,1.69922,205.469,0.10777
315.8000,1.84666,207.033,0.130326
315.7000,2.20611,205.771,0.112129
315.6000,1.4954,206.984,0.129625
315.5000,1.28004,205.796,0.112489
315.4000,0.968875,206.472,0.122252
315.3000,1.38464,208.429,0.150345
315.2000,1.3926,206.831,0.127424
315.1000,1.57328,207.432,0.136057
315.0000,1.60629,206.478,0.122333
314.9000,1.00598,206.004,0.115501
314.8000,1.30623,206.338,0.120324
314.7000,0.119356,206.345,0.120422
314.6000,2.26294,206.373,0.12083
314.5000,1.93418,205.928,0.114404
314.4000,0.608719,206.47,0.122219
314.3000,0.97756,205.77,0.112112
314.2000,1.61269,206.357,0.120585
314.1000,0.589693,206.394,0.121124
314.0000,1.88712,206.406,0.121304
313.9000,3.01252,206.487,0.122464
313.8000,1.13599,206.61,0.124243
313.7000,2.1765,206.018,0.115697
313.6000,2.09967,206.438,0.121762
313.5000,1.94242,206.21,0.118477
313.4000,-0.133501,206.67,0.125108
313.3000,0.85682,205.886,0.113799
313.2000,0.631743,206.061,0.116319
313.1000,2.93905,206.46,0.122072
313.0000,3.24273,205.463,0.107672
312.9000,-0.453821,206.285,0.119556
312.8000,2.40551,207.328,0.13456
312.7000,2.08238,205.703,0.111146
312.6000,0.82085,206.244,0.118968
312.5000,0.818254,205.375,0.106409
312.4000,1.70001,206.259,0.11918
312.3000,0.702708,205.925,0.114355
312.2000,3.28975,206.099,0.116875
312.1000,1.00668,206.251,0.119066
312.0000,-0.270027,206.032,0.11591
311.9000,1.33019,206.497,0.122611
311.8000,1.02022,206.469,0.122202
311.7000,1.7463,206.373,0.12083
311.6000,1.52743,205.97,0.11501
311.5000,2.16456,206.545,0.123297
311.4000,0.572158,206.614,0.124292
311.3000,1.74311,206.474,0.122284
311.2000,0.943884,206.231,0.118771
311.1000,3.62262,206.279,0.119474
311.0000,1.60662,206.248,0.119017
310.9000,0.42205,205.955,0.114797
310.8000,1.5743,206.463,0.122121
310.7000,1.14366,206.292,0.119654
310.6000,2.34172,206.285,0.119556
310.5000,0.69043,205.676,0.110753
310.4000,1.78684,207.544,0.137667
310.3000,0.493564,205.262,0.104768
310.2000,1.55447,206.532,0.123117
310.1000,1.01572,205.881,0.113717
310.0000,1.44025,205.839,0.113111
309.9000,1.47354,206.093,0.116777
309.8000,2.65638,206.351,0.120504
309.7000,0.0453769,206.885,0.128191
309.6000,3.1545,207.27,0.13373
309.5000,3.05575,206.371,0.120798
309.4000,1.10791,205.881,0.113717
309.3000,1.44368,206.485,0.122431
309.2000,1.66966,206.357,0.120585
309.1000,1.17418,206.194,0.118248
309.0000,0.812921,205.934,0.114486
308.9000,-0.168856,205.7,0.111113
308.8000,0.625685,206.43,0.121647
308.7000,1.70666,205.508,0.108328
308.6000,-0.0542946,206.308,0.119883
308.5000,-1.24028,206.546,0.123313
308.4000,-0.152267,206.207,0.118428
308.3000,1.59136,206.077,0.116548
308.2000,2.82906,206.119,0.117153
308.1000,2.21803,206.296,0.119719
308.0000,-0.843026,206.08,0.116597
307.9000,0.377797,206.704,0.125598
307.8000,0.730716,205.867,0.11352
307.7000,2.46436,205.949,0.114699
307.6000,0.528707,206.685,0.12532
307.5000,1.76119,206.129,0.1173
307.4000,1.16677,206.03,0.115877
307.3000,-0.862845,205.815,0.112767
307.2000,3.53834,205.951,0.114732
307.1000,2.99874,205.816,0.112784
307.0000,1.60652,206.347,0.120455
306.9000,1.29242,205.611,0.109819
306.8000,1.15946,205.186,0.103669
306.7000,1.30481,205.092,0.102306
306.6000,2.31716,206.099,0.116875
306.5000,1.36595,206.238,0.118869
306.4000,1.27344,206.082,0.116629
306.3000,1.78336,205.739,0.11167
306.2000,0.769399,207.272,0.133762
306.1000,1.77891,205.136,0.102946
306.0000,1.47967,206.286,0.119572
305.9000,1.63695,205.688,0.110933
305.8000,1.16298,206.522,0.12297
305.7000,-1.23539,206.592,0.123982
305.6000,2.57879,205.772,0.112145
305.5000,0.614737,205.944,0.114634
305.4000,0.786392,205.75,0.111834
305.3000,2.42348,205.944,0.114634
305.2000,2.40646,206.258,0.119164
305.1000,1.68588,206.344,0.120406
305.0000,1.92635,205.659,0.110507
304.9000,-0.409116,206.053,0.116204
304.8000,0.754175,206.761,0.126413
304.7000,1.34859,205.952,0.114748
304.6000,1.57411,205.652,0.110409
304.5000,1.33084,206.338,0.120324
304.4000,-0.116024,205.805,0.11262
304.3000,0.316249,205.296,0.105261
304.2000,-0.804134,205.776,0.112211
304.1000,1.05498,206.233,0.118804
304.0000,1.41978,205.698,0.11108
303.9000,2.57136,205.906,0.114077
303.8000,0.239059,205.533,0.108688
303.7000,1.27715,206.904,0.128468
303.6000,0.840947,207.102,0.13132
303.5000,0.616207,206.258,0.119164
303.4000,0.914701,206.649,0.124798
303.3000,1.23587,207.237,0.133258
303.2000,0.44198,205.893,0.113897
303.1000,0.75929,206.29,0.119621
303.0000,-0.642432,206.794,0.126886
302.9000,2.25742,205.456,0.107573
302.8000,-0.639647,205.915,0.114208
302.7000,0.67175,205.084,0.102191
302.6000,1.37699,207.653,0.139228
302.5000,1.70176,206.495,0.122578
302.4000,0.389744,205.118,0.102684
302.3000,-0.314846,206.354,0.120553
302.2000,0.157108,205.919,0.114273
302.1000,1.76096,206.06,0.116302
302.0000,0.457897,206.435,0.121712
301.9000,2.04305,206.988,0.129674
301.8000,0.739279,205.904,0.114061
301.7000,1.10185,206.268,0.119311
301.6000,1.58545,205.27,0.104883
301.5000,1.77546,204.982,0.100713
301.4000,0.839792,204.912,0.0996942
301.3000,0.00693349,205.315,0.10554
301.2000,1.27425,206.669,0.125092
301.1000,1.67241,206.081,0.116613
301.0000,0.634725,204.929,0.0999407
300.9000,1.32598,206.572,0.123688
300.8000,-0.687957,205.925,0.114355
300.7000,1.66453,206.325,0.120128
300.6000,2.35024,206.006,0.115534
300.5000,-0.489846,205.702,0.11113
300.4000,0.774214,205.78,0.11226
300.3000,0.0596737,205.742,0.111719
300.2000,0.842006,205.966,0.114944
300.1000,1.40378,203.993,0.0863428
300.0000,1.8125,205.722,0.111424
299.9000,-0.118659,205.499,0.108196
299.8000,1.57169,205.065,0.101912
299.7000,1.27522,206.028,0.115844
299.6000,0.75329,205.389,0.106606
299.5000,1.70301,205.132,0.102881
299.4000,1.52446,205.2,0.103866
299.3000,2.80829,204.983,0.100729
299.2000,0.911668,205.461,0.107655
299.1000,0.910628,205.431,0.107213
299.0000,1.85034,204.595,0.0950901
298.9000,0.2488,206.289,0.119605
298.8000,0.526863,205.436,0.107295
298.7000,1.82691,205.308,0.105441
298.6000,0.4632,205.449,0.107475
298.5000,1.17348,205.477,0.107885
298.4000,2.06587,206.745,0.126185
298.3000,0.869036,205.172,0.103472
298.2000,1.94879,205.994,0.115353
298.1000,0.914297,205.921,0.114306
298.0000,1.3559,205.644,0.110294
297.9000,0.679322,205.481,0.107934
297.8000,1.37858,205.126,0.102799
297.7000,1.57379,206.1,0.116891
297.6000,1.37005,206.014,0.115648
297.5000,0.057298,204.435,0.0927695
297.4000,2.88822,205.541,0.108803
297.3000,0.43459,205.023,0.101304
297.2000,0.705151,205.278,0.104998
297.1000,2.34486,205.197,0.103833
297.0000,-0.592613,205.646,0.110327
296.9000,-0.191313,204.814,0.0982808
296.8000,0.390115,205.09,0.102273
296.7000,-0.652292,205.183,0.10362
296.6000,1.89807,205.218,0.104128
296.5000,1.80099,204.495,0.0936421
296.4000,0.956399,205.401,0.106786
296.3000,1.14465,205.351,0.106065
296.2000,0.808268,205.942,0.114601
296.1000,0.916606,205.161,0.103308
296.0000,-0.0747336,206.367,0.120732
295.9000,0.745387,205.097,0.102372
295.8000,1.64046,204.843,0.0986917
295.7000,1.62575,204.161,0.0887831
295.6000,1.58958,205.467,0.107737
295.5000,1.95848,206.257,0.119147
295.4000,2.10125,205.649,0.110376
295.3000,1.38219,204.298,0.0907769
295.2000,1.67515,205.182,0.103603
295.1000,1.28014,205.957,0.114814
295.0000,0.178807,205.217,0.104112
294.9000,1.84691,205.098,0.102388
294.8000,-0.140551,204.961,0.100401
294.7000,1.39924,205.036,0.101501
294.6000,0.0264291,204.847,0.0987575
294.5000,1.26626,206.496,0.122594
294.4000,2.31933,204.951,0.100269
294.3000,1.16568,204.659,0.0960281
294.2000,-0.892214,205.143,0.103045
294.1000,0.953065,204.358,0.09165
294.0000,0.305252,204.324,0.0911559
293.9000,0.768133,205.316,0.105556
293.8000,-0.00571177,205.276,0.104965
293.7000,1.25375,204.671,0.0961925
293.6000,1.0577,204.38,0.0919793
293.5000,0.13755,205.38,0.106475
293.4000,2.80269,205.004,0.101025
293.3000,0.842882,205.119,0.1027
293.2000,2.63675,204.632,0.0956332
293.1000,0.909675,204.988,0.100795
293.0000,1.5312,204.414,0.0924733
292.9000,-0.47942,205.935,0.114503
292.8000,0.672283,204.833,0.0985437
292.7000,2.10268,204.385,0.092045
292.6000,0.886755,204.83,0.098511
292.5000,1.77766,204.139,0.0884699
292.4000,1.08425,205.804,0.112604
292.3000,1.41634,204.809,0.0981986
292.2000,-0.58944,204.442,0.0928682
292.1000,1.6471,205.763,0.112014
292.0000,1.41549,205.114,0.102618
291.9000,0.546707,206.298,0.119736
291.8000,0.352865,204.894,0.0994313
291.7000,0.60623,205.143,0.103045
291.6000,2.05214,203.68,0.0817878
291.5000,1.10122,202.98,0.0715675
291.4000,-0.261738,204.856,0.0988892
291.3000,0.875785,204.153,0.0886676
291.2000,1.20788,205.378,0.106442
291.1000,2.45651,204.871,0.0991026
291.0000,1.36221,203.908,0.0851056
290.9000,0.180333,205.031,0.101419
290.8000,-0.0747619,205.432,0.107229
290.7000,2.48798,204.554,0.0944978
290.6000,0.774964,205.293,0.105212
290.5000,0.309865,204.572,0.0947611
290.4000,0.618242,205.425,0.107131
290.3000,0.98544,204.334,0.0913039
290.2000,0.600124,204.171,0.0889315
290.1000,-0.535403,204.38,0.0919793
290.0000,2.10992,205.287,0.10513
289.9000,0.635045,205.83,0.11298
289.8000,1.1832,205.288,0.105146
289.7000,1.34231,205.536,0.108737
289.6000,1.14782,204.086,0.0876952
289.5000,-0.449516,205.313,0.105507
289.4000,1.79969,204.552,0.094465
289.3000,1.54717,204.681,0.0963406
289.2000,0.0152584,204.327,0.0912051
289.1000,1.49223,206.064,0.116368
289.0000,1.24777,206.061,0.116319
288.9000,2.13997,206.148,0.117578
288.8000,1.54718,203.937,0.0855345
288.7000,0.975461,205.855,0.11334
288.6000,3.18491,204.175,0.0889972
288.5000,0.874107,205.67,0.110671
288.4000,1.03905,204.98,0.10068
288.3000,2.28414,204.244,0.0900027
288.2000,1.62057,204.261,0.0902498
288.1000,2.25597,204.834,0.0985604
288.0000,1.62318,205.409,0.106901
287.9000,2.04372,205.625,0.110016
287.8000,1.75666,204.371,0.0918475
287.7000,1.68668,204.924,0.0998752
287.6000,0.969603,204.757,0.0974424
287.5000,1.34861,204.795,0.0980014
287.4000,0.00414708,205.472,0.107803
287.3000,2.53963,205.339,0.105884
287.2000,0.825391,205.293,0.105212
287.1000,0.351438,205.413,0.10695
287.0000,2.70937,205.274,0.104949
286.9000,2.04239,204.864,0.0990041
286.8000,1.9228,204.15,0.0886347
286.7000,0.425541,204.329,0.0912382
286.6000,2.71108,205.108,0.102536
286.5000,0.679078,204.743,0.0972452
286.4000,1.40368,204.496,0.0936585
286.3000,1.13469,204.948,0.10022
286.2000,1.28239,204.961,0.100401
286.1000,-0.736455,204.854,0.0988561
286.0000,1.52351,204.718,0.0968832
285.9000,3.01969,204.218,0.0896236
285.8000,-0.0203814,204.47,0.0932798
285.7000,1.02815,203.314,0.0764497
285.6000,1.29881,204.016,0.0866727
285.5000,-0.592487,204.613,0.0953536
285.4000,-0.68325,204.186,0.0891456
285.3000,0.396905,203.977,0.0861118
285.2000,1.38852,204.378,0.0919462
285.1000,-0.314576,204.82,0.098363
285.0000,3.37011,205.84,0.113128
284.9000,1.44078,205.242,0.104473
284.8000,0.594552,204.582,0.0949092
284.7000,1.88728,204.386,0.0920617
284.6000,0.124999,204.895,0.0994477
284.5000,-0.0818349,205.536,0.108737
284.4000,0.777192,206.053,0.116204
284.3000,1.85401,206.498,0.122627
284.2000,0.873687,205.2,0.103866
284.1000,0.912385,205.808,0.112669
284.0000,0.281939,205.54,0.108786
283.9000,0.929745,205.444,0.107409
283.8000,0.00417672,205.898,0.113962
283.7000,0.825267,203.743,0.082696
283.6000,1.52064,204.365,0.0917487
283.5000,0.89302,203.418,0.0779711
283.4000,2.70575,203.799,0.0835214
283.3000,-0.340917,204.901,0.0995299
283.2000,2.20982,204.459,0.0931152
283.1000,0.558716,204.256,0.0901674
283.0000,3.021,205.332,0.105786
282.9000,0.180163,204.515,0.0939382
282.8000,2.40375,204.555,0.0945142
282.7000,1.16328,204.678,0.0963076
282.6000,0.511434,204.36,0.0916828
282.5000,0.704391,203.735,0.0825806
282.4000,1.58862,204.565,0.0946624
282.3000,1.4011,204.382,0.0919958
282.2000,2.09029,204.07,0.0874643
282.1000,0.162677,204.957,0.100351
282.0000,0.169824,205.239,0.10444
281.9000,0.957734,205.022,0.101288
281.8000,-0.33132,204.443,0.092885
281.7000,1.82234,204.099,0.0878929
281.6000,0.412793,206.601,0.124113
281.5000,-0.38279,205.465,0.107705
281.4000,2.1926,204.063,0.0873655
281.3000,0.834978,204.772,0.0976726
281.2000,0.490494,204.762,0.0975246
281.1000,1.87042,203.318,0.0764994
281.0000,1.04629,203.79,0.0833892
280.9000,1.38232,204.576,0.0948269
280.8000,1.691,204.396,0.0922096
280.7000,0.475245,205.415,0.106983
280.6000,1.95627,204.514,0.0939218
280.5000,0.880467,204.575,0.0948105
280.4000,2.2349,206.115,0.117104
280.3000,0.892447,203.983,0.0861943
280.2000,-0.351871,205.517,0.108459
280.1000,1.63455,204.6,0.0951724
280.0000,0.381341,205.002,0.101009
279.9000,1.27233,204.63,0.0956004
279.8000,0.201834,204.17,0.0889148
279.7000,1.42759,204.493,0.093609
279.6000,1.559,204.797,0.0980342
279.5000,0.924421,203.873,0.0845942
279.4000,1.02963,204.836,0.0985932
279.3000,1.12236,204.922,0.0998421
279.2000,0.786758,204.051,0.0871838
279.1000,1.03378,204.928,0.0999243
279.0000,0.155484,203.974,0.0860626
278.9000,0.509627,205.026,0.101354
278.8000,0.545267,203.914,0.0851881
278.7000,0.857695,204.942,0.100138
278.6000,1.54741,204.963,0.100434
278.5000,0.774812,204.399,0.0922428
278.4000,1.43684,205.874,0.113619
278.3000,1.83981,205.514,0.10841
278.2000,2.48244,205.797,0.112506
278.1000,2.05709,204.731,0.097064
278.0000,1.3047,204.587,0.0949751
277.9000,-0.0186493,205.093,0.102322
277.8000,0.397006,205.182,0.103603
277.7000,-0.521272,205.093,0.102322
277.6000,-0.334941,204.684,0.0963898
277.5000,1.10328,204.566,0.0946788
277.4000,1.30021,203.126,0.0737033
277.3000,1.25257,204.615,0.0953864
277.2000,0.646618,204.731,0.097064
277.1000,0.627341,205.438,0.107311
277.0000,1.89873,203.914,0.0851881
276.9000,0.179766,203.707,0.0821842
276.8000,1.61877,204.214,0.0895576
276.7000,1.60137,204.618,0.0954359
276.6000,1.03165,204.28,0.0905134
276.5000,-0.202779,205.348,0.106015
276.4000,0.522375,205.133,0.102897
276.3000,-0.552671,205.061,0.101863
276.2000,2.16753,204.292,0.0906945
276.1000,0.0164736,204.755,0.097426
276.0000,0.281857,205.853,0.113324
275.9000,-0.256466,204.507,0.0938231
275.8000,0.63364,204.374,0.0918803
275.7000,1.48505,204.274,0.090431
275.6000,1.15388,203.781,0.0832574
275.5000,0.465254,204.336,0.091337
275.4000,1.54455,205.472,0.107803
275.3000,-0.261165,204.227,0.0897555
275.2000,1.24675,204.366,0.0917651
275.1000,0.540627,204.377,0.0919298
275.0000,0.589513,205.815,0.112767
274.9000,3.14274,205.729,0.111523
274.8000,1.23929,205.875,0.113635
274.7000,1.54288,205.142,0.103029
274.6000,-0.856541,203.568,0.0801525
274.5000,-0.586354,205.906,0.114077
274.4000,1.09951,204.664,0.0960939
274.3000,0.859721,205.568,0.109196
274.2000,-0.235415,205.121,0.102733
274.1000,0.18308,206.116,0.11712
274.0000,0.602521,205.283,0.10508
273.9000,2.25252,204.955,0.100319
273.8000,1.24363,205.323,0.105654
273.7000,0.0115058,206.005,0.115517
273.6000,3.46976,204.835,0.0985768
273.5000,1.35774,205.008,0.101091
273.4000,-0.436741,204.319,0.0910899
273.3000,1.21658,203.817,0.0837854
273.2000,0.996696,205.647,0.110343
273.1000,1.94066,205.154,0.103209
273.0000,0.453785,205.458,0.107606
272.9000,0.448736,204.993,0.100877
272.8000,0.932678,204.394,0.0921768
272.7000,-0.692706,205.149,0.103127
272.6000,0.647968,205.566,0.109164
272.5000,1.15251,203.349,0.0769626
272.4000,-0.294121,205.262,0.104768
272.3000,2.18559,206.338,0.120324
272.2000,-0.283009,205.37,0.106327
272.1000,1.13693,205.574,0.109278
272.0000,1.33974,205.04,0.101551
271.9000,1.09009,206.856,0.127783
271.8000,-0.320805,204.921,0.0998258
271.7000,2.00827,206.591,0.123966
271.6000,1.97423,205.049,0.101682
271.5000,2.09248,205.749,0.111818
271.4000,1.50265,205.188,0.103702
271.3000,0.328267,205.521,0.108524
271.2000,1.09885,205.767,0.11208
271.1000,-0.080899,205.711,0.111261
271.0000,0.435543,205.15,0.103143
270.9000,0.500102,205.012,0.10114
270.8000,0.534428,203.767,0.0830591
270.7000,1.33049,204.275,0.0904474
270.6000,0.581341,203.992,0.0863264
270.5000,1.64383,206.125,0.117251
270.4000,0.954889,205.041,0.101567
270.3000,0.297108,206.045,0.11609
270.2000,-0.293208,205.111,0.102585
270.1000,0.621421,204.671,0.0961925
270.0000,0.869773,206.763,0.126446
269.9000,1.04295,205.467,0.107737
269.8000,-0.124293,204.239,0.0899203
269.7000,1.00509,205.29,0.105179
269.6000,0.899391,205.39,0.106622
269.5000,1.45769,206.613,0.124276
269.4000,1.28178,206.157,0.117709
269.3000,1.45358,205.412,0.106934
269.2000,0.935793,205.443,0.107393
269.1000,1.16342,205.61,0.109803
269.0000,0.779201,206.58,0.123803
268.9000,1.57478,206.57,0.123656
268.8000,0.194562,204.758,0.0974587
268.7000,-0.816172,206.642,0.1247
268.6000,0.888391,205.366,0.106278
268.5000,2.00955,205.294,0.105228
268.4000,1.7497,205.848,0.113242
268.3000,0.553471,206.005,0.115517
268.2000,-0.0460879,205.704,0.111162
268.1000,0.929885,205.883,0.11375
268.0000,-0.891519,206.366,0.120716
267.9000,0.953309,206.514,0.122856
267.8000,2.84227,206.528,0.123052
267.7000,1.02295,206.202,0.118363
267.6000,-0.444129,205.152,0.103176
267.5000,1.09891,205.639,0.110229
267.4000,0.963103,205.048,0.101666
267.3000,-0.125391,206.456,0.122023
267.2000,0.778069,206.524,0.123003
267.1000,0.427878,206.761,0.126413
267.0000,0.590727,206.372,0.120814
266.9000,-0.359604,206.09,0.116744
266.8000,1.08213,206.083,0.116646
266.7000,1.89432,206.924,0.128762
266.6000,1.53854,206.883,0.128174
266.5000,-1.32376,205.928,0.114404
266.4000,0.5052,205.358,0.106163
266.3000,-0.467153,207.762,0.140788
266.2000,2.09489,206.336,0.120291
266.1000,1.01921,206.798,0.126951
266.0000,1.01997,206.79,0.126837
265.9000,1.07902,206.641,0.124684
265.8000,1.66136,206.498,0.122627
265.7000,0.430966,206.53,0.123084
265.6000,2.28728,206.091,0.11676
265.5000,-0.0423419,207.365,0.135097
265.4000,1.57417,206.998,0.129821
265.3000,-0.672278,206.666,0.125043
265.2000,-2.44423,207.162,0.132183
265.1000,1.1568,207.362,0.135048
265.0000,1.4219,207.494,0.136952
264.9000,-1.31478,207.099,0.131271
264.8000,0.772156,206.76,0.126397
264.7000,1.81946,206.803,0.127017
264.6000,0.423073,207.086,0.131092
264.5000,0.117106,205.994,0.115353
264.4000,1.02543,205.831,0.112997
264.3000,0.588347,207.343,0.134788
264.2000,0.87577,206.054,0.116221
264.1000,1.30676,207.113,0.131483
264.0000,0.238951,206.889,0.128256
263.9000,1.18498,206.671,0.125124
263.8000,0.475552,206.772,0.126576
263.7000,0.130118,207.083,0.131043
263.6000,-0.0955108,206.992,0.129739
263.5000,0.38575,207.718,0.140171
263.4000,-0.599619,207.269,0.133713
263.3000,0.848981,208.05,0.144928
263.2000,0.125404,207.874,0.142396
263.1000,-1.80098,208.049,0.144912
263.0000,2.08765,206.942,0.129022
262.9000,1.28574,206.841,0.127571
262.8000,1.36743,207.68,0.139618
262.7000,0.668883,206.145,0.117529
262.6000,2.75239,206.707,0.12563
262.5000,1.49209,208.002,0.144231
262.4000,2.62875,206.217,0.118575
262.3000,-0.744368,208.005,0.144279
262.2000,0.196462,207.271,0.133746
262.1000,0.652343,206.487,0.122464
262.0000,1.22962,206.145,0.117529
261.9000,1.35139,206.306,0.11985
261.8000,0.271179,206.773,0.126593
261.7000,1.02784,206.457,0.122039
261.6000,0.826543,207.683,0.139667
261.5000,0.874284,206.988,0.129674
261.4000,1.70466,208.526,0.151738
261.3000,1.01481,207.811,0.141503
261.2000,-1.24171,207.704,0.139959
261.1000,0.126757,206.885,0.128191
261.0000,1.52645,207.887,0.142591
260.9000,0.812543,208.537,0.151884
260.8000,0.244177,207.095,0.131222
260.7000,-0.746151,208.484,0.151139
260.6000,1.78677,207.28,0.133876
260.5000,-0.111037,208.544,0.151997
260.4000,-0.407594,208.16,0.146502
260.3000,0.985854,207.573,0.13809
260.2000,1.44766,208.897,0.157031
260.1000,-0.427478,207.002,0.129886
260.0000,1.54699,208.657,0.1536
259.9000,0.0865269,207.81,0.141486
259.8000,1.85259,208.116,0.14587
259.7000,0.0399696,208.874,0.156707
259.6000,1.26796,207.656,0.139277
259.5000,1.03217,208.375,0.149567
259.4000,0.392101,209.88,0.171043
259.3000,-0.128072,209.86,0.170753
259.2000,-0.864363,207.926,0.143143
259.1000,0.415228,208.581,0.152515
259.0000,0.946459,208.943,0.157694
258.9000,1.88688,208.228,0.147476
258.8000,1.74532,209.093,0.159828
258.7000,2.16011,208.987,0.158325
258.6000,1.49506,208.68,0.15394
258.5000,1.95838,208.135,0.146145
258.4000,0.604722,208.464,0.150847
258.3000,1.32615,208.863,0.156546
258.2000,1.57879,209.902,0.171349
258.1000,1.50318,208.552,0.152111
258.0000,1.24867,208.617,0.153034
257.9000,1.30435,209.526,0.165997
257.8000,-1.14278,207.575,0.138106
257.7000,0.822626,209.4,0.164205
257.6000,-0.71316,209.475,0.165271
257.5000,-0.149667,209.393,0.164108
257.4000,-0.0694782,209.126,0.160297
257.3000,1.40933,209.562,0.166513
257.2000,1.18724,210.298,0.176983
257.1000,0.159075,210.337,0.17753
257.0000,1.89821,208.954,0.15784
256.9000,0.0261418,209.455,0.164996
256.8000,0.490133,209.749,0.169174
256.7000,-0.641127,209.599,0.167045
256.6000,0.931863,209.161,0.160797
256.5000,1.08502,209.849,0.170592
256.4000,3.42486,209.307,0.162881
256.3000,1.74473,209.202,0.161379
256.2000,1.01011,210.068,0.173717
256.1000,-0.467155,209.23,0.161783
256.0000,0.55398,208.954,0.15784
255.9000,0.922185,209.223,0.161686
255.8000,0.13226,209.33,0.163204
255.7000,0.343021,209.256,0.162154
255.6000,1.62554,209.438,0.164754
255.5000,-0.386732,209.599,0.167045
255.4000,1.8253,209.943,0.171929
255.3000,2.66207,209.981,0.172477
255.2000,1.88395,210.532,0.180296
255.1000,-1.05354,210.011,0.172895
255.0000,1.80775,209.73,0.1689
254.9000,2.01484,210.854,0.184857
254.8000,1.31579,209.919,0.171591
254.7000,0.668885,210.318,0.177257
254.6000,1.27806,210.02,0.173024
254.5000,-0.565559,209.722,0.168787
254.4000,1.2317,210.721,0.182979
254.3000,1.11015,208.529,0.151771
254.2000,1.45143,211.798,0.198203
254.1000,0.135517,209.77,0.16948
254.0000,0.0413169,210.42,0.178704
253.9000,2.02853,209.829,0.170318
253.8000,2.41865,210.054,0.173507
253.7000,-0.126131,210.864,0.185001
253.6000,2.8327,209.957,0.172139
253.5000,-1.0147,210.068,0.173717
253.4000,0.849447,209.746,0.169125
253.3000,1.68601,210.688,0.182513
253.2000,0.0214828,211.103,0.188386
253.1000,2.26274,210.134,0.17465
253.0000,0.746052,210.451,0.179154
252.9000,-0.859802,210.5,0.179846
252.8000,0.676738,210.806,0.184183
252.7000,1.07358,210.116,0.174393
252.6000,0.115623,212.654,0.210272
252.5000,0.770725,211.428,0.192986
252.4000,0.551377,212.081,0.202198
252.3000,0.968917,210.664,0.182176
252.2000,0.160577,211.783,0.197995
252.1000,2.49131,210.753,0.183428
252.0000,-1.10832,210.896,0.185451
251.9000,2.6879,211.655,0.196187
251.8000,1.43883,211.609,0.195547
251.7000,0.75204,210.884,0.18529
251.6000,-0.100133,210.279,0.17671
251.5000,1.65927,212.076,0.202134
251.4000,0.776485,211.013,0.187119
251.3000,0.616178,211.558,0.194827
251.2000,1.16832,212.277,0.204961
251.1000,1.38424,211.156,0.18914
251.0000,1.90857,212.221,0.204179
250.9000,-0.201043,210.71,0.182818
250.8000,1.15084,210.181,0.17531
250.7000,1.13368,211.399,0.192569
250.6000,0.839192,211.162,0.18922
250.5000,-1.56539,210.46,0.179283
250.4000,3.5875,212.301,0.205296
250.3000,0.947945,211.553,0.194747
250.2000,1.30247,210.668,0.182224
250.1000,1.0407,213.157,0.217342
250.0000,1.33131,212.234,0.204354
249.9000,-0.578316,211.844,0.198858
249.8000,0.985836,210.959,0.186349
249.7000,1.40481,211.685,0.196619
249.6000,3.2834,211.402,0.192617
249.5000,0.587096,212.457,0.207498
249.4000,-0.0032083,213.315,0.219553
249.3000,-0.0284964,211.892,0.19953
249.2000,2.0398,212.41,0.206844
249.1000,0.575869,211.335,0.191672
249.0000,0.628693,212.857,0.213124
248.9000,0.762353,211.512,0.19417
248.8000,1.49328,213.193,0.217851
248.7000,-0.197285,212.775,0.211977
248.6000,0.701313,212.438,0.207227
248.5000,-0.360974,211.531,0.194443
248.4000,0.506868,211.297,0.191127
248.3000,0.86875,211.876,0.199306
248.2000,4.15903,211.315,0.191384
248.1000,1.09644,212.275,0.204929
248.0000,-0.631154,211.945,0.200281
247.9000,1.70458,210.99,0.186782
247.8000,1.43896,211.394,0.192505
247.7000,2.35428,214.506,0.236224
247.6000,1.19177,213.214,0.218138
247.5000,2.04514,212.191,0.203747
247.4000,2.06832,213.178,0.217629
247.3000,0.549008,212.537,0.20863
247.2000,0.421439,213.541,0.222731
247.1000,0.969769,211.633,0.195883
247.0000,0.695699,212.435,0.207195
246.9000,-0.103341,212.607,0.209603
246.8000,1.94972,212.643,0.210113
246.7000,1.21433,212.583,0.209268
246.6000,1.32029,211.997,0.201016
246.5000,3.14525,213.04,0.215703
246.4000,1.78577,212.55,0.208806
246.3000,1.71436,212.961,0.214589
246.2000,1.36485,213.297,0.219298
246.1000,0.683763,213.363,0.220236
246.0000,1.40674,213.403,0.220793
245.9000,1.20806,213.293,0.219251
245.8000,0.712141,212.808,0.212439
245.7000,1.13348,213.085,0.216324
245.6000,0.371079,212.524,0.208439
245.5000,1.7085,212.375,0.206349
245.4000,0.45018,213.35,0.220046
245.3000,0.0686652,212.919,0.214
245.2000,0.419199,212.967,0.214669
245.1000,1.9964,214.168,0.231504
245.0000,1.54138,212.405,0.206764
244.9000,-0.215648,213.573,0.223176
244.8000,-0.0955387,213.086,0.21634
244.7000,0.645692,212.909,0.213857
244.6000,0.765329,214.511,0.236303
244.5000,-0.205603,213.291,0.219219
244.4000,1.80493,213.92,0.228032
244.3000,2.40343,214.406,0.234831
244.2000,1.72391,213.989,0.229
244.1000,1.24076,213.598,0.223525
244.0000,0.338518,212.944,0.21435
243.9000,0.746127,214.839,0.240873
243.8000,2.01139,213.3,0.219346
243.7000,0.651632,215.013,0.243306
243.6000,1.95793,213.284,0.219123
243.5000,2.3136,213.746,0.225605
243.4000,0.506055,214.035,0.22965
243.3000,0.337541,214.562,0.237015
243.2000,0.517936,214.762,0.239798
243.1000,-0.311724,213.048,0.215815
243.0000,-0.731082,213.965,0.228667
242.9000,-0.10504,215.591,0.251353
242.8000,2.144,215.332,0.247742
242.7000,2.44456,213.678,0.224653
242.6000,-0.652555,214.729,0.23934
242.5000,1.3651,214.315,0.233564
242.4000,-0.298631,214.546,0.236793
242.3000,1.21992,214.528,0.23654
242.2000,0.589294,214.256,0.23274
242.1000,-0.0417153,215.055,0.243891
242.0000,0.682303,213.383,0.220507
241.9000,0.29721,213.559,0.222985
241.8000,0.358861,214.97,0.242706
241.7000,-1.07454,215.13,0.244933
241.6000,0.246624,214.333,0.233817
241.5000,2.21099,215.345,0.247931
241.4000,0.0455712,214.749,0.239624
241.3000,1.05667,216.094,0.258343
241.2000,0.629739,215.803,0.254299
241.1000,1.27171,214.821,0.24062
241.0000,0.251396,214.034,0.229634
240.9000,-1.23653,215.528,0.25047
240.8000,-0.78894,215.03,0.243543
240.7000,0.557669,215.594,0.2514
240.6000,-0.0138657,215.065,0.244033
240.5000,-0.00490851,215.794,0.254173
240.4000,1.47552,215.39,0.248562
240.3000,-1.33239,216.059,0.257856
240.2000,1.74344,215.844,0.254865
240.1000,0.558264,216.704,0.266796
240.0000,0.606458,216.487,0.263798
239.9000,2.12522,216.3,0.261205
239.8000,1.74927,214.409,0.234878
239.7000,1.42421,215.344,0.247916
239.6000,0.692067,216.551,0.264677
239.5000,1.46265,215.207,0.246006
239.4000,0.522096,216.294,0.261111
239.3000,0.482407,217.204,0.273726
239.2000,-0.181517,216.611,0.265509
239.1000,0.0822594,215.579,0.251179
239.0000,1.20127,217.662,0.280048
238.9000,0.536838,216.33,0.261614
238.8000,0.231803,217.713,0.280752
238.7000,0.277334,216.69,0.266608
238.6000,0.916019,216.488,0.263813
238.5000,0.130891,217.097,0.272237
238.4000,0.740802,217.342,0.27562
238.3000,-1.61517,217.015,0.271109
238.2000,-0.186911,218.017,0.284939
238.1000,0.234242,217.493,0.277718
238.0000,1.95778,218.565,0.292489
237.9000,-0.361366,217.316,0.275261
237.8000,1.39429,217.778,0.281643
237.7000,0.780953,217.454,0.27717
237.6000,0.687311,217.694,0.280486
237.5000,0.79833,216.829,0.268538
237.4000,0.716739,217.248,0.274321
237.3000,1.06119,217.046,0.271532
237.2000,1.41984,217.717,0.280799
237.1000,0.228062,217.834,0.282424
237.0000,1.30433,217.917,0.283565
236.9000,-0.339363,217.525,0.278156
236.8000,0.117812,219.345,0.303194
236.7000,-0.176463,217.711,0.280721
236.6000,0.140142,218.827,0.296087
236.5000,2.04155,218.495,0.291523
236.4000,4.86814,218.21,0.287593
236.3000,1.36219,217.592,0.279079
236.2000,0.286342,218.187,0.287281
236.1000,0.100173,219.059,0.299277
236.0000,1.46024,218.687,0.294156
235.9000,1.98584,219.845,0.31004
235.8000,-0.765363,218.334,0.289309
235.7000,2.23858,218.908,0.297192
235.6000,1.33992,218.616,0.29319
235.5000,0.458005,220.029,0.312567
235.4000,-0.0285349,219.249,0.301873
235.3000,2.49986,219.235,0.301687
235.2000,1.8225,219.979,0.311885
235.1000,0.693048,219.537,0.305835
235.0000,-0.588319,218.659,0.293782
234.9000,0.201805,219.828,0.309807
234.8000,-0.404704,219.673,0.307697
234.7000,-1.41354,218.793,0.29562
234.6000,0.70452,220.91,0.324588
234.5000,-0.965717,220.12,0.313806
234.4000,1.24969,219.77,0.309016
234.3000,1.92325,219.821,0.309714
234.2000,1.09429,219.889,0.310645
234.1000,-0.0446024,220.273,0.315897
234.0000,0.414872,220.418,0.317878
233.9000,1.85281,219.577,0.306378
233.8000,1.6899,220.942,0.325036
233.7000,-1.23235,219.237,0.301718
233.6000,0.834574,219.727,0.308427
233.5000,2.82708,220.537,0.319503
233.4000,1.67442,220.456,0.318405
233.3000,-0.932205,221.344,0.3305
233.2000,1.84918,220.989,0.325669
233.1000,0.186051,221.924,0.338387
233.0000,1.15849,220.898,0.324434
232.9000,1.56255,221.22,0.328818
232.8000,1.71994,221.041,0.32638
232.7000,1.28191,222.508,0.346319
232.6000,0.804905,222.184,0.341924
232.5000,0.279896,219.113,0.300008
232.4000,0.415234,222.215,0.34234
232.3000,1.29489,221.822,0.337002
232.2000,1.07025,221.736,0.335832
232.1000,-0.291568,221.203,0.328587
232.0000,1.63362,222.236,0.342631
231.9000,0.582082,222.409,0.344967
231.8000,1.78992,222.72,0.349189
231.7000,1.60805,222.098,0.340756
231.6000,0.464694,222.835,0.350738
231.5000,0.74535,222.99,0.352839
231.4000,1.82608,223.106,0.354402
231.3000,0.921561,222.554,0.346933
231.2000,0.31971,222.113,0.340956
231.1000,1.3682,222.479,0.345919
231.0000,2.22673,223.396,0.358322
230.9000,0.881261,222.516,0.346426
230.8000,-0.638779,222.716,0.349128
230.7000,-1.15387,223.036,0.353467
230.6000,-0.412131,222.335,0.343969
230.5000,1.34092,223.794,0.363705
230.4000,-0.979565,222.091,0.340664
230.3000,0.248395,223.362,0.357863
230.2000,0.621546,222.819,0.350523
230.1000,0.568023,223.512,0.359898
230.0000,2.21545,224.745,0.376504
229.9000,0.765561,223.951,0.365813
229.8000,3.11866,223.571,0.360693
229.7000,-1.04066,224.124,0.36815
229.6000,1.81153,223.027,0.353344
229.5000,2.28135,223.007,0.353068
229.4000,1.14454,223.03,0.353375
229.3000,1.38483,223.222,0.355979
229.2000,1.81173,223.858,0.364561
229.1000,2.4084,223.297,0.35699
229.0000,-1.30947,223.651,0.361764
228.9000,3.23211,224.117,0.368058
228.8000,2.42476,224.487,0.373031
228.7000,-0.0036598,224.13,0.368226
228.6000,1.22196,224.128,0.368195
228.5000,1.65691,225.244,0.383199
228.4000,-0.345262,224.122,0.368119
228.3000,2.45112,224.635,0.375027
228.2000,1.54531,224.745,0.376504
228.1000,1.99142,224.889,0.378438
228.0000,3.9,225.628,0.388348
227.9000,1.19275,225.154,0.381998
227.8000,2.6206,225.204,0.382667
227.7000,0.911723,224.793,0.377144
227.6000,1.92498,226.558,0.40079
227.5000,1.9867,224.939,0.379107
227.4000,1.62009,225.91,0.392126
227.3000,1.79007,226.87,0.404947
227.2000,-1.37699,225.95,0.392657
227.1000,2.63665,226.517,0.400245
227.0000,0.765594,226.033,0.393779
226.9000,0.439146,227.773,0.416971
226.8000,1.45298,226.506,0.400094
226.7000,1.0239,225.665,0.388849
226.6000,0.444661,226.422,0.398974
226.5000,5.43572,226.847,0.404645
226.4000,1.85736,226.641,0.401894
226.3000,2.39647,227.247,0.409976
226.2000,2.76874,227.748,0.41664
226.1000,3.06131,229.413,0.438716
226.0000,1.64971,228.488,0.426463
225.9000,0.891505,227.493,0.413249
225.8000,0.632471,228.065,0.420855
225.7000,2.52693,227.221,0.409629
225.6000,1.94129,228.832,0.431027
225.5000,2.6305,227.453,0.412721
225.4000,-1.14585,228.407,0.425396
225.3000,0.896783,227.923,0.418974
225.2000,0.205713,227.733,0.416444
225.1000,0.322564,226.955,0.406081
225.0000,0.444901,228.687,0.429106
224.9000,0.92831,229.249,0.436544
224.8000,-0.721114,229.396,0.438491
224.7000,1.04362,229.438,0.439045
224.6000,0.808178,229.378,0.438252
224.5000,2.38444,228.943,0.432497
224.4000,0.89107,228.741,0.429826
224.3000,2.55978,228.942,0.432482
224.2000,0.902617,229.745,0.4431
224.1000,-0.407885,229.788,0.443668
224.0000,1.73156,229.14,0.435106
223.9000,0.727352,229.736,0.44298
223.8000,1.60664,229.903,0.445178
223.7000,0.860353,229.36,0.438012
223.6000,2.96555,229.77,0.443429
223.5000,1.14386,229.295,0.437158
223.4000,1.58342,229.557,0.440617
223.3000,1.15185,230.196,0.449047
223.2000,3.43632,229.846,0.444431
223.1000,0.944816,230.486,0.452868
223.0000,-0.425288,230.904,0.458367
222.9000,0.450996,230.833,0.457429
222.8000,1.11478,230.808,0.457101
222.7000,0.167431,231.909,0.471553
222.6000,1.66071,231.245,0.462847
222.5000,0.202822,232.039,0.473244
222.4000,1.8396,231.966,0.472295
222.3000,2.87959,231.427,0.465226
222.2000,2.48563,230.819,0.45725
222.1000,1.87385,232.133,0.474475
222.0000,3.72232,231.628,0.467871
221.9000,2.47629,232.292,0.476565
221.8000,1.48262,231.969,0.472339
221.7000,3.0448,232.049,0.473378
221.6000,1.05906,232.294,0.47658
221.5000,-1.28318,231.454,0.465583
221.4000,1.78076,232.035,0.4732
221.3000,1.64387,232.502,0.479306
221.2000,0.207467,232.539,0.479795
221.1000,2.05467,232.992,0.485697
221.0000,2.16299,233.995,0.498771
220.9000,2.71503,232.002,0.47277
220.8000,1.96635,233.561,0.493125
220.7000,0.0219489,232.63,0.480979
220.6000,1.88939,233.524,0.492639
220.5000,0.609039,233.391,0.490912
220.4000,1.44149,233.752,0.495603
220.3000,1.82135,233.799,0.496222
220.2000,2.09173,234.011,0.498978
220.1000,2.10014,233.944,0.498108
220.0000,-0.501488,233.729,0.495308
219.9000,0.376633,235.327,0.516039
219.8000,0.697997,234.027,0.499184
219.7000,1.90807,234.555,0.506041
219.6000,1.16741,234.095,0.500067
219.5000,1.36967,233.576,0.493317
219.4000,0.724159,233.869,0.497121
219.3000,-0.13767,235.149,0.513736
219.2000,0.58721,234.486,0.505144
219.1000,3.74051,235.685,0.520669
219.0000,2.31199,235.647,0.520185
218.9000,2.85415,234.971,0.511432
218.8000,2.10235,235.587,0.519409
218.7000,-1.60716,234.93,0.510904
218.6000,1.2742,235.39,0.516859
218.5000,0.732726,234.934,0.510948
218.4000,4.11733,234.769,0.508818
218.3000,2.93334,236.292,0.528509
218.2000,2.98486,235.493,0.518193
218.1000,0.93849,235.634,0.52001
218.0000,1.81925,235.968,0.524327
217.9000,2.9124,235.992,0.524634
217.8000,0.0113257,236.603,0.53251
217.7000,-0.107071,235.867,0.523025
217.6000,1.88265,236.092,0.525922
217.5000,0.986703,236.484,0.530977
217.4000,1.76919,236.858,0.535793
217.3000,2.24065,236.926,0.536668
217.2000,2.425,237.318,0.541708
217.1000,1.10497,237.158,0.539655
217.0000,-1.3736,237.157,0.539641
216.9000,2.90417,238.187,0.552859
216.8000,1.5707,237.704,0.54667
216.7000,-0.343733,238.174,0.552699
216.6000,1.205,237.975,0.550143
216.5000,-0.116917,236.205,0.527383
216.4000,-0.237139,237.945,0.549766
216.3000,1.72033,237.077,0.538621
216.2000,1.19489,237.895,0.549126
216.1000,1.28128,237.43,0.54315
216.0000,1.46617,238.593,0.558066
215.9000,1.62511,237.818,0.548138
215.8000,0.225616,238.156,0.552467
215.7000,1.43454,237.731,0.547019
215.6000,2.139,238.285,0.554121
215.5000,2.53157,238.476,0.556558
215.4000,-1.29382,238.06,0.551233
215.3000,1.64005,238.911,0.562123
215.2000,1.09641,239.128,0.564901
215.1000,1.53753,239.347,0.567693
215.0000,1.98753,238.623,0.558443
214.9000,0.802694,239.402,0.568401
214.8000,3.63525,237.619,0.545579
214.7000,3.66684,239.278,0.566811
214.6000,0.368164,239.245,0.566391
214.5000,0.788411,240.17,0.578174
214.4000,2.2024,240.615,0.583835
214.3000,-2.07493,240.136,0.577741
214.2000,-0.20747,239.215,0.566015
214.1000,-1.62664,240.308,0.579932
214.0000,1.58574,241.239,0.591758
213.9000,3.16504,239.734,0.572634
213.8000,3.63551,239.783,0.573255
213.7000,0.63241,240.671,0.584555
213.6000,0.206166,240.992,0.588625
213.5000,2.60499,240.175,0.578246
213.4000,0.568001,241.372,0.593438
213.3000,1.7552,240.557,0.583101
213.2000,2.05358,240.72,0.585174
213.1000,1.78096,241.682,0.59737
213.0000,2.48195,241.076,0.589689
212.9000,1.12581,241.84,0.599363
212.8000,3.98039,242.09,0.602529
212.7000,3.51678,238.996,0.563208
212.6000,1.15035,240.418,0.58133
212.5000,1.57268,241.662,0.597111
212.4000,1.22023,241.646,0.596911
212.3000,2.14885,241.96,0.600882
212.2000,0.123824,242.316,0.605378
212.1000,1.65944,241.785,0.598675
212.0000,2.31113,244.317,0.630565
211.9000,1.30851,243.21,0.616652
211.8000,1.84969,242.873,0.612412
211.7000,1.81955,243.044,0.614568
211.6000,4.61531,242.176,0.603617
211.5000,3.8728,244.138,0.628318
211.4000,0.423084,242.001,0.601397
211.3000,4.11129,242.752,0.610884
211.2000,1.70881,242.934,0.613183
211.1000,0.687497,243.735,0.623266
211.0000,-0.733282,242.924,0.613055
210.9000,1.77215,243.559,0.621044
210.8000,3.5479,243.806,0.624149
210.7000,2.65685,244.115,0.628034
210.6000,2.13142,243.792,0.623978
210.5000,3.00809,243.564,0.621115
210.4000,1.09135,244.16,0.628603
210.3000,1.06665,244.851,0.637267
210.2000,2.52785,244.97,0.638757
210.1000,1.20629,244.943,0.638416
210.0000,-0.659047,245.131,0.64077
209.9000,0.666516,245.629,0.646987
209.8000,-0.520748,243.565,0.621129
209.7000,1.97392,245.452,0.644779
209.6000,1.24623,246.18,0.653873
209.5000,0.509657,246.238,0.654593
209.4000,-0.191817,245.467,0.644964
209.3000,3.17573,246.553,0.658517
209.2000,-0.627885,246.955,0.663521
209.1000,4.14152,246.946,0.663408
209.0000,4.62003,247.821,0.674268
208.9000,2.427,246.936,0.663282
208.8000,1.43877,247.597,0.671486
208.7000,1.23384,246.849,0.662197
208.6000,2.36766,247.182,0.666338
208.5000,-0.423844,247.453,0.6697
208.4000,6.12471,247.095,0.665253
208.3000,-3.11438,248.112,0.677877
208.2000,1.25265,247.236,0.667013
208.1000,1.96636,247.281,0.667562
208.0000,0.00500943,249.235,0.691758
207.9000,2.24136,247.994,0.676417
207.8000,1.19161,248.095,0.677666
207.7000,1.15198,246.846,0.662154
207.6000,2.13376,248.266,0.679785
207.5000,5.02844,248.81,0.686511
207.4000,3.45624,249.605,0.696313
207.3000,0.815617,250.483,0.707119
207.2000,0.607407,250.281,0.70464
207.1000,3.39645,250.104,0.702466
207.0000,0.567736,249.993,0.7011
206.9000,2.11686,249.88,0.699705
206.8000,-1.65742,250.777,0.710738
206.7000,1.70263,250.632,0.708957
206.6000,-0.29771,249.615,0.696439
206.5000,-0.0190768,250.195,0.703581
206.4000,-2.3366,250.35,0.70549
206.3000,1.06167,250.909,0.712351
206.2000,4.92619,251.508,0.719699
206.1000,-0.0892425,251.275,0.716839
206.0000,3.28093,251.306,0.717228
205.9000,3.08361,251.268,0.716756
205.8000,3.9802,252.391,0.730493
205.7000,0.507118,251.877,0.724219
205.6000,0.739926,252.513,0.731987
205.5000,-0.356031,252.489,0.731696
205.4000,3.4411,252.884,0.736506
205.3000,3.46844,253.348,0.742166
205.2000,2.2877,253.268,0.741186
205.1000,1.13436,253.525,0.744317
205.0000,3.7105,253.407,0.742883
204.9000,2.90773,254.221,0.752771
204.8000,1.86136,254.428,0.755287
204.7000,1.60607,253.726,0.746756
204.6000,-0.213219,253.323,0.741862
204.5000,-1.01169,253.377,0.74251
204.4000,0.901664,254.82,0.76004
204.3000,4.89184,254.919,0.761233
204.2000,0.185046,254.471,0.755809
204.1000,-0.444965,255.455,0.767719
204.0000,4.65344,255.759,0.771402
203.9000,1.63325,255.551,0.768883
203.8000,2.58484,255.581,0.769252
203.7000,2.47276,256.667,0.782347
203.6000,1.23915,255.114,0.763593
203.5000,0.823482,256.534,0.78075
203.4000,1.11736,257.432,0.791546
203.3000,-1.75742,257.425,0.791464
203.2000,4.60138,256.958,0.785852
203.1000,1.52737,257.028,0.786697
203.0000,1.08776,258.01,0.798481
202.9000,1.81841,257.599,0.79356
202.8000,4.72407,258.317,0.802161
202.7000,4.39596,258.18,0.800519
202.6000,1.35763,258.461,0.803884
202.5000,2.03826,257.993,0.798277
202.4000,3.69418,258.902,0.809171
202.3000,2.06529,257.824,0.796252
202.2000,4.4363,259.465,0.815885
202.1000,2.65065,260.338,0.826296
202.0000,-0.97609,259.181,0.812503
201.9000,4.42564,259.562,0.817048
201.8000,0.938679,260.392,0.826943
201.7000,1.15416,260.809,0.831902
201.6000,3.16476,261.149,0.835939
201.5000,3.20228,260.89,0.832858
201.4000,1.32928,260.601,0.829423
201.3000,-3.09769,261.209,0.836652
201.2000,4.16619,262.166,0.847985
201.1000,1.0084,261.424,0.839193
201.0000,0.740887,262.664,0.853879
200.9000,-2.50184,261.924,0.845128
200.8000,0.587883,264.944,0.880715
200.7000,0.0528136,263.265,0.860967
200.6000,3.14961,262.761,0.855017
200.5000,-0.761836,263.026,0.858147
200.4000,2.20236,263.098,0.859002
200.3000,4.05955,263.837,0.867708
200.2000,0.582434,263.823,0.867548
200.1000,0.693405,263.483,0.863545
200.0000,2.63791,264.853,0.879652
199.9000,2.83327,264.346,0.873691
199.8000,0.325016,265.071,0.882203
199.7000,1.86574,266.414,0.897913
199.6000,0.961516,265.52,0.88746
199.5000,4.5812,265.066,0.88215
199.4000,0.280443,266.84,0.902884
199.3000,2.95178,265.526,0.88754
199.2000,2.50511,266.734,0.901655
199.1000,3.10444,265.989,0.892949
199.0000,2.49323,267.643,0.91224
198.9000,5.53419,266.162,0.894975
198.8000,0.558023,267.45,0.909998
198.7000,2.14224,267.022,0.905011
198.6000,1.11183,266.79,0.902303
198.5000,0.667973,268.033,0.91677
198.4000,-0.368967,267.602,0.911765
198.3000,0.823732,269.121,0.929386
198.2000,-0.117751,269.226,0.930606
198.1000,2.35054,268.427,0.921349
198.0000,1.15079,268.851,0.926262
197.9000,1.43147,268.694,0.92445
197.8000,1.08527,269.412,0.932756
197.7000,5.98124,267.936,0.915651
197.6000,0.584574,270.412,0.944311
197.5000,5.46386,270.025,0.93984
197.4000,2.30966,269.251,0.930894
197.3000,0.890429,270.531,0.945683
197.2000,3.01495,270.643,0.946976
197.1000,-0.0180386,271.145,0.952756
197.0000,1.51527,270.78,0.948556
196.9000,-1.546,270.974,0.950787
196.8000,2.18405,271.819,0.960505
196.7000,-1.55563,271.37,0.955337
196.6000,2.99575,272.131,0.964082
196.5000,0.385861,272.15,0.964303
196.4000,-0.0937476,271.992,0.962483
196.3000,-0.0214387,273.739,0.982481
196.2000,0.800125,272.165,0.964472
196.1000,2.58842,272.555,0.96894
196.0000,0.00408851,274.693,0.993357
195.9000,-1.49864,273.768,0.982817
195.8000,3.32825,272.842,0.972223
195.7000,1.11309,274.635,0.992699
195.6000,-2.96712,275.314,1.00042
195.5000,-2.3009,274.829,0.994904
195.4000,1.35588,274.33,0.989227
195.3000,1.72432,275.323,1.00052
195.2000,5.54206,274.309,0.988982
195.1000,1.81929,275.5,1.00253
195.0000,-0.990168,275.942,1.00754
194.9000,-1.41661,277.222,1.02203
194.8000,-2.06597,277.625,1.02659
194.7000,-1.58296,277.903,1.02972
194.6000,1.58393,277.066,1.02027
194.5000,1.507,278.803,1.03985
194.4000,-1.40675,278.225,1.03334
194.3000,2.45619,278.565,1.03717
194.2000,4.39244,279.575,1.04853
194.1000,2.22813,279.394,1.04649
194.0000,1.54179,279.826,1.05133
193.9000,-0.532795,280.605,1.06006
193.8000,1.95551,280.39,1.05765
193.7000,-2.40108,280.333,1.05702
193.6000,3.29955,281.831,1.07375
193.5000,0.802028,282.93,1.08597
193.4000,3.12396,282.626,1.08259
193.3000,3.8708,282.707,1.08349
193.2000,6.52503,282.343,1.07945
193.1000,1.29872,282.842,1.08499
193.0000,1.8238,283.631,1.09374
192.9000,-0.614606,283.617,1.09359
192.8000,1.45049,286.015,1.12007
192.7000,0.808312,286.056,1.12054
192.6000,0.961015,286.921,1.13004
192.5000,1.48398,287.392,1.13521
192.4000,2.32187,289.496,1.15821
192.3000,-0.51184,288.61,1.14854
192.2000,0.208672,289.228,1.15528
192.1000,1.50578,289.136,1.15428
192.0000,1.54934,290.749,1.17182
191.9000,0.595902,291.533,1.18033
191.8000,4.26296,293.675,1.20347
191.7000,-0.254391,291.162,1.17631
191.6000,0.202821,292.204,1.1876
191.5000,-0.645708,293.119,1.19747
191.4000,0.62204,294.36,1.21083
191.3000,-2.84331,295.346,1.22142
191.2000,-0.911318,296.046,1.22891
191.1000,1.48377,297.581,1.24529
191.0000,0.69295,297.641,1.24593
190.9000,4.78465,299.541,1.26611
190.8000,6.59533,300.262,1.27374
190.7000,-2.87672,301.488,1.28667
190.6000,6.68505,303.139,1.30402
190.5000,2.4357,304.472,1.31798
190.4000,-0.0527911,303.95,1.31252
190.3000,-2.92364,307.04,1.34472
190.2000,-5.22862,306.349,1.33754
190.1000,-0.831778,307.722,1.35179
190.0000,-0.509327,307.546,1.34997

##### Extended Information
[Comments]
Sample name,BA_EH_JP
Comment
User,HurleyPonticos
Division
Company,Saint Mary's College

[Detailed Information]
Creation date,9/27/2022 4:08 PM

Data array type,Linear data array * 3
Horizontal axis,Wavelength [nm]
Vertical axis(1),CD [mdeg]
Vertical axis(2),HT [V]
Vertical axis(3),Abs
Start,320 nm
End,190 nm
Data interval,0.1 nm
Data points,1301    

[Measurement Information]
Instrument name,J-1500
Model name,J-1500
Serial No.,B051061638

Detector,PM-539
Detector S/N,B051061638
  Lock-in amp.,X mode
  HT volt,Auto

Accessory,PTC-517
Accessory S/N,B026561646
  Temperature,22.20 C
  Control sensor,Holder
  Monitor sensor,Holder

Measurement date,9/27/2022 4:08 PM

CD Overload detect,1279
Photometric mode,CD, HT, Abs
Measure range,320 - 190 nm
Data pitch,0.1 nm
CD scale,20 mdeg/0.05 dOD
FL scale,20 mdeg/0.05 dOD
D.I.T.,8 msec
Bandwidth,2.00 nm
Start mode,Immediately
Scanning mode,Continuous
Scanning speed,100 nm/min
Baseline correction,None
Shutter control,Auto
No. of cycle,1/1
N2 Flowmeter,Manual

Solvent,NaPO4 buffer

