TITLE,BA_EH_JP
DATA TYPE,
ORIGIN,JASCO
OWNER,
DATE,22/09/27
TIME,17:10:02
SPECTROMETER/DATA SYSTEM,
LOCALE,1033
RESOLUTION,
DELTAX,-0.1
XUNITS,NANOMETERS
YUNITS,CD [mdeg]
Y2UNITS,HT [V]
Y3UNITS,ABSORBANCE
FIRSTX,  320.0000
LASTX,  190.0000
NPOINTS,    1301
FIRSTY,     0.89878
MAXY,     7.62259
MINY,    -5.33723
XYDATA
320.0000,0.898776,206.75,0.12625
319.9000,1.09886,206.179,0.118019
319.8000,1.89814,207.366,0.135113
319.7000,1.1834,206.004,0.115501
319.6000,3.15065,205.017,0.101222
319.5000,1.80377,206.945,0.129055
319.4000,1.70011,206.627,0.124488
319.3000,2.01571,206.985,0.129641
319.2000,2.45893,206.939,0.128973
319.1000,2.11822,206.933,0.128892
319.0000,-0.313008,206.519,0.122921
318.9000,2.09382,206.66,0.124961
318.8000,1.79995,207.162,0.132183
318.7000,1.55402,206.575,0.123737
318.6000,1.12664,206.878,0.128093
318.5000,1.61664,206.504,0.122709
318.4000,0.817005,207.243,0.133339
318.3000,1.57422,206.588,0.123917
318.2000,1.78385,206.353,0.120536
318.1000,1.65608,207.243,0.133339
318.0000,-1.1522,206.725,0.125891
317.9000,0.316955,206.609,0.124227
317.8000,2.71918,206.864,0.127897
317.7000,2.08473,206.768,0.126511
317.6000,0.212286,206.622,0.124406
317.5000,2.37153,206.557,0.123476
317.4000,0.135664,206.334,0.120258
317.3000,1.47076,207.307,0.134267
317.2000,1.95756,206.249,0.119033
317.1000,-0.120777,206.029,0.115861
317.0000,1.58354,205.964,0.114928
316.9000,0.867866,207.135,0.131792
316.8000,1.95259,206.747,0.126217
316.7000,1.6248,206.994,0.129772
316.6000,2.41702,207.142,0.13189
316.5000,0.961591,207.735,0.140414
316.4000,2.83783,206.895,0.128337
316.3000,0.987291,206.301,0.119785
316.2000,-1.01373,206.385,0.120994
316.1000,0.845006,205.908,0.11411
316.0000,0.849189,206.739,0.126103
315.9000,0.865871,206.272,0.11936
315.8000,0.0185361,206.495,0.122578
315.7000,1.85699,205.8,0.112554
315.6000,3.09981,205.913,0.114192
315.5000,1.79433,206.549,0.123362
315.4000,2.37291,206.582,0.123835
315.3000,0.990493,206.309,0.119899
315.2000,0.15064,206.736,0.126054
315.1000,0.506906,205.693,0.110999
315.0000,1.97735,205.629,0.110081
314.9000,1.211,204.604,0.0952219
314.8000,1.89087,205.917,0.114241
314.7000,-0.55987,206.48,0.122366
314.6000,1.46639,206.668,0.125075
314.5000,1.55735,206.235,0.118837
314.4000,-2.15046,206.293,0.11967
314.3000,-0.934474,205.815,0.112767
314.2000,-0.221462,206.446,0.121876
314.1000,0.256675,206.358,0.120602
314.0000,3.027,206.403,0.121255
313.9000,2.48639,206.155,0.117676
313.8000,1.04412,206.941,0.129006
313.7000,1.17618,205.96,0.114862
313.6000,1.55422,206.315,0.119981
313.5000,0.791853,205.712,0.111277
313.4000,1.91169,205.85,0.113275
313.3000,1.99002,205.86,0.113422
313.2000,-0.0759651,206.641,0.124684
313.1000,1.8102,206.206,0.118412
313.0000,1.15358,207.459,0.136447
312.9000,0.777375,206.225,0.11869
312.8000,1.18369,205.77,0.112112
312.7000,1.59496,206.781,0.126707
312.6000,0.6683,206.729,0.125956
312.5000,0.846587,206.099,0.116875
312.4000,-0.304734,206.543,0.12328
312.3000,0.807144,204.775,0.0977054
312.2000,2.61525,205.519,0.108492
312.1000,1.90022,206.39,0.121075
312.0000,0.781199,206.336,0.120291
311.9000,1.0246,205.881,0.113717
311.8000,1.21989,206.361,0.120651
311.7000,2.34089,205.378,0.106442
311.6000,1.4055,207.823,0.141665
311.5000,1.86201,205.902,0.114028
311.4000,-1.24605,207.084,0.131059
311.3000,0.942082,205.053,0.101748
311.2000,0.284766,205.861,0.113439
311.1000,-0.476666,207.014,0.130049
311.0000,3.11821,205.764,0.112031
310.9000,3.06734,205.656,0.110474
310.8000,0.655781,206.31,0.119915
310.7000,-0.375878,206.332,0.120226
310.6000,-0.22881,204.826,0.0984452
310.5000,1.09213,206.213,0.11851
310.4000,2.52097,205.719,0.111375
310.3000,0.863554,206.218,0.118592
310.2000,-0.912994,206.892,0.128305
310.1000,1.43331,205.609,0.109786
310.0000,2.94722,206.312,0.119948
309.9000,1.58945,205.2,0.103866
309.8000,0.876386,205.886,0.113799
309.7000,2.70072,207.722,0.140219
309.6000,1.01904,206.284,0.11954
309.5000,1.49977,206.4,0.121206
309.4000,1.97911,205.978,0.115125
309.3000,3.73992,206.107,0.116989
309.2000,1.79868,205.427,0.107163
309.1000,1.81389,206.711,0.125696
309.0000,0.928945,205.175,0.103505
308.9000,2.32083,206.093,0.116777
308.8000,1.50002,205.872,0.113586
308.7000,0.397161,205.814,0.112751
308.6000,1.76044,205.339,0.105884
308.5000,1.37631,206.066,0.1164
308.4000,0.833946,206.324,0.120112
308.3000,1.29442,206.465,0.122154
308.2000,1.67969,206.234,0.118821
308.1000,-0.754435,206.156,0.117692
308.0000,0.796996,205.889,0.113832
307.9000,-0.801425,205.958,0.11483
307.8000,0.901034,206.741,0.12612
307.7000,1.32656,206.76,0.126397
307.6000,0.873635,205.86,0.113422
307.5000,1.36277,206.031,0.115893
307.4000,-0.265392,206.182,0.118069
307.3000,1.04546,205.893,0.113897
307.2000,2.5735,205.66,0.110523
307.1000,1.72254,205.921,0.114306
307.0000,1.30261,205.717,0.111359
306.9000,2.27997,205.814,0.112751
306.8000,2.85636,205.952,0.114748
306.7000,1.34379,206.155,0.117676
306.6000,1.07474,206.015,0.115664
306.5000,3.40702,206.371,0.120798
306.4000,1.98999,206.373,0.12083
306.3000,0.658977,206.682,0.125271
306.2000,1.28363,206.483,0.122415
306.1000,0.928744,206.132,0.117349
306.0000,0.840079,206.114,0.117087
305.9000,0.713786,206.505,0.122725
305.8000,1.21672,205.748,0.111801
305.7000,0.885335,205.801,0.112571
305.6000,1.13084,205.697,0.111064
305.5000,-0.641766,205.698,0.11108
305.4000,0.390951,206.1,0.116891
305.3000,0.329364,206.142,0.117496
305.2000,1.41704,205.758,0.111949
305.1000,1.66354,205.648,0.11036
305.0000,0.639986,206.998,0.129821
304.9000,0.736672,206.448,0.121909
304.8000,-0.0859115,205.609,0.109786
304.7000,0.811472,206.235,0.118837
304.6000,1.50218,206.741,0.12612
304.5000,-0.526683,206.243,0.118951
304.4000,1.63982,205.86,0.113422
304.3000,1.22914,206.363,0.120684
304.2000,0.63753,205.491,0.108082
304.1000,-1.55215,205.196,0.103817
304.0000,2.78208,205.952,0.114748
303.9000,0.882841,206.131,0.117333
303.8000,-0.720766,206.124,0.117234
303.7000,1.23586,206.251,0.119066
303.6000,2.6798,205.101,0.102438
303.5000,1.0259,206.06,0.116302
303.4000,-0.0535132,205.996,0.115386
303.3000,1.57572,205.68,0.110818
303.2000,1.90255,205.878,0.113684
303.1000,0.549064,206.044,0.116073
303.0000,1.71945,205.463,0.107672
302.9000,2.47189,205.802,0.112587
302.8000,0.659272,206.049,0.116155
302.7000,1.48605,206.4,0.121206
302.6000,1.75396,206.21,0.118477
302.5000,3.44641,205.75,0.111834
302.4000,1.80991,206.08,0.116597
302.3000,0.921287,205.741,0.111703
302.2000,0.183232,206.162,0.117774
302.1000,0.539046,204.966,0.100483
302.0000,-0.0919654,207.019,0.13013
301.9000,1.86256,205.438,0.107311
301.8000,1.77422,205.502,0.108246
301.7000,0.337068,205.909,0.114126
301.6000,3.19263,205.526,0.10859
301.5000,0.708573,205.87,0.11357
301.4000,0.447495,205.879,0.1137
301.3000,1.69489,205.216,0.104096
301.2000,0.715843,205.96,0.114862
301.1000,0.198896,205.313,0.105507
301.0000,2.62409,205.579,0.10936
300.9000,1.61148,204.87,0.0990863
300.8000,2.13947,205.429,0.10718
300.7000,0.983658,205.761,0.111981
300.6000,0.945679,206.341,0.120357
300.5000,1.49818,205.892,0.11388
300.4000,0.705043,205.482,0.10795
300.3000,0.791273,205.591,0.109524
300.2000,1.68715,206.117,0.117136
300.1000,0.881805,205.947,0.114682
300.0000,2.06495,205.83,0.11298
299.9000,1.76454,205.64,0.110245
299.8000,0.978342,205.366,0.106278
299.7000,1.00585,205.476,0.107868
299.6000,1.60852,205.57,0.109229
299.5000,1.72382,205.713,0.111294
299.4000,1.70827,205.655,0.110458
299.3000,1.98385,205.063,0.101879
299.2000,0.000337419,204.97,0.100532
299.1000,1.24748,205.662,0.110556
299.0000,-0.354732,205.728,0.111506
298.9000,1.98704,205.974,0.115059
298.8000,1.5066,205.432,0.107229
298.7000,-0.015944,205.613,0.109852
298.6000,-0.129038,205.747,0.111785
298.5000,0.373939,206.651,0.124831
298.4000,0.415068,205.711,0.111261
298.3000,1.39428,204.535,0.0942182
298.2000,0.159136,205.949,0.114699
298.1000,2.29876,205.227,0.10426
298.0000,0.751211,205.49,0.108065
297.9000,1.03063,205.325,0.105687
297.8000,1.71468,205.331,0.105769
297.7000,1.81813,205.035,0.101485
297.6000,2.77208,204.905,0.0995957
297.5000,-0.0590568,205.893,0.113897
297.4000,0.809606,205.723,0.111441
297.3000,-0.057445,206.039,0.116008
297.2000,1.49817,205.27,0.104883
297.1000,0.903552,204.795,0.0980014
297.0000,1.74658,205.092,0.102306
296.9000,0.796029,205.435,0.107278
296.8000,2.02808,205.561,0.109098
296.7000,0.870186,205.728,0.111506
296.6000,1.76266,205.119,0.1027
296.5000,1.30036,205.452,0.107524
296.4000,1.4758,205.564,0.109147
296.3000,0.63639,205.742,0.111719
296.2000,2.40426,205.355,0.106114
296.1000,0.71089,205.026,0.101354
296.0000,1.41734,205.042,0.101583
295.9000,1.14931,205.319,0.105589
295.8000,2.21549,205.22,0.104161
295.7000,1.69742,205.757,0.111932
295.6000,-0.0365275,204.924,0.0998752
295.5000,1.53752,204.658,0.0960117
295.4000,-0.497161,205.077,0.102093
295.3000,1.64721,205.351,0.106065
295.2000,2.22736,205.271,0.1049
295.1000,2.11664,205.29,0.105179
295.0000,1.07627,205.017,0.101222
294.9000,0.413181,204.964,0.10045
294.8000,1.93186,204.972,0.100565
294.7000,0.208151,204.956,0.100335
294.6000,-0.323699,205.587,0.109475
294.5000,1.51848,205.078,0.102109
294.4000,0.629622,204.641,0.0957649
294.3000,1.79183,204.782,0.097804
294.2000,0.474038,204.768,0.0976068
294.1000,-0.931537,205.204,0.103931
294.0000,0.350714,205.466,0.107721
293.9000,0.209222,205.507,0.108311
293.8000,1.16569,204.795,0.0980014
293.7000,1.3142,205.033,0.101452
293.6000,2.33481,205.384,0.10654
293.5000,1.23196,205.218,0.104128
293.4000,0.217178,205.17,0.103439
293.3000,0.805227,204.8,0.0980673
293.2000,1.35186,205.018,0.101239
293.1000,0.337296,203.264,0.0757222
293.0000,2.58479,206.128,0.117284
292.9000,0.574781,206.427,0.121598
292.8000,1.7,205.906,0.114077
292.7000,0.153041,205.742,0.111719
292.6000,0.840582,204.205,0.089426
292.5000,-0.116926,205.347,0.105999
292.4000,1.60003,204.367,0.0917815
292.3000,0.0910434,204.506,0.0938067
292.2000,0.521608,205.408,0.106885
292.1000,1.01619,203.447,0.0783844
292.0000,1.37376,205.126,0.102799
291.9000,1.48129,204.251,0.0901015
291.8000,0.867067,204.82,0.098363
291.7000,0.458924,204.886,0.0993164
291.6000,-0.0258044,204.2,0.08936
291.5000,0.452221,203.889,0.0848252
291.4000,1.94995,205.066,0.101929
291.3000,1.01113,204.371,0.0918475
291.2000,0.111084,205.665,0.110605
291.1000,0.242536,203.789,0.0833728
291.0000,2.10748,205.212,0.104046
290.9000,1.24479,204.529,0.0941359
290.8000,0.968743,205.235,0.104374
290.7000,1.28423,205.332,0.105786
290.6000,1.51782,204.936,0.10004
290.5000,1.04549,204.387,0.0920781
290.4000,0.710111,205.102,0.102454
290.3000,0.394058,204.224,0.089706
290.2000,0.708767,204.944,0.100154
290.1000,1.11939,204.574,0.0947942
290.0000,1.50058,204.55,0.0944487
289.9000,1.67706,204.58,0.0948764
289.8000,1.16964,205.22,0.104161
289.7000,1.15488,204.612,0.0953369
289.6000,0.700013,204.946,0.100187
289.5000,1.48764,206.141,0.11748
289.4000,-0.215684,205.449,0.107475
289.3000,1.55809,204.64,0.0957482
289.2000,0.655478,204.6,0.0951724
289.1000,0.980506,204.704,0.096686
289.0000,1.47454,205.521,0.108524
288.9000,1.25006,204.848,0.0987739
288.8000,1.62565,203.843,0.0841652
288.7000,0.533128,203.66,0.0814904
288.6000,-0.616508,205.342,0.105933
288.5000,0.743724,205.021,0.101272
288.4000,2.90931,205.212,0.104046
288.3000,0.78681,204.206,0.0894424
288.2000,2.28513,204.131,0.0883546
288.1000,1.59372,204.215,0.089574
288.0000,0.206861,205.257,0.104703
287.9000,-0.122294,205.379,0.106458
287.8000,1.59315,204.826,0.0984452
287.7000,0.180267,205.574,0.109278
287.6000,1.18449,205.223,0.10421
287.5000,-0.11434,203.732,0.0825474
287.4000,1.38458,204.574,0.0947942
287.3000,-0.878281,204.647,0.0958472
287.2000,0.749018,204.998,0.100943
287.1000,2.12427,204.694,0.0965379
287.0000,-0.789093,205.097,0.102372
286.9000,1.11639,204.644,0.0958141
286.8000,2.14845,206.177,0.118003
286.7000,-1.66393,204.992,0.100861
286.6000,0.979236,205.005,0.101042
286.5000,1.16945,205.28,0.105031
286.4000,1.28087,204.951,0.100269
286.3000,0.871959,204.669,0.0961762
286.2000,1.25691,205.05,0.101699
286.1000,2.40356,205.378,0.106442
286.0000,1.84933,204.709,0.0967518
285.9000,1.99977,204.205,0.089426
285.8000,1.36862,205.501,0.108229
285.7000,0.909656,205.501,0.108229
285.6000,1.14965,204.581,0.0948928
285.5000,2.02912,205.016,0.101206
285.4000,1.86783,204.731,0.097064
285.3000,0.248823,204.289,0.090645
285.2000,0.543823,204.937,0.100056
285.1000,0.0776571,205.349,0.106032
285.0000,1.41744,205.545,0.108868
284.9000,1.52672,205.4,0.10677
284.8000,0.417327,204.976,0.100631
284.7000,2.55162,204.522,0.0940372
284.6000,1.65904,203.567,0.080136
284.5000,1.33989,205.484,0.107983
284.4000,2.38368,205.355,0.106114
284.3000,2.55879,204.847,0.0987575
284.2000,0.777031,205.126,0.102799
284.1000,1.31516,204.76,0.0974918
284.0000,1.78099,204.692,0.0965051
283.9000,0.791121,205.212,0.104046
283.8000,1.4702,204.326,0.0911887
283.7000,2.134,204.905,0.0995957
283.6000,-0.356856,204.731,0.097064
283.5000,1.75068,204.477,0.0933788
283.4000,1.62012,204.688,0.0964393
283.3000,0.976104,204.422,0.0925885
283.2000,1.87728,204.342,0.0914193
283.1000,1.80785,204.298,0.0907769
283.0000,1.25261,204.689,0.0964556
282.9000,-0.227254,205.302,0.105343
282.8000,0.287667,204.826,0.0984452
282.7000,0.996185,204.785,0.0978534
282.6000,1.34735,204.397,0.0922264
282.5000,1.23604,205.385,0.106557
282.4000,2.07196,204.558,0.0945637
282.3000,2.73609,205.588,0.109491
282.2000,1.78092,204.837,0.0986095
282.1000,1.20385,204.905,0.0995957
282.0000,0.94807,204.247,0.0900355
281.9000,0.307156,204.725,0.0969818
281.8000,1.08852,204.702,0.0966529
281.7000,0.649575,205.118,0.102684
281.6000,0.0461977,205.313,0.105507
281.5000,2.426,205.044,0.101616
281.4000,1.33637,204.591,0.095041
281.3000,-0.527953,204.515,0.0939382
281.2000,-0.153338,205.568,0.109196
281.1000,1.42333,204.052,0.0872006
281.0000,1.73961,204.016,0.0866727
280.9000,0.439188,204.605,0.0952383
280.8000,1.84217,205.393,0.106671
280.7000,1.64067,204.641,0.0957649
280.6000,1.03808,205.033,0.101452
280.5000,1.55082,204.959,0.100384
280.4000,1.3083,204.677,0.0962912
280.3000,1.28214,203.319,0.0765159
280.2000,2.02472,205.041,0.101567
280.1000,-0.0930371,205.58,0.109376
280.0000,1.6096,205.561,0.109098
279.9000,0.84174,204.513,0.0939054
279.8000,1.27858,205.002,0.101009
279.7000,-0.859669,206.047,0.116122
279.6000,1.06142,205.004,0.101025
279.5000,0.624075,205.715,0.111326
279.4000,-0.101891,204.497,0.0936749
279.3000,0.520454,205.4,0.10677
279.2000,0.848145,205.721,0.111408
279.1000,1.11018,204.95,0.100253
279.0000,1.58733,204.609,0.0953042
278.9000,0.472031,204.936,0.10004
278.8000,0.427781,204.453,0.0930329
278.7000,0.552362,204.335,0.0913206
278.6000,-0.119241,204.989,0.100812
278.5000,1.16524,204.929,0.0999407
278.4000,0.30699,204.409,0.092391
278.3000,0.575733,204.744,0.0972615
278.2000,0.633762,204.293,0.0907109
278.1000,0.931739,205.299,0.10531
278.0000,1.24293,206.252,0.119082
277.9000,1.5013,205.474,0.107836
277.8000,1.44675,204.905,0.0995957
277.7000,1.79992,203.406,0.0777893
277.6000,2.68358,205.55,0.108934
277.5000,0.997532,205.48,0.107918
277.4000,1.68972,205.053,0.101748
277.3000,0.722633,205.019,0.101255
277.2000,1.26894,204.719,0.0968996
277.1000,2.2738,204.737,0.0971629
277.0000,-0.760855,205.136,0.102946
276.9000,1.63133,205.273,0.104932
276.8000,0.665296,204.365,0.0917487
276.7000,1.51122,204.507,0.0938231
276.6000,0.855219,205.12,0.102717
276.5000,-0.509108,205.683,0.110868
276.4000,1.30138,205.202,0.103899
276.3000,0.0464682,204.173,0.0889644
276.2000,1.3468,204.684,0.0963898
276.1000,0.802917,205.186,0.103669
276.0000,0.60496,204.52,0.0940041
275.9000,0.760477,204.457,0.0930988
275.8000,0.71344,204.635,0.0956827
275.7000,2.00862,206.355,0.120569
275.6000,1.20706,205.473,0.107819
275.5000,1.62464,205.202,0.103899
275.4000,1.03488,206.353,0.120536
275.3000,0.504892,204.936,0.10004
275.2000,0.894445,205.002,0.101009
275.1000,0.475186,204.951,0.100269
275.0000,1.4237,206,0.115435
274.9000,-1.05666,204.596,0.0951068
274.8000,0.743838,205.673,0.11072
274.7000,1.5099,205.242,0.104473
274.6000,0.899377,204.698,0.0965874
274.5000,0.100016,205.211,0.10403
274.4000,0.957533,205.22,0.104161
274.3000,2.05444,205.751,0.111851
274.2000,2.0872,204.94,0.100105
274.1000,1.31886,205.882,0.113733
274.0000,0.397,205.192,0.103751
273.9000,1.56344,206.02,0.11573
273.8000,0.712137,204.695,0.0965543
273.7000,0.585929,205.353,0.106081
273.6000,1.24406,204.668,0.0961595
273.5000,0.286945,205.507,0.108311
273.4000,0.33773,205.039,0.101534
273.3000,1.39286,204.8,0.0980673
273.2000,1.03991,204.668,0.0961595
273.1000,1.16386,205.562,0.109114
273.0000,1.05759,204.985,0.100762
272.9000,-0.0273784,205.601,0.109672
272.8000,0.770647,205.875,0.113635
272.7000,0.433382,204.997,0.100926
272.6000,1.39402,206.395,0.121141
272.5000,1.37143,205.359,0.106179
272.4000,1.52088,205.768,0.112096
272.3000,2.94756,204.896,0.0994644
272.2000,1.05208,205.535,0.108721
272.1000,2.5983,205.553,0.108983
272.0000,0.373616,205.604,0.109721
271.9000,3.39133,205.569,0.109213
271.8000,1.21053,205.671,0.110687
271.7000,0.691153,205.502,0.108246
271.6000,-0.120136,205.43,0.107196
271.5000,0.20228,205.834,0.113046
271.4000,1.07946,205.668,0.110638
271.3000,0.741062,205.72,0.111392
271.2000,0.257359,205.567,0.10918
271.1000,2.58175,205.619,0.109934
271.0000,0.283732,206.074,0.116515
270.9000,0.24878,205.204,0.103931
270.8000,-0.203204,204.871,0.0991026
270.7000,0.763746,205.201,0.103882
270.6000,0.838507,205.237,0.104407
270.5000,1.23508,206.664,0.12501
270.4000,1.38301,206.227,0.118722
270.3000,0.356362,204.825,0.0984288
270.2000,0.337749,205.618,0.109917
270.1000,0.603308,205.638,0.110212
270.0000,-0.125355,205.631,0.110114
269.9000,0.91627,205.603,0.109704
269.8000,2.14112,205.884,0.113766
269.7000,1.05339,204.921,0.0998258
269.6000,0.526172,205.529,0.108639
269.5000,0.167011,206.614,0.124292
269.4000,-0.255306,206.082,0.116629
269.3000,1.28319,205.682,0.110851
269.2000,2.18681,206.223,0.118657
269.1000,1.22202,206.126,0.117267
269.0000,0.728291,206.064,0.116368
268.9000,-0.584585,205.877,0.113668
268.8000,0.520574,207.02,0.130147
268.7000,0.660547,205.271,0.1049
268.6000,0.366178,206.902,0.128436
268.5000,0.0677437,206.439,0.121778
268.4000,0.26523,206.011,0.115599
268.3000,2.18765,205.336,0.105835
268.2000,-0.468617,204.697,0.0965706
268.1000,0.902084,205.399,0.106753
268.0000,1.44057,206.653,0.124863
267.9000,-0.0375186,206.247,0.119
267.8000,1.83616,206.815,0.127196
267.7000,0.298077,205.577,0.109327
267.6000,1.42293,205.938,0.114552
267.5000,1.17763,206.702,0.125565
267.4000,-0.591543,205.727,0.11149
267.3000,1.64434,207.186,0.132525
267.2000,1.08392,206.429,0.121631
267.1000,1.15013,206.293,0.11967
267.0000,1.07383,206.285,0.119556
266.9000,1.25563,206.556,0.12346
266.8000,1.78052,206.512,0.122823
266.7000,1.91079,206.848,0.127669
266.6000,0.0851727,205.866,0.113504
266.5000,1.3251,206.623,0.124423
266.4000,1.63498,206.384,0.120977
266.3000,1.10671,206.751,0.126266
266.2000,-0.316088,206.542,0.123264
266.1000,-0.729629,206.497,0.122611
266.0000,-1.50115,206.388,0.121043
265.9000,0.67022,206.745,0.126185
265.8000,1.78272,205.502,0.108246
265.7000,0.914419,206.869,0.127963
265.6000,0.625262,206.428,0.121615
265.5000,-0.146177,207.646,0.13913
265.4000,1.77418,207.425,0.135959
265.3000,0.99355,206.597,0.124047
265.2000,1.13315,206.729,0.125956
265.1000,0.861259,206.919,0.12868
265.0000,0.440047,207.313,0.134348
264.9000,-0.111212,207.117,0.131532
264.8000,0.890601,207.377,0.135276
264.7000,0.795827,207.112,0.131466
264.6000,1.56925,207.462,0.136496
264.5000,1.81754,207.402,0.135634
264.4000,0.920387,206.852,0.127718
264.3000,1.47593,207.032,0.13031
264.2000,1.5064,207.273,0.133779
264.1000,1.17921,206.645,0.124749
264.0000,-0.123788,207.271,0.133746
263.9000,0.883672,207.442,0.136203
263.8000,0.311429,207.132,0.131743
263.7000,1.50684,207.456,0.136398
263.6000,0.245033,206.627,0.124488
263.5000,1.70627,207.255,0.133518
263.4000,1.35225,207.362,0.135048
263.3000,0.325933,208.867,0.15661
263.2000,0.294067,207.332,0.134625
263.1000,0.163357,207.466,0.136545
263.0000,0.765584,207.769,0.140902
262.9000,1.58229,207.317,0.134413
262.8000,-0.291963,208.441,0.150523
262.7000,2.41095,207.541,0.137618
262.6000,-0.242698,207.602,0.138496
262.5000,-0.14246,207.338,0.134707
262.4000,0.779828,207.43,0.136024
262.3000,1.99815,207.127,0.131678
262.2000,0.996658,207.971,0.143792
262.1000,1.55087,208.16,0.146502
262.0000,1.74579,207.396,0.135536
261.9000,0.997454,207.518,0.137293
261.8000,1.3511,207.616,0.138708
261.7000,1.41578,207.058,0.130684
261.6000,-1.27251,207.588,0.138301
261.5000,0.680644,208.263,0.147978
261.4000,1.13096,208.117,0.145886
261.3000,0.926945,208.629,0.153212
261.2000,0.229627,208.012,0.144377
261.1000,1.55255,208.045,0.144847
261.0000,1.39577,208.432,0.150393
260.9000,0.441269,207.75,0.140625
260.8000,2.45954,208.019,0.144474
260.7000,-0.190386,208.146,0.146291
260.6000,0.0178159,207.904,0.142835
260.5000,0.804764,208.101,0.145659
260.4000,0.0928433,208.271,0.148092
260.3000,0.158967,208.217,0.147313
260.2000,2.4185,208.662,0.153681
260.1000,-0.49882,208.363,0.149405
260.0000,1.32373,207.689,0.139748
259.9000,0.89186,208.305,0.148578
259.8000,1.10478,208.53,0.151787
259.7000,-0.871656,209.215,0.161573
259.6000,0.403213,208.718,0.154474
259.5000,0.252171,208.484,0.151139
259.4000,1.38655,208.463,0.150831
259.3000,1.86645,208.603,0.152839
259.2000,2.01864,208.484,0.151139
259.1000,1.97269,208.504,0.151414
259.0000,-1.22403,208.893,0.156982
258.9000,1.1525,208.802,0.155672
258.8000,2.02652,208.965,0.158001
258.7000,-0.411264,208.583,0.152548
258.6000,0.700169,208.709,0.154345
258.5000,-0.0244217,208.827,0.156028
258.4000,0.324929,208.789,0.155494
258.3000,1.59176,208.692,0.154102
258.2000,-0.276136,209.062,0.159392
258.1000,1.24298,208.959,0.15792
258.0000,1.05047,208.842,0.156254
257.9000,1.30116,208.746,0.154879
257.8000,-0.771785,208.752,0.15496
257.7000,0.408123,209.199,0.161347
257.6000,1.60697,209.288,0.162607
257.5000,1.05115,209.282,0.162526
257.4000,2.12829,209.25,0.162074
257.3000,1.61798,209.194,0.161266
257.2000,0.87458,209.28,0.162494
257.1000,-0.123257,208.99,0.158357
257.0000,0.123177,209.109,0.160054
256.9000,-0.118726,209.637,0.167577
256.8000,0.241629,209.429,0.164625
256.7000,0.729177,210.179,0.175294
256.6000,1.59585,208.81,0.155785
256.5000,0.0847246,209.747,0.169141
256.4000,0.550801,209.296,0.16272
256.3000,0.386824,209.162,0.160814
256.2000,2.37267,209.153,0.160684
256.1000,0.600372,209.9,0.171317
256.0000,0.924571,209.824,0.170237
255.9000,0.478358,209.619,0.167319
255.8000,0.0758975,209.633,0.167529
255.7000,0.117096,209.706,0.168561
255.6000,2.04534,209.655,0.167836
255.5000,0.0448295,209.026,0.158874
255.4000,1.91807,210.002,0.172767
255.3000,-0.452692,209.853,0.170657
255.2000,1.51274,209.224,0.161702
255.1000,0.707056,209.906,0.171414
255.0000,-0.0128836,209.976,0.172396
254.9000,0.205642,209.146,0.160588
254.8000,-0.361541,209.245,0.161993
254.7000,1.16161,210.541,0.180424
254.6000,1.8472,208.68,0.15394
254.5000,-0.0918552,211.865,0.199162
254.4000,1.5757,208.609,0.15292
254.3000,-0.559474,209.73,0.1689
254.2000,0.427754,210.66,0.182111
254.1000,0.535178,210.085,0.173958
254.0000,0.931558,210.377,0.178093
253.9000,0.771489,209.77,0.16948
253.8000,-0.00879432,210.615,0.181469
253.7000,0.86475,210.338,0.177546
253.6000,0.703271,210.269,0.176565
253.5000,1.58437,209.333,0.163253
253.4000,1.77017,210.275,0.176646
253.3000,2.22162,210.957,0.186317
253.2000,2.56256,210.351,0.177723
253.1000,1.88018,211.37,0.192169
253.0000,-0.562413,210.33,0.177434
252.9000,2.82732,211.75,0.197531
252.8000,2.30898,210.404,0.178479
252.7000,0.0447939,210.579,0.180971
252.6000,1.18291,211.451,0.193306
252.5000,1.23039,211.877,0.199322
252.4000,1.96188,211.52,0.194283
252.3000,0.128725,210.966,0.186446
252.2000,0.181265,210.772,0.183701
252.1000,0.497251,212.009,0.201192
252.0000,2.04308,210.83,0.18452
251.9000,3.12027,210.806,0.184183
251.8000,0.536499,210.94,0.186076
251.7000,1.01224,210.499,0.17983
251.6000,0.960396,211.454,0.193354
251.5000,1.35484,210.761,0.183541
251.4000,-0.237712,211.204,0.189813
251.3000,1.1672,211.767,0.197771
251.2000,0.329654,211.289,0.191015
251.1000,1.90878,211.388,0.192425
251.0000,-0.750498,212.069,0.202039
250.9000,2.17392,211.594,0.195323
250.8000,2.7132,212.472,0.207705
250.7000,0.587978,211.787,0.198059
250.6000,1.06531,210.736,0.183187
250.5000,1.42418,211.921,0.199945
250.4000,0.623681,210.944,0.186141
250.3000,1.24987,211.407,0.192681
250.2000,0.610585,212.494,0.208024
250.1000,-0.611754,211.953,0.200393
250.0000,1.21287,212.118,0.202725
249.9000,0.60721,212.892,0.213618
249.8000,1.00274,211.402,0.192617
249.7000,1.4765,211.561,0.194859
249.6000,0.970655,211.22,0.190038
249.5000,0.291223,212.821,0.212615
249.4000,-0.376139,211.728,0.197227
249.3000,0.684588,211.8,0.198235
249.2000,1.32411,211.603,0.195451
249.1000,2.04862,211.723,0.197147
249.0000,-0.437999,212.309,0.205408
248.9000,2.80559,212.361,0.206142
248.8000,0.852496,213.008,0.215242
248.7000,0.54923,211.978,0.200745
248.6000,0.582744,211.615,0.195627
248.5000,0.352597,213.593,0.223462
248.4000,0.752058,213.068,0.216085
248.3000,-0.0363332,211.276,0.190839
248.2000,0.404956,211.49,0.193866
248.1000,1.91794,211.718,0.197083
248.0000,1.21922,212.183,0.203636
247.9000,-1.63137,213.665,0.224462
247.8000,1.26968,211.73,0.197243
247.7000,1.83075,212.339,0.205839
247.6000,0.581165,211.892,0.19953
247.5000,0.522558,212.338,0.205823
247.4000,0.390403,212.663,0.2104
247.3000,1.56953,212.156,0.203253
247.2000,0.958019,211.476,0.193658
247.1000,0.0315927,212.554,0.208869
247.0000,1.6824,212.993,0.215035
246.9000,0.586605,212.985,0.214923
246.8000,1.5763,213.09,0.216404
246.7000,-0.468441,212.386,0.206493
246.6000,0.891889,212.597,0.209475
246.5000,-0.100584,212.814,0.212519
246.4000,0.614378,212.357,0.206094
246.3000,0.96859,212.929,0.214144
246.2000,-0.983021,213.625,0.223906
246.1000,0.291699,213.312,0.219521
246.0000,-0.0244199,212.67,0.210496
245.9000,2.20473,213.006,0.215226
245.8000,0.202544,213.711,0.225113
245.7000,0.787427,212.205,0.203955
245.6000,0.940508,212.75,0.211627
245.5000,2.29063,213.546,0.222794
245.4000,0.207739,213.188,0.217772
245.3000,0.688916,214.051,0.229872
245.2000,0.245354,213.154,0.217295
245.1000,1.98436,213.508,0.22227
245.0000,-0.455785,213.861,0.227208
244.9000,0.242793,212.891,0.213602
244.8000,1.18389,212.267,0.204817
244.7000,-0.203111,213.571,0.223144
244.6000,1.20638,213.676,0.224621
244.5000,0.0225441,214.089,0.230395
244.4000,1.78814,213.256,0.218726
244.3000,0.390022,213.53,0.222572
244.2000,1.62412,213.096,0.216483
244.1000,0.379612,213.568,0.223112
244.0000,0.633563,213.591,0.22343
243.9000,2.2167,213.687,0.224779
243.8000,-0.243155,214.1,0.230554
243.7000,1.09411,214.319,0.233611
243.6000,1.51014,213.855,0.227128
243.5000,1.92037,213.861,0.227208
243.4000,0.660942,213.406,0.22084
243.3000,0.23405,213.83,0.226779
243.2000,0.0280617,215.041,0.243701
243.1000,2.75821,214.467,0.235685
243.0000,0.385862,213.599,0.223541
242.9000,0.686198,214.237,0.232471
242.8000,3.00388,214.962,0.242595
242.7000,0.877302,214.506,0.236224
242.6000,0.0653149,214.64,0.238106
242.5000,1.42093,214.703,0.238976
242.4000,-0.542809,214.416,0.234973
242.3000,-0.0163512,213.435,0.221238
242.2000,2.53723,214.636,0.238043
242.1000,1.02286,214.979,0.242832
242.0000,0.0184317,214.455,0.235511
241.9000,1.84485,213.336,0.219855
241.8000,0.317187,215.19,0.24577
241.7000,1.58763,214.41,0.234894
241.6000,1.50041,213.658,0.224367
241.5000,-0.273708,215.518,0.250344
241.4000,1.36841,216.398,0.262557
241.3000,0.679527,214.065,0.230062
241.2000,1.19556,216.407,0.262682
241.1000,1.6814,216.703,0.26678
241.0000,2.82123,215.182,0.245659
240.9000,0.960464,214.658,0.238359
240.8000,1.2741,215.853,0.254992
240.7000,-1.62655,215.798,0.254236
240.6000,0.423008,215.78,0.253984
240.5000,0.0951649,214.994,0.243038
240.4000,1.78303,215.627,0.251857
240.3000,2.12583,215.613,0.251652
240.2000,2.13475,216.451,0.263295
240.1000,0.776956,216.81,0.268271
240.0000,0.91581,216.006,0.257116
239.9000,-0.354614,216.643,0.265949
239.8000,1.49522,217.116,0.272504
239.7000,1.43206,215.326,0.247663
239.6000,-0.414542,216.825,0.268475
239.5000,0.567482,215.9,0.255653
239.4000,-0.09552,216.65,0.266058
239.3000,1.00678,216.22,0.260089
239.2000,2.29489,215.274,0.246937
239.1000,0.219829,217.133,0.272739
239.0000,1.17559,215.828,0.254645
238.9000,-0.92225,216.76,0.267581
238.8000,1.71605,217.43,0.276841
238.7000,-0.208866,216.015,0.257242
238.6000,0.318119,216.609,0.265478
238.5000,2.74704,216.297,0.261158
238.4000,0.227964,217.221,0.273961
238.3000,-1.19367,217.244,0.274274
238.2000,-0.926346,217.734,0.281033
238.1000,0.0181645,218.028,0.285095
238.0000,0.623775,217.234,0.274133
237.9000,-0.680442,217.58,0.278907
237.8000,2.04377,217.831,0.282377
237.7000,0.453474,218.322,0.289137
237.6000,1.12457,217.371,0.276028
237.5000,1.30551,217.204,0.273726
237.4000,0.893276,218.001,0.284721
237.3000,2.72947,217.777,0.281627
237.2000,0.571976,218.346,0.289465
237.1000,1.11964,217.687,0.280392
237.0000,1.79462,218.021,0.285001
236.9000,0.345747,218.619,0.293221
236.8000,3.29641,217.711,0.280721
236.7000,0.607765,218.215,0.287671
236.6000,0.618396,218.436,0.290712
236.5000,1.37815,218.974,0.29811
236.4000,1.39039,218.302,0.288872
236.3000,1.56517,218.915,0.297301
236.2000,0.554495,218.498,0.29157
236.1000,0.242968,219.281,0.302324
236.0000,-0.419403,218.894,0.297005
235.9000,0.822027,219.371,0.303552
235.8000,2.18662,219.17,0.300801
235.7000,2.56114,219.315,0.30279
235.6000,0.768835,218.437,0.290728
235.5000,0.823897,218.931,0.297519
235.4000,-0.490841,219.429,0.304344
235.3000,0.393971,219.381,0.303691
235.2000,0.923957,220.659,0.321173
235.1000,1.86643,219.561,0.306161
235.0000,0.897057,219.372,0.303567
234.9000,-0.424666,219.271,0.302184
234.8000,1.27938,219.859,0.310242
234.7000,2.17192,219.848,0.310086
234.6000,3.20026,219.997,0.312133
234.5000,1.17311,220.443,0.318219
234.4000,-0.11168,220.268,0.315835
234.3000,0.0873057,220.228,0.315278
234.2000,-0.0307293,220.225,0.315247
234.1000,1.6799,220.303,0.316315
234.0000,2.02708,220.171,0.314504
233.9000,1.68295,220.293,0.316176
233.8000,1.942,220.591,0.320245
233.7000,0.863752,221.502,0.332658
233.6000,2.17278,221.142,0.327754
233.5000,0.146331,220.845,0.323708
233.4000,1.62165,221.68,0.335077
233.3000,-0.53747,220.78,0.322827
233.2000,0.693155,221.01,0.325963
233.1000,0.443896,220.786,0.322904
233.0000,0.929961,220.904,0.324511
232.9000,0.0326028,221.2,0.32854
232.8000,2.65773,221.492,0.332519
232.7000,1.3091,221.494,0.33255
232.6000,1.79557,221.316,0.33013
232.5000,-1.32103,221.272,0.329528
232.4000,0.754261,222.068,0.340341
232.3000,-1.10878,221.818,0.336956
232.2000,1.58452,222.014,0.339618
232.1000,-0.548659,221.594,0.333906
232.0000,-0.199385,221.977,0.33911
231.9000,-1.43096,222.065,0.34031
231.8000,0.827538,222.048,0.340079
231.7000,1.66477,222.038,0.339941
231.6000,-2.21528,223.2,0.355673
231.5000,0.773677,222.398,0.344829
231.4000,1.91153,222.713,0.349097
231.3000,0.400772,222.435,0.34532
231.2000,2.95906,222.437,0.345351
231.1000,2.21008,223.453,0.359102
231.0000,2.11203,223.034,0.353436
230.9000,0.303282,222.903,0.351658
230.8000,-0.466351,222.726,0.349266
230.7000,1.34597,222.823,0.350585
230.6000,0.227694,223.342,0.357603
230.5000,2.63446,222.781,0.350017
230.4000,1.34154,222.993,0.352885
230.3000,1.54099,223.147,0.354968
230.2000,1.35967,223.549,0.360387
230.1000,3.38447,223.084,0.354111
230.0000,1.20932,223.478,0.359439
229.9000,0.403311,223.887,0.364958
229.8000,0.559559,224.002,0.366501
229.7000,2.05664,222.915,0.351827
229.6000,1.53608,223.622,0.361381
229.5000,2.87443,222.846,0.350892
229.4000,0.571951,223.372,0.358
229.3000,-0.535046,224.401,0.371872
229.2000,-1.00289,224.917,0.378818
229.1000,2.73905,223.958,0.365905
229.0000,-0.765152,223.051,0.353666
228.9000,0.671648,224.054,0.367203
228.8000,2.53562,224.36,0.371323
228.7000,3.90875,226.261,0.396824
228.6000,1.98398,223.538,0.36025
228.5000,-0.0712322,224.841,0.377798
228.4000,0.037541,225.312,0.384111
228.3000,3.01366,224.858,0.378027
228.2000,1.9503,224.597,0.374509
228.1000,-0.294243,225.672,0.38894
228.0000,1.61695,225.893,0.391899
227.9000,0.778691,225.254,0.383336
227.8000,0.447876,225.454,0.386025
227.7000,2.518,225.63,0.388379
227.6000,0.719993,225.996,0.393278
227.5000,0.0442956,226.819,0.404267
227.4000,-1.52898,226.583,0.401123
227.3000,-1.27595,226.211,0.396157
227.2000,1.18302,227.439,0.41254
227.1000,1.54776,226.102,0.394703
227.0000,0.787621,226.016,0.393551
226.9000,1.12521,226.713,0.402862
226.8000,2.07591,226.5,0.400018
226.7000,1.89984,226.984,0.406473
226.6000,0.508121,228.494,0.426553
226.5000,0.93542,226.915,0.405552
226.4000,2.70481,227.689,0.415857
226.3000,2.20731,227.569,0.414259
226.2000,1.19367,226.845,0.404615
226.1000,0.455141,226.564,0.400865
226.0000,-0.618137,227.247,0.409976
225.9000,1.05305,227.186,0.409161
225.8000,2.16071,227.472,0.412978
225.7000,2.63566,227.367,0.411575
225.6000,0.572331,228.25,0.423307
225.5000,2.06265,227.668,0.415585
225.4000,0.663468,227.796,0.417288
225.3000,0.191572,228.401,0.425321
225.2000,2.05056,229.663,0.442008
225.1000,2.42716,228.426,0.425651
225.0000,2.28793,228.98,0.432992
224.9000,0.871767,228.4,0.425306
224.8000,3.90882,228.681,0.429031
224.7000,0.714097,229.456,0.439285
224.6000,2.78073,229.136,0.435046
224.5000,0.177666,229.295,0.437158
224.4000,-0.84293,229.92,0.445402
224.3000,1.14949,229.564,0.440707
224.2000,0.0373892,228.43,0.425697
224.1000,5.73374,229.795,0.443758
224.0000,-0.0431999,229.182,0.43566
223.9000,0.460796,229.465,0.439404
223.8000,-0.190443,229.64,0.441709
223.7000,0.622045,230.345,0.451003
223.6000,-0.00754279,230.308,0.450525
223.5000,1.29544,230.686,0.455492
223.4000,0.191108,229.812,0.443982
223.3000,1.12668,229.792,0.443713
223.2000,2.55947,230.291,0.450301
223.1000,-0.262283,231.707,0.468896
223.0000,-0.490161,229.668,0.442083
222.9000,2.00786,231.139,0.461448
222.8000,1.33399,230.474,0.452703
222.7000,1.57676,232.06,0.473526
222.6000,1.49655,231.044,0.460198
222.5000,0.355689,230.979,0.45935
222.4000,2.41784,231.037,0.460109
222.3000,3.57766,231.474,0.46585
222.2000,1.3743,231.838,0.470618
222.1000,0.208583,231.82,0.470381
222.0000,1.8149,231.929,0.471805
221.9000,-0.287538,232.814,0.483376
221.8000,2.75941,232.802,0.483228
221.7000,1.57604,232.621,0.48086
221.6000,-0.788821,231.801,0.470128
221.5000,2.51177,232.576,0.480268
221.4000,2.70858,232.105,0.474119
221.3000,2.90282,232.331,0.477069
221.2000,0.828337,232.373,0.477617
221.1000,2.06158,232.837,0.483687
221.0000,-0.0508993,232.641,0.481127
220.9000,-0.290176,233.846,0.496827
220.8000,3.1182,233.521,0.492594
220.7000,0.503383,233.65,0.494276
220.6000,1.64909,233.368,0.490602
220.5000,1.64324,235.288,0.51554
220.4000,-0.762297,232.68,0.48163
220.3000,3.00149,233.561,0.493125
220.2000,2.2054,234.516,0.505526
220.1000,1.65065,234.944,0.51108
220.0000,1.32386,234.522,0.505614
219.9000,1.04441,234.905,0.510581
219.8000,1.69004,233.904,0.497578
219.7000,2.4681,234.563,0.506144
219.6000,0.359842,234.342,0.503276
219.5000,2.51957,234.858,0.509964
219.4000,2.35138,234.103,0.50017
219.3000,3.83576,234.942,0.51105
219.2000,2.56266,234.699,0.507907
219.1000,2.16843,234.545,0.505908
219.0000,1.97489,234.671,0.50754
218.9000,0.594791,234.317,0.502952
218.8000,1.47176,235.179,0.514132
218.7000,2.67164,234.959,0.511271
218.6000,2.00575,235.424,0.517299
218.5000,1.28311,235.144,0.513677
218.4000,2.08858,235.344,0.516258
218.3000,-0.265254,235.586,0.519395
218.2000,0.388152,235.532,0.518691
218.1000,4.00927,235.97,0.524357
218.0000,1.64416,236.158,0.526784
217.9000,3.24672,236.583,0.532262
217.8000,0.732014,235.943,0.524006
217.7000,0.658125,236.402,0.529926
217.6000,0.689997,236.24,0.527837
217.5000,0.75515,236.3,0.528611
217.4000,2.03127,236.299,0.528597
217.3000,0.583434,237.432,0.543179
217.2000,0.814157,237.2,0.540194
217.1000,1.79251,237.455,0.54347
217.0000,4.52433,238.112,0.551901
216.9000,2.52086,237.333,0.541912
216.8000,1.69037,236.047,0.525351
216.7000,-0.125858,237.628,0.545696
216.6000,-0.664809,238.724,0.559733
216.5000,2.16057,237.633,0.545754
216.4000,2.38601,237.694,0.546539
216.3000,4.20018,238.545,0.557443
216.2000,0.447725,237.536,0.544517
216.1000,1.23812,238.067,0.55132
216.0000,1.58359,238.085,0.551552
215.9000,1.02719,237.961,0.549969
215.8000,-0.254418,237.816,0.548109
215.7000,2.80933,237.131,0.539305
215.6000,1.8814,239.184,0.56561
215.5000,3.25145,238.961,0.562759
215.4000,1.3506,238.435,0.556036
215.3000,0.925005,239.195,0.565755
215.2000,-0.504174,238.78,0.560457
215.1000,1.27202,239.144,0.565104
215.0000,-0.817102,240.36,0.580595
214.9000,2.20808,238.887,0.561818
214.8000,2.97502,240.452,0.581762
214.7000,2.67201,238.484,0.55666
214.6000,-0.940589,239.569,0.570525
214.5000,3.01315,239.826,0.573803
214.4000,3.10143,239.933,0.57516
214.3000,1.42634,240.315,0.580019
214.2000,-0.984815,239.442,0.568907
214.1000,0.345023,240.794,0.586109
214.0000,3.58914,240.569,0.583259
213.9000,1.56439,240.607,0.583734
213.8000,1.46277,240.108,0.577395
213.7000,2.44809,240.325,0.580148
213.6000,0.567038,239.515,0.569832
213.5000,1.18984,241.148,0.590609
213.4000,-1.03404,240.398,0.581085
213.3000,4.20896,239.493,0.569557
213.2000,-0.870287,241.344,0.593093
213.1000,0.702361,241.681,0.597355
213.0000,1.20206,242.092,0.602558
212.9000,4.75731,241.383,0.593582
212.8000,1.6358,240.162,0.578073
212.7000,2.86862,240.686,0.584742
212.6000,0.745079,240.702,0.584943
212.5000,0.906817,242.695,0.610169
212.4000,1.75405,242.568,0.608568
212.3000,1.75308,240.967,0.588309
212.2000,0.517604,242.732,0.61064
212.1000,2.40596,243.077,0.614982
212.0000,-3.50931,241.946,0.60071
211.9000,0.850723,241.519,0.595304
211.8000,2.34719,242.785,0.611298
211.7000,0.850136,242.73,0.610612
211.6000,1.85836,243.401,0.619062
211.5000,1.95945,243.834,0.624505
211.4000,0.62836,242.967,0.613598
211.3000,-0.247483,242.953,0.613426
211.2000,0.768414,243.236,0.61698
211.1000,2.62468,243.841,0.62459
211.0000,2.09208,244.551,0.633506
210.9000,0.100102,244.371,0.631247
210.8000,1.34818,243.854,0.624761
210.7000,3.50403,243.906,0.625416
210.6000,1.5341,244.304,0.630408
210.5000,4.42093,244.378,0.631332
210.4000,2.18824,245.01,0.639253
210.3000,2.87787,244.756,0.636075
210.2000,1.61838,244.492,0.632767
210.1000,0.48053,244.781,0.636388
210.0000,2.20742,245.648,0.647228
209.9000,1.92097,244.517,0.63308
209.8000,1.7862,245.796,0.649081
209.7000,3.07854,245.715,0.648063
209.6000,5.5709,245.972,0.651273
209.5000,0.799599,245.539,0.64587
209.4000,1.59134,245.813,0.649293
209.3000,-0.177589,246.012,0.651767
209.2000,3.69436,245.292,0.642782
209.1000,3.56082,247.429,0.669405
209.0000,1.97879,246.714,0.660519
208.9000,0.42658,246.482,0.657628
208.8000,-1.25911,247.422,0.669321
208.7000,1.8713,247.652,0.672175
208.6000,0.651546,247.808,0.6741
208.5000,2.36981,247.72,0.673018
208.4000,-0.633752,247.367,0.668631
208.3000,-0.552226,247.12,0.665563
208.2000,2.06902,248.288,0.680052
208.1000,0.28095,248.464,0.682225
208.0000,0.664071,248.249,0.679575
207.9000,1.40167,248.973,0.688527
207.8000,2.74846,248.606,0.68399
207.7000,1.85317,249.047,0.689436
207.6000,4.6357,249.058,0.689576
207.5000,1.80104,248.89,0.687491
207.4000,1.18281,249.48,0.694777
207.3000,2.13591,249.248,0.691912
207.2000,0.338592,249.585,0.696076
207.1000,1.92958,249.946,0.700514
207.0000,-1.2457,249.854,0.699384
206.9000,-0.404792,250.418,0.706326
206.8000,2.70939,249.992,0.701086
206.7000,1.49035,249.677,0.697207
206.6000,2.53199,250.133,0.702814
206.5000,1.05407,251.395,0.718311
206.4000,1.55955,251.931,0.724871
206.3000,0.669316,250.751,0.710418
206.2000,3.04105,250.945,0.712796
206.1000,1.61266,251.126,0.715019
206.0000,-1.43568,251.786,0.723097
205.9000,1.36992,251.751,0.722667
205.8000,-0.50695,251.996,0.725674
205.7000,3.02319,252.638,0.733508
205.6000,3.61678,252.577,0.732761
205.5000,-0.759648,252.445,0.731157
205.4000,1.63303,253.311,0.74171
205.3000,1.46647,253.766,0.747252
205.2000,2.31235,253.213,0.740524
205.1000,-1.27289,253.929,0.749235
205.0000,3.80969,253.217,0.740565
204.9000,-2.07603,253.843,0.748188
204.8000,0.672254,254.351,0.754352
204.7000,-0.633422,254.467,0.755754
204.6000,2.455,254.079,0.751051
204.5000,0.506567,254.63,0.757733
204.4000,2.86062,254.231,0.752895
204.3000,0.598238,254.503,0.756194
204.2000,0.482372,255.097,0.763387
204.1000,2.84415,255.069,0.763058
204.0000,-0.962852,254.819,0.760026
203.9000,1.41744,255.951,0.773714
203.8000,1.67029,255.069,0.763058
203.7000,5.61445,255.686,0.770512
203.6000,2.01131,255.958,0.773796
203.5000,6.1693,256.268,0.777541
203.4000,0.922575,256.715,0.78292
203.3000,-1.83021,257.098,0.787529
203.2000,0.177513,257.018,0.786575
203.1000,-1.45584,256.966,0.785948
203.0000,2.57259,257.315,0.790144
202.9000,0.106386,257.317,0.790171
202.8000,3.15928,257.757,0.79545
202.7000,1.94306,257.473,0.792036
202.6000,3.04759,258.107,0.799649
202.5000,-0.500824,258.442,0.803667
202.4000,0.378582,259.017,0.81054
202.3000,0.346631,258.08,0.799323
202.2000,2.58175,258.352,0.802582
202.1000,4.50859,259.44,0.815587
202.0000,1.27339,260.226,0.824961
201.9000,0.80701,258.957,0.809822
201.8000,3.75279,260.357,0.826526
201.7000,1.55207,261.166,0.836141
201.6000,1.72294,260.105,0.823518
201.5000,0.492171,261.112,0.835495
201.4000,0.90207,261.645,0.841812
201.3000,-0.00749203,261.37,0.838561
201.2000,0.302111,262.151,0.84781
201.1000,-0.564005,261.315,0.837902
201.0000,0.795057,262.153,0.847837
200.9000,-0.661063,262.154,0.847851
200.8000,1.36865,262.634,0.853518
200.7000,0.475022,262.258,0.849071
200.6000,5.70817,262.65,0.853705
200.5000,-1.03248,263.137,0.859457
200.4000,1.60461,263.971,0.869281
200.3000,2.91537,263.93,0.868801
200.2000,2.08744,263.983,0.869428
200.1000,2.8572,263.916,0.868641
200.0000,3.44292,265.013,0.881526
199.9000,2.43303,264.164,0.87156
199.8000,1.90232,264.436,0.874756
199.7000,2.97219,265.634,0.8888
199.6000,2.47568,265.14,0.883014
199.5000,0.188457,265.077,0.88227
199.4000,1.37506,265.015,0.881552
199.3000,2.35653,266.08,0.894022
199.2000,2.24937,266.229,0.895756
199.1000,4.90045,265.03,0.881725
199.0000,0.943511,266.504,0.898971
198.9000,5.24811,266.585,0.89991
198.8000,1.34435,267.036,0.905169
198.7000,-5.20033,267.19,0.906964
198.6000,0.0559039,267.531,0.910935
198.5000,-1.98148,267.653,0.912358
198.4000,2.10353,267.552,0.911185
198.3000,0.505889,268.172,0.918389
198.2000,5.05513,268.239,0.919165
198.1000,-0.189805,268.412,0.921177
198.0000,-1.65821,268.474,0.921887
197.9000,4.78073,268.784,0.925488
197.8000,2.61609,268.466,0.921795
197.7000,-0.743971,269.031,0.928349
197.6000,1.53494,269.329,0.931799
197.5000,0.576175,270.152,0.941305
197.4000,-0.345665,269.956,0.939042
197.3000,4.63026,269.68,0.935861
197.2000,0.919065,270.963,0.950657
197.1000,-0.923798,270.632,0.946846
197.0000,2.62788,271.864,0.961013
196.9000,1.94405,271.897,0.96139
196.8000,0.470083,271.745,0.959647
196.7000,2.43338,272.079,0.963484
196.6000,4.37234,270.547,0.945866
196.5000,3.38832,272.548,0.968862
196.4000,3.96445,272.828,0.972067
196.3000,0.775842,272.703,0.97064
196.2000,1.97432,273.864,0.983904
196.1000,0.730072,273.741,0.982507
196.0000,1.78266,272.826,0.972041
195.9000,-2.38048,274.049,0.986024
195.8000,-3.67803,273.162,0.975891
195.7000,3.67871,274.734,0.993821
195.6000,1.53117,275.214,0.999285
195.5000,3.50833,274.223,0.988
195.4000,1.27328,275.434,1.00178
195.3000,-0.0290034,275.327,1.00057
195.2000,1.07029,275.878,1.00682
195.1000,-0.706593,276.761,1.01682
195.0000,6.79399,275.888,1.00694
194.9000,-0.922532,276.226,1.01077
194.8000,-1.00329,277.912,1.02982
194.7000,-4.71209,276.7,1.01613
194.6000,2.55656,277.964,1.03041
194.5000,4.5626,276.918,1.0186
194.4000,2.00768,279.079,1.04295
194.3000,4.00638,278.652,1.03815
194.2000,-1.51347,279.444,1.04705
194.1000,-0.4249,279.318,1.04564
194.0000,2.78157,279.78,1.05083
193.9000,1.85048,279.757,1.05056
193.8000,3.34692,280.966,1.06409
193.7000,1.31938,280.506,1.05895
193.6000,3.89639,281.843,1.07387
193.5000,6.63652,281.997,1.07559
193.4000,5.09165,282.143,1.07722
193.3000,1.98269,282.211,1.07797
193.2000,-5.33723,281.65,1.07173
193.1000,6.3388,285,1.1089
193.0000,2.72978,284.295,1.10109
192.9000,1.31736,283.558,1.09294
192.8000,0.873451,285.181,1.11088
192.7000,2.252,285.646,1.11602
192.6000,-2.61377,286.477,1.12516
192.5000,1.8466,286.836,1.12911
192.4000,1.76528,287.975,1.14159
192.3000,2.32313,287.554,1.13699
192.2000,3.99348,288.839,1.15104
192.1000,1.09688,289.807,1.16159
192.0000,2.50755,290.489,1.16901
191.9000,5.07811,290.925,1.17374
191.8000,-3.24365,291.674,1.18186
191.7000,-1.15218,292.156,1.18707
191.6000,0.0532637,292.677,1.19271
191.5000,-0.0511445,293.471,1.20127
191.4000,1.53056,294.107,1.20811
191.3000,2.34303,296.481,1.23356
191.2000,2.80919,295.728,1.22551
191.1000,-0.352204,296.115,1.22965
191.0000,4.49563,298.294,1.25287
190.9000,-1.67352,299.646,1.26723
190.8000,-0.691117,299.539,1.26609
190.7000,-1.46197,300.58,1.2771
190.6000,1.83669,301.048,1.28204
190.5000,5.33717,303.355,1.30629
190.4000,4.37265,304.675,1.3201
190.3000,1.61506,305.213,1.32572
190.2000,7.62259,305.651,1.33028
190.1000,-1.30647,307.968,1.35433
190.0000,0.777408,308.649,1.36137

##### Extended Information
[Comments]
Sample name,BA_EH_JP
Comment
User,HurleyPonticos
Division
Company,Saint Mary's College

[Detailed Information]
Creation date,9/27/2022 4:10 PM

Data array type,Linear data array * 3
Horizontal axis,Wavelength [nm]
Vertical axis(1),CD [mdeg]
Vertical axis(2),HT [V]
Vertical axis(3),Abs
Start,320 nm
End,190 nm
Data interval,0.1 nm
Data points,1301    

[Measurement Information]
Instrument name,J-1500
Model name,J-1500
Serial No.,B051061638

Detector,PM-539
Detector S/N,B051061638
  Lock-in amp.,X mode
  HT volt,Auto

Accessory,PTC-517
Accessory S/N,B026561646
  Temperature,22.08 C
  Control sensor,Holder
  Monitor sensor,Holder

Measurement date,9/27/2022 4:09 PM

CD Overload detect,1290
Photometric mode,CD, HT, Abs
Measure range,320 - 190 nm
Data pitch,0.1 nm
CD scale,20 mdeg/0.05 dOD
FL scale,20 mdeg/0.05 dOD
D.I.T.,8 msec
Bandwidth,2.00 nm
Start mode,Immediately
Scanning mode,Continuous
Scanning speed,100 nm/min
Baseline correction,None
Shutter control,Auto
No. of cycle,1/1
N2 Flowmeter,Manual

Solvent,NaPO4 buffer

