TITLE,BA_EH_JP
DATA TYPE,
ORIGIN,JASCO
OWNER,
DATE,22/09/27
TIME,17:11:44
SPECTROMETER/DATA SYSTEM,
LOCALE,1033
RESOLUTION,
DELTAX,-0.1
XUNITS,NANOMETERS
YUNITS,CD [mdeg]
Y2UNITS,HT [V]
Y3UNITS,ABSORBANCE
FIRSTX,  320.0000
LASTX,  190.0000
NPOINTS,    1301
FIRSTY,     0.17590
MAXY,     7.73905
MINY,    -4.69950
XYDATA
320.0000,0.175899,206.599,0.12408
319.9000,1.18692,206.52,0.122937
319.8000,-0.12382,205.748,0.111801
319.7000,2.36348,206.474,0.122284
319.6000,2.11952,207.411,0.135764
319.5000,1.73607,206.888,0.12824
319.4000,2.20237,207.019,0.13013
319.3000,0.600554,206.324,0.120112
319.2000,-0.885127,206.577,0.12377
319.1000,0.243841,207.088,0.131124
319.0000,0.589608,207.478,0.136724
318.9000,0.015049,206.724,0.125875
318.8000,0.382036,206.926,0.128794
318.7000,-0.0738221,206.375,0.120847
318.6000,1.101,206.542,0.123264
318.5000,1.02627,207.167,0.132248
318.4000,0.617974,207.209,0.132851
318.3000,2.12973,205.374,0.106393
318.2000,1.00785,206.853,0.127734
318.1000,1.64509,206.498,0.122627
318.0000,1.48229,207.738,0.140447
317.9000,0.547001,207.036,0.130375
317.8000,0.708488,206.483,0.122415
317.7000,0.333078,206.112,0.117055
317.6000,-0.701142,205.542,0.108819
317.5000,1.94477,208.186,0.146875
317.4000,0.101346,206.25,0.119049
317.3000,1.5829,206.582,0.123835
317.2000,1.15022,205.768,0.112096
317.1000,2.77245,207.365,0.135097
317.0000,0.700853,206.628,0.124504
316.9000,1.05392,206.168,0.117872
316.8000,0.348497,207.432,0.136057
316.7000,1.94982,206.974,0.129478
316.6000,0.570853,205.203,0.103915
316.5000,1.38066,206.926,0.128794
316.4000,2.94979,206.677,0.125206
316.3000,2.2001,205.896,0.113946
316.2000,0.634573,205.595,0.10959
316.1000,0.651014,207.015,0.130065
316.0000,-0.140343,206.233,0.118804
315.9000,1.23105,206.324,0.120112
315.8000,2.00664,206.209,0.118461
315.7000,0.305876,207.332,0.134625
315.6000,0.897741,206.817,0.127213
315.5000,2.88479,205.533,0.108688
315.4000,1.8103,205.887,0.113815
315.3000,1.9419,205.606,0.109753
315.2000,1.28261,205.932,0.114453
315.1000,2.62853,206.114,0.117087
315.0000,2.22773,205.96,0.114862
314.9000,0.381282,206.861,0.127848
314.8000,1.53728,206.741,0.12612
314.7000,1.9112,205.696,0.111048
314.6000,0.579691,206.319,0.120046
314.5000,2.03169,206.384,0.120977
314.4000,1.09073,206.018,0.115697
314.3000,1.16469,206.078,0.116564
314.2000,2.24068,206.134,0.117382
314.1000,2.28344,206.642,0.1247
314.0000,2.61269,207.628,0.13887
313.9000,0.590945,204.263,0.0902662
313.8000,0.099707,206.404,0.121272
313.7000,0.403918,206.917,0.128663
313.6000,1.34306,205.668,0.110638
313.5000,0.573554,205.974,0.115059
313.4000,2.45322,206.346,0.120438
313.3000,2.84139,206.483,0.122415
313.2000,1.91167,205.603,0.109704
313.1000,2.21622,206.158,0.117725
313.0000,0.455118,205.532,0.108672
312.9000,1.78403,205.449,0.107475
312.8000,-0.224202,206.986,0.129658
312.7000,2.00086,205.961,0.114879
312.6000,2.53419,205.359,0.106179
312.5000,1.2618,205.391,0.106639
312.4000,0.664006,206.332,0.120226
312.3000,0.678111,206.189,0.118167
312.2000,2.48818,206.074,0.116515
312.1000,-0.0320974,206.224,0.118673
312.0000,1.25395,205.494,0.108131
311.9000,1.38095,206.585,0.123884
311.8000,2.98172,205.26,0.104736
311.7000,2.00529,206.38,0.120929
311.6000,0.0605214,205.974,0.115059
311.5000,0.480588,206.177,0.118003
311.4000,0.960925,206.414,0.121419
311.3000,1.466,205.619,0.109934
311.2000,1.00926,206.223,0.118657
311.1000,-0.177151,205.649,0.110376
311.0000,-0.240005,206.412,0.121386
310.9000,0.379891,205.007,0.101074
310.8000,0.755218,205.963,0.114912
310.7000,1.57956,206.39,0.121075
310.6000,0.913059,206.028,0.115844
310.5000,1.54597,206.745,0.126185
310.4000,0.30365,205.926,0.114371
310.3000,0.341788,207.17,0.132297
310.2000,1.38696,206.821,0.127278
310.1000,0.892112,206.303,0.119817
310.0000,2.83652,205.372,0.10636
309.9000,0.341395,206.19,0.118183
309.8000,0.126609,206.241,0.118919
309.7000,1.5219,205.856,0.113357
309.6000,0.713706,207.193,0.132623
309.5000,1.69127,205.483,0.107967
309.4000,2.54481,205.413,0.10695
309.3000,1.15891,205.977,0.115108
309.2000,1.51599,207.108,0.131401
309.1000,0.42088,205.172,0.103472
309.0000,0.884275,205.205,0.103948
308.9000,2.36069,207.431,0.136041
308.8000,0.822088,205.227,0.10426
308.7000,0.939858,205.463,0.107672
308.6000,1.44659,208.039,0.144766
308.5000,1.46783,206.049,0.116155
308.4000,0.790724,206.336,0.120291
308.3000,1.46536,204.721,0.0969327
308.2000,0.627816,206.756,0.126348
308.1000,-0.120999,206.04,0.116024
308.0000,1.27101,206.639,0.124651
307.9000,1.61765,205.265,0.104818
307.8000,2.21308,206.694,0.125451
307.7000,1.29201,205.585,0.109442
307.6000,0.991293,206.602,0.124129
307.5000,1.72271,206.308,0.119883
307.4000,2.23589,205.498,0.10818
307.3000,-0.164758,206.345,0.120422
307.2000,1.26676,206.252,0.119082
307.1000,1.31268,207.205,0.132802
307.0000,0.0387791,205.797,0.112506
306.9000,1.60101,206.73,0.125973
306.8000,2.78284,206.072,0.116482
306.7000,0.641302,206.572,0.123688
306.6000,1.41632,206.141,0.11748
306.5000,1.46723,205.705,0.111179
306.4000,0.942064,206.576,0.123753
306.3000,0.781413,205.427,0.107163
306.2000,1.3512,206.145,0.117529
306.1000,1.80829,205.083,0.102175
306.0000,2.17869,206.703,0.125581
305.9000,1.8948,205.83,0.11298
305.8000,0.846768,206.479,0.122349
305.7000,0.284812,206.3,0.119768
305.6000,0.583423,207.576,0.138123
305.5000,2.04967,206.415,0.121435
305.4000,1.95496,204.615,0.0953864
305.3000,0.545171,205.495,0.108147
305.2000,1.28006,206.247,0.119
305.1000,0.612336,203.857,0.0843631
305.0000,-0.435792,206.279,0.119474
304.9000,0.789287,207.297,0.13412
304.8000,1.04766,206.266,0.119278
304.7000,0.270673,205.647,0.110343
304.6000,1.59606,205.682,0.110851
304.5000,0.292164,205.029,0.101386
304.4000,1.96207,205.065,0.101912
304.3000,1.10213,205.787,0.112358
304.2000,0.936812,207.95,0.143484
304.1000,2.42442,205.583,0.109409
304.0000,0.729604,204.368,0.0917979
303.9000,1.46575,204.942,0.100138
303.8000,2.45778,205.771,0.112129
303.7000,2.38549,207.325,0.134527
303.6000,1.32541,206.56,0.123525
303.5000,0.566705,205.821,0.112849
303.4000,0.8312,203.88,0.0846931
303.3000,0.817795,206.344,0.120406
303.2000,1.86898,204.761,0.0975082
303.1000,1.94043,205.243,0.10449
303.0000,1.35953,205.949,0.114699
302.9000,2.22714,205.492,0.108098
302.8000,0.451893,205.1,0.102421
302.7000,1.37673,205.958,0.11483
302.6000,0.71164,206.615,0.124308
302.5000,-0.446827,205.643,0.110278
302.4000,2.49983,205.691,0.110982
302.3000,2.00022,205.991,0.115304
302.2000,2.54224,205.927,0.114388
302.1000,0.914038,205.431,0.107213
302.0000,0.538934,205.963,0.114912
301.9000,1.74901,205.379,0.106458
301.8000,0.602014,205.226,0.104243
301.7000,1.47885,206.503,0.122692
301.6000,-0.485729,204.985,0.100762
301.5000,1.24441,205.81,0.112702
301.4000,0.461235,206.258,0.119164
301.3000,2.07887,205.542,0.108819
301.2000,1.22343,205.082,0.102158
301.1000,0.971441,205.902,0.114028
301.0000,1.28115,205.535,0.108721
300.9000,0.641658,206.192,0.118215
300.8000,1.97648,206.354,0.120553
300.7000,-1.28014,205.9,0.113995
300.6000,0.474203,205.252,0.104621
300.5000,1.37742,204.74,0.0971957
300.4000,0.542136,204.725,0.0969818
300.3000,0.972214,204.734,0.0971135
300.2000,-0.520268,205.548,0.108901
300.1000,2.06634,206.655,0.12488
300.0000,1.28583,204.596,0.0951068
299.9000,2.0476,206.021,0.115746
299.8000,0.408229,205.54,0.108786
299.7000,1.47065,204.659,0.0960281
299.6000,-0.607957,207.987,0.14402
299.5000,0.204902,204.921,0.0998258
299.4000,2.43565,205.3,0.105326
299.3000,2.17445,206.245,0.118984
299.2000,0.976488,205.979,0.115141
299.1000,-0.450197,206.939,0.128973
299.0000,1.84741,205.494,0.108131
298.9000,1.12914,205.371,0.106343
298.8000,0.734851,205.502,0.108246
298.7000,0.395645,204.795,0.0980014
298.6000,-0.0135663,206.001,0.115452
298.5000,0.115991,203.626,0.0809949
298.4000,2.24791,205.529,0.108639
298.3000,1.55086,205.926,0.114371
298.2000,1.2472,206.315,0.119981
298.1000,0.729377,205.063,0.101879
298.0000,2.40305,205.519,0.108492
297.9000,1.87308,205.019,0.101255
297.8000,1.46229,204.571,0.0947447
297.7000,0.0979548,206.31,0.119915
297.6000,2.92568,205.7,0.111113
297.5000,-1.55058,204.375,0.091897
297.4000,1.88738,204.241,0.0899531
297.3000,1.19758,204.35,0.0915345
297.2000,0.76083,205.28,0.105031
297.1000,0.815048,205.199,0.103849
297.0000,3.10763,203.95,0.0857162
296.9000,-0.330174,205.391,0.106639
296.8000,-0.5954,204.901,0.0995299
296.7000,1.2346,206.065,0.116384
296.6000,2.50004,204.769,0.0976232
296.5000,2.07735,204.325,0.0911723
296.4000,0.612717,206.541,0.123247
296.3000,1.2505,206.077,0.116548
296.2000,1.74109,206.276,0.119425
296.1000,0.834374,205.425,0.107131
296.0000,2.09822,206.111,0.117038
295.9000,1.16286,205.841,0.113144
295.8000,0.433176,205.809,0.112686
295.7000,1.96334,203.68,0.0817878
295.6000,0.497457,205.178,0.103554
295.5000,1.42123,205.498,0.10818
295.4000,2.0998,205.006,0.101058
295.3000,3.48636,204.743,0.0972452
295.2000,-0.0830968,205.518,0.108475
295.1000,0.887973,204.852,0.0988233
295.0000,1.34469,205.334,0.105818
294.9000,0.557932,205.637,0.110196
294.8000,1.71627,205.857,0.113373
294.7000,0.853077,205.115,0.102634
294.6000,-0.1617,204.95,0.100253
294.5000,1.67748,204.726,0.0969985
294.4000,0.0785927,204.911,0.0996778
294.3000,0.934142,204.872,0.099119
294.2000,0.560227,205.46,0.107639
294.1000,1.36363,205.886,0.113799
294.0000,1.2441,206.208,0.118444
293.9000,1.4921,205.727,0.11149
293.8000,1.42478,205.199,0.103849
293.7000,1.07263,204.898,0.0994971
293.6000,2.08637,205.067,0.101945
293.5000,0.187774,204.871,0.0991026
293.4000,0.983101,205.461,0.107655
293.3000,1.36336,204.942,0.100138
293.2000,0.493567,204.404,0.0923251
293.1000,2.0305,206.036,0.115959
293.0000,1.99732,205.507,0.108311
292.9000,2.54496,204.455,0.093066
292.8000,1.60779,204.425,0.0926213
292.7000,3.34729,205.117,0.102668
292.6000,1.46546,205.124,0.102766
292.5000,3.16945,205.298,0.105294
292.4000,0.810175,205.926,0.114371
292.3000,1.16394,205.067,0.101945
292.2000,0.168324,206.888,0.12824
292.1000,2.58817,205.447,0.107442
292.0000,1.11795,205.673,0.11072
291.9000,1.10407,204.038,0.0870025
291.8000,1.90003,206.005,0.115517
291.7000,1.19674,205.541,0.108803
291.6000,1.71686,204.525,0.0940864
291.5000,1.6553,204.743,0.0972452
291.4000,1.91668,204.715,0.096834
291.3000,2.01399,204.682,0.096357
291.2000,1.39371,204.895,0.0994477
291.1000,0.161083,205.202,0.103899
291.0000,0.496774,205.819,0.112833
290.9000,0.952692,203.471,0.0787314
290.8000,0.223369,203.959,0.085848
290.7000,1.89733,204.444,0.0929014
290.6000,1.82448,204.896,0.0994644
290.5000,1.67649,203.993,0.0863428
290.4000,1.78511,203.634,0.0811108
290.3000,-0.158602,203.91,0.0851388
290.2000,0.991837,203.665,0.081573
290.1000,1.07525,205.016,0.101206
290.0000,2.28759,205.239,0.10444
289.9000,0.322875,205.046,0.101633
289.8000,1.33633,204.376,0.0919134
289.7000,1.21493,205.043,0.1016
289.6000,1.09449,204.191,0.089228
289.5000,-0.695263,204.453,0.0930329
289.4000,1.39422,205.126,0.102799
289.3000,1.48372,205.466,0.107721
289.2000,0.896014,204.223,0.0896896
289.1000,1.60564,205.431,0.107213
289.0000,-0.673519,205.093,0.102322
288.9000,1.28274,203.858,0.0843795
288.8000,1.1825,205.078,0.102109
288.7000,1.32563,204.8,0.0980673
288.6000,2.13182,205.584,0.109426
288.5000,0.613469,205.108,0.102536
288.4000,0.489138,204.274,0.090431
288.3000,0.977398,204.4,0.0922592
288.2000,1.14092,205.745,0.111752
288.1000,3.1315,205.442,0.107377
288.0000,0.171525,204.22,0.08964
287.9000,1.09969,205.018,0.101239
287.8000,0.505854,205.019,0.101255
287.7000,1.97086,205.036,0.101501
287.6000,1.60793,204.685,0.0964062
287.5000,2.06766,204.834,0.0985604
287.4000,0.69372,205.923,0.114323
287.3000,1.36907,204.821,0.0983793
287.2000,0.806805,204.734,0.0971135
287.1000,0.639408,204.166,0.0888656
287.0000,0.438121,204.669,0.0961762
286.9000,2.32798,205.826,0.112931
286.8000,1.18382,205.49,0.108065
286.7000,1.56965,205.748,0.111801
286.6000,1.47884,204.842,0.0986754
286.5000,0.649853,204.851,0.098807
286.4000,0.732132,205.421,0.107065
286.3000,0.77436,204.876,0.0991684
286.2000,0.957329,204.554,0.0944978
286.1000,1.76428,204.839,0.0986426
286.0000,1.36645,203.809,0.08367
285.9000,0.967589,204,0.0864417
285.8000,2.10673,204.697,0.0965706
285.7000,1.49417,205.64,0.110245
285.6000,1.21074,204.719,0.0968996
285.5000,1.0274,204.908,0.0996451
285.4000,0.92075,204.271,0.0903814
285.3000,1.24696,204.21,0.0895084
285.2000,0.48458,203.978,0.0861286
285.1000,1.47944,204.946,0.100187
285.0000,1.54333,205.733,0.111588
284.9000,1.52489,205.108,0.102536
284.8000,0.406517,206.59,0.12395
284.7000,0.63737,204.671,0.0961925
284.6000,0.977485,204.638,0.0957154
284.5000,1.20102,204.879,0.0992179
284.4000,1.79972,204.479,0.0934116
284.3000,0.91249,205.567,0.10918
284.2000,0.344426,204.872,0.099119
284.1000,0.625887,206.453,0.121974
284.0000,1.60348,205.877,0.113668
283.9000,1.00297,205.214,0.104079
283.8000,1.20179,204.474,0.0933457
283.7000,2.36763,205.4,0.10677
283.6000,1.43551,206.235,0.118837
283.5000,0.672225,205.196,0.103817
283.4000,0.904047,206.04,0.116024
283.3000,-0.069528,205.26,0.104736
283.2000,1.26023,204.69,0.096472
283.1000,1.3331,204.474,0.0933457
283.0000,0.896187,204.317,0.0910568
282.9000,-0.348024,205.913,0.114192
282.8000,1.02021,204.406,0.0923579
282.7000,0.995129,204.31,0.090958
282.6000,1.33055,204.991,0.100844
282.5000,0.422103,204.283,0.0905626
282.4000,1.11605,205.601,0.109672
282.3000,1.58509,204.916,0.09976
282.2000,0.960624,204.238,0.0899036
282.1000,1.4968,204.948,0.10022
282.0000,2.1151,204.598,0.0951396
281.9000,2.65641,204.667,0.0961431
281.8000,1.36426,204.479,0.0934116
281.7000,2.60603,203.829,0.0839505
281.6000,0.764678,204.651,0.0959127
281.5000,2.02083,204.717,0.0968668
281.4000,-0.597101,204.588,0.0949915
281.3000,1.16756,205.216,0.104096
281.2000,2.7274,204.505,0.0937903
281.1000,1.70082,205.31,0.105458
281.0000,0.931563,204.888,0.0993491
280.9000,1.21568,206.964,0.129332
280.8000,0.680064,204.571,0.0947447
280.7000,-0.155347,205.059,0.10183
280.6000,0.614996,204.019,0.0867223
280.5000,0.337093,205.365,0.106261
280.4000,1.491,202.888,0.0702259
280.3000,0.0592816,205.609,0.109786
280.2000,0.752992,203.066,0.0728262
280.1000,2.25524,203.965,0.0859305
280.0000,0.560823,203.834,0.084033
279.9000,1.09061,203.212,0.0749609
279.8000,1.55244,204.724,0.0969654
279.7000,1.50494,205.395,0.106688
279.6000,1.50154,204.971,0.100549
279.5000,0.993089,206.89,0.128272
279.4000,2.41559,204.394,0.0921768
279.3000,0.231905,205.78,0.11226
279.2000,0.880301,206.139,0.117447
279.1000,-0.221709,204.94,0.100105
279.0000,0.962416,205.274,0.104949
278.9000,0.913659,204.791,0.0979356
278.8000,1.65183,204.767,0.0975904
278.7000,0.39587,204.461,0.0931483
278.6000,1.24801,204.395,0.0921932
278.5000,0.81124,205.536,0.108737
278.4000,0.541349,204.693,0.0965215
278.3000,0.968618,204.208,0.0894752
278.2000,1.17879,205.412,0.106934
278.1000,0.779662,205.027,0.10137
278.0000,1.95888,205.304,0.105376
277.9000,-0.899135,205.336,0.105835
277.8000,0.332315,204.887,0.0993328
277.7000,2.9503,204.936,0.10004
277.6000,0.198701,204.143,0.0885195
277.5000,0.0992284,205.886,0.113799
277.4000,0.544831,205.204,0.103931
277.3000,2.03214,204.956,0.100335
277.2000,1.91491,205.333,0.105802
277.1000,2.61014,205.528,0.108623
277.0000,1.82503,206.218,0.118592
276.9000,-0.212419,203.827,0.083934
276.8000,0.678635,204.401,0.0922756
276.7000,1.97924,203.958,0.0858316
276.6000,-0.107327,205.286,0.105113
276.5000,1.94318,204.439,0.0928354
276.4000,1.79134,205.821,0.112849
276.3000,0.859941,205.724,0.111457
276.2000,0.713091,204.007,0.0865409
276.1000,2.45693,205.699,0.111097
276.0000,1.68071,204.558,0.0945637
275.9000,1.15168,204.547,0.0943992
275.8000,1.70004,207.265,0.133665
275.7000,-0.406015,205.928,0.114404
275.6000,0.529174,205.031,0.101419
275.5000,-0.471916,205.37,0.106327
275.4000,1.19913,206.18,0.118036
275.3000,0.132425,204.621,0.0954687
275.2000,0.940594,204.366,0.0917651
275.1000,0.933981,205.967,0.114961
275.0000,1.75561,205.17,0.103439
274.9000,0.813931,205.435,0.107278
274.8000,0.0897848,204.697,0.0965706
274.7000,-0.20176,205.515,0.108426
274.6000,-0.301144,204.183,0.0891128
274.5000,0.715557,205.052,0.101731
274.4000,0.151629,204.839,0.0986426
274.3000,2.13374,205.34,0.1059
274.2000,1.08753,205.228,0.104276
274.1000,1.86125,204.845,0.0987248
274.0000,1.28941,206.051,0.116171
273.9000,1.1613,205.323,0.105654
273.8000,2.00031,205.459,0.107623
273.7000,0.222393,206.281,0.119491
273.6000,1.76034,206.999,0.129837
273.5000,0.837518,205.955,0.114797
273.4000,0.51485,205.09,0.102273
273.3000,-0.19004,205.013,0.101156
273.2000,1.06391,205.583,0.109409
273.1000,-0.312532,205.232,0.104342
273.0000,0.596911,204.851,0.098807
272.9000,0.279362,204.937,0.100056
272.8000,2.08667,204.003,0.0864913
272.7000,0.920554,205.475,0.107852
272.6000,2.10274,205.628,0.110065
272.5000,-0.0337021,205.191,0.103735
272.4000,2.48401,205.431,0.107213
272.3000,1.54882,206.071,0.116466
272.2000,-0.327678,204.008,0.0865574
272.1000,1.85285,206.317,0.120013
272.0000,1.23126,204.414,0.0924733
271.9000,0.0305896,206.066,0.1164
271.8000,1.80636,206.537,0.123182
271.7000,0.510454,204.749,0.0973274
271.6000,-0.172316,204.404,0.0923251
271.5000,0.0280407,205.358,0.106163
271.4000,2.40624,205.526,0.10859
271.3000,-0.233106,203.381,0.0774254
271.2000,1.26119,205.954,0.114781
271.1000,1.26171,204.751,0.0973601
271.0000,1.01958,205.475,0.107852
270.9000,1.32551,204.495,0.0936421
270.8000,-0.251813,206.164,0.117807
270.7000,1.14861,205.6,0.109655
270.6000,2.98684,205.486,0.108016
270.5000,1.33182,205.396,0.106704
270.4000,1.89814,205.765,0.112047
270.3000,2.1556,204.95,0.100253
270.2000,1.14041,205.814,0.112751
270.1000,1.15998,205.615,0.109885
270.0000,0.605935,205.41,0.106917
269.9000,0.263601,205.765,0.112047
269.8000,0.877754,205.457,0.10759
269.7000,3.09844,205.937,0.114535
269.6000,0.291841,205.27,0.104883
269.5000,1.41243,205.234,0.104358
269.4000,1.98007,206.693,0.125435
269.3000,-0.516734,205.831,0.112997
269.2000,2.52586,205.385,0.106557
269.1000,1.15943,206.852,0.127718
269.0000,0.590734,206.097,0.116842
268.9000,1.62788,206.126,0.117267
268.8000,-0.455852,206.094,0.116793
268.7000,1.67333,205.66,0.110523
268.6000,-0.263817,205.027,0.10137
268.5000,0.613223,206.031,0.115893
268.4000,0.785793,206.155,0.117676
268.3000,0.0894583,205.884,0.113766
268.2000,0.914646,206.531,0.1231
268.1000,0.22051,206.996,0.129788
268.0000,1.77648,204.712,0.096801
267.9000,-0.145628,204.727,0.0970149
267.8000,0.539782,206.951,0.129152
267.7000,0.62819,206.16,0.117758
267.6000,-0.0138325,206.475,0.1223
267.5000,1.09203,205.654,0.110442
267.4000,0.883033,205.736,0.111621
267.3000,1.68644,206.189,0.118167
267.2000,1.35439,205.873,0.113602
267.1000,0.913655,205.503,0.108262
267.0000,1.04908,205.581,0.109393
266.9000,0.929735,205.686,0.1109
266.8000,1.42911,207.29,0.134023
266.7000,0.863431,206.823,0.12731
266.6000,0.673002,205.833,0.113029
266.5000,-0.871348,206.513,0.122839
266.4000,1.777,207.366,0.135113
266.3000,1.62778,207.128,0.131695
266.2000,0.797277,206.523,0.122986
266.1000,2.14932,205.923,0.114323
266.0000,1.23689,206.384,0.120977
265.9000,0.965193,205.96,0.114862
265.8000,0.631182,205.517,0.108459
265.7000,0.705231,207.982,0.143955
265.6000,-0.160504,207.431,0.136041
265.5000,-0.299775,207.754,0.140674
265.4000,2.90498,206.885,0.128191
265.3000,-0.565326,206.942,0.129022
265.2000,3.77823,206.299,0.119752
265.1000,0.156111,207.377,0.135276
265.0000,1.83914,207.294,0.134072
264.9000,-0.725207,207.373,0.135211
264.8000,-0.723712,208.481,0.15109
264.7000,0.495771,207.42,0.135894
264.6000,0.706439,206.495,0.122578
264.5000,-1.03865,206.508,0.122774
264.4000,1.27164,207.339,0.134723
264.3000,-0.601246,207.158,0.132118
264.2000,0.0489622,208.046,0.144864
264.1000,-0.550819,208.103,0.145675
264.0000,-1.32601,207.358,0.134999
263.9000,0.929567,207.179,0.132427
263.8000,0.599012,206.724,0.125875
263.7000,3.07085,207.786,0.141145
263.6000,0.845767,208.01,0.144344
263.5000,1.93471,208.512,0.151528
263.4000,0.295029,207.565,0.137976
263.3000,1.14164,207.428,0.136008
263.2000,1.50417,206.936,0.128925
263.1000,0.667355,207.253,0.133486
263.0000,0.0573733,207.767,0.140869
262.9000,1.21209,207.287,0.133974
262.8000,1.15252,206.96,0.129283
262.7000,1.34575,207.686,0.139699
262.6000,1.10299,207.096,0.131238
262.5000,1.9931,207.783,0.141097
262.4000,0.408581,207.647,0.139147
262.3000,0.789147,207.201,0.132737
262.2000,1.18153,207.743,0.140528
262.1000,-0.0465568,207.85,0.142055
262.0000,1.30407,209.168,0.160895
261.9000,1.1115,208.334,0.148983
261.8000,0.531572,208.009,0.144328
261.7000,2.32129,209.597,0.167013
261.6000,1.15566,208.129,0.146048
261.5000,-0.116131,207.78,0.141048
261.4000,3.88903,208.253,0.147832
261.3000,0.207145,206.71,0.125679
261.2000,-0.126068,207.742,0.140512
261.1000,-0.306861,206.974,0.129478
261.0000,1.68561,207.519,0.137309
260.9000,2.03903,208.946,0.157726
260.8000,0.626789,208.227,0.147459
260.7000,1.28699,207.973,0.143825
260.6000,0.535114,208.335,0.149
260.5000,0.890511,208.527,0.151754
260.4000,0.935482,206.835,0.127473
260.3000,1.56992,208.738,0.154766
260.2000,0.545271,208.336,0.149016
260.1000,1.30019,208.016,0.144442
260.0000,1.95985,209.038,0.159052
259.9000,1.12825,208.376,0.149583
259.8000,1.43339,208.376,0.149583
259.7000,1.52932,207.925,0.143127
259.6000,2.24233,208.674,0.153843
259.5000,-0.161907,208.241,0.147654
259.4000,0.839216,207.944,0.143403
259.3000,2.04078,207.373,0.135211
259.2000,0.845533,208.397,0.149891
259.1000,0.328469,208.344,0.149129
259.0000,1.71156,208.43,0.150361
258.9000,0.468449,207.559,0.137879
258.8000,0.610636,208.199,0.147054
258.7000,1.01311,208.958,0.157904
258.6000,1.74935,208.923,0.157403
258.5000,1.25354,207.92,0.143062
258.4000,0.397981,208.233,0.14754
258.3000,0.883206,209.765,0.169399
258.2000,0.34117,206.601,0.124113
258.1000,-0.0137702,209.568,0.166593
258.0000,0.269209,208.378,0.149615
257.9000,1.27473,208.378,0.149615
257.8000,1.57425,209.71,0.168625
257.7000,-0.310455,209.885,0.171108
257.6000,-0.940681,208.329,0.148919
257.5000,1.4409,208.846,0.156303
257.4000,0.926971,209.403,0.164254
257.3000,1.17087,209.408,0.164318
257.2000,0.687495,211.416,0.192809
257.1000,0.831463,208.571,0.15237
257.0000,2.47276,208.748,0.154912
256.9000,0.885066,209.374,0.163834
256.8000,0.223179,208.869,0.156627
256.7000,0.903371,209.797,0.169851
256.6000,0.350126,209.391,0.164076
256.5000,0.00968035,209.556,0.166432
256.4000,1.633,209.885,0.171108
256.3000,1.39491,209.423,0.164528
256.2000,1.31614,208.452,0.150669
256.1000,0.695725,210.082,0.17391
256.0000,-0.381179,210.693,0.182577
255.9000,1.05535,209.848,0.170576
255.8000,-0.0415566,210.46,0.179283
255.7000,1.54133,210.183,0.175343
255.6000,1.78094,209.92,0.171607
255.5000,-1.47406,210.042,0.173346
255.4000,0.266101,210.144,0.174795
255.3000,-0.638682,209.19,0.161218
255.2000,0.735874,209.867,0.17085
255.1000,0.620539,209.867,0.17085
255.0000,0.949108,211.157,0.189156
254.9000,1.46835,209.538,0.166174
254.8000,0.905173,210.548,0.180521
254.7000,1.13713,211.05,0.187633
254.6000,0.331029,210.696,0.182625
254.5000,0.379388,211.558,0.194827
254.4000,1.42646,209.85,0.170608
254.3000,1.39194,211.275,0.190823
254.2000,-1.40853,209.472,0.165238
254.1000,0.518297,209.61,0.16719
254.0000,1.80009,210.048,0.173427
253.9000,-0.629516,211.392,0.192473
253.8000,0.83764,210.241,0.176163
253.7000,0.36811,210.124,0.174505
253.6000,-0.304969,210.259,0.17642
253.5000,0.57944,209.923,0.171655
253.4000,0.194191,210.381,0.178158
253.3000,0.275937,210.379,0.178125
253.2000,3.35138,210.472,0.179444
253.1000,0.158768,210.882,0.185258
253.0000,2.04188,211.129,0.188755
252.9000,0.202105,210.82,0.184375
252.8000,1.34757,210.768,0.183637
252.7000,-0.0227373,210.198,0.175552
252.6000,2.00179,211.117,0.188579
252.5000,0.797901,210.475,0.179492
252.4000,1.90248,210.807,0.184199
252.3000,-0.772326,211.051,0.187649
252.2000,1.73595,211.128,0.188739
252.1000,0.352033,210.695,0.182609
252.0000,0.949999,210.517,0.180087
251.9000,-0.540741,210.843,0.184712
251.8000,0.348301,211.303,0.191224
251.7000,0.826619,212.169,0.203444
251.6000,0.0255452,211.469,0.193562
251.5000,0.536042,211.537,0.194523
251.4000,0.53604,209.961,0.172187
251.3000,0.602095,211.615,0.195627
251.2000,0.96371,210.974,0.186558
251.1000,1.947,210.368,0.177965
251.0000,3.19232,210.436,0.178929
250.9000,0.538429,211.081,0.188082
250.8000,1.23064,211.476,0.193658
250.7000,1.86914,211.747,0.197483
250.6000,1.20539,211.016,0.187152
250.5000,1.79895,210.511,0.180006
250.4000,0.687636,211.354,0.191945
250.3000,0.337034,211.412,0.192761
250.2000,-0.331551,211.48,0.193722
250.1000,0.719503,212.033,0.201527
250.0000,-1.50825,211.844,0.198858
249.9000,0.915324,212.757,0.211722
249.8000,0.723683,211.481,0.193738
249.7000,-0.520737,212.8,0.212328
249.6000,1.79175,210.221,0.17589
249.5000,0.495337,212.258,0.20469
249.4000,0.31096,211.894,0.199562
249.3000,1.03878,212.295,0.205216
249.2000,0.742342,210.834,0.184584
249.1000,-0.272724,211.953,0.200393
249.0000,0.0786802,212.19,0.203732
248.9000,1.16265,212.025,0.201416
248.8000,0.815967,212.187,0.2037
248.7000,0.425698,211.928,0.200041
248.6000,1.52278,212.363,0.206174
248.5000,2.54382,210.836,0.1846
248.4000,1.72627,212.437,0.207211
248.3000,1.61361,211.23,0.190182
248.2000,-0.475102,212.133,0.202933
248.1000,1.46046,211.217,0.190005
248.0000,-0.072768,211.49,0.193866
247.9000,1.17173,211.567,0.194955
247.8000,0.903956,211.81,0.198379
247.7000,0.419831,211.437,0.193114
247.6000,0.734936,213.651,0.224272
247.5000,2.38316,212.1,0.20247
247.4000,-0.569839,212.634,0.209985
247.3000,0.876702,212.185,0.203668
247.2000,2.73316,212.86,0.213172
247.1000,0.374768,211.06,0.187777
247.0000,0.531216,212.258,0.20469
246.9000,-0.246037,211.464,0.193498
246.8000,0.572895,212.909,0.213857
246.7000,0.356164,212.162,0.203348
246.6000,1.68793,213.216,0.218169
246.5000,0.398253,213.299,0.21933
246.4000,2.34301,212.805,0.212392
246.3000,2.59985,213.743,0.225557
246.2000,1.5324,212.613,0.209699
246.1000,1.44464,214.6,0.237537
246.0000,1.43403,213.618,0.223811
245.9000,1.89062,212.993,0.215035
245.8000,-0.561804,212.57,0.209093
245.7000,0.836322,213.351,0.220062
245.6000,1.54375,212.954,0.214494
245.5000,0.869345,213.764,0.225859
245.4000,0.744189,213.275,0.218996
245.3000,1.56787,212.826,0.212694
245.2000,0.198187,213.391,0.220618
245.1000,1.37513,213.187,0.217756
245.0000,0.739795,213.982,0.228905
244.9000,0.478506,213.393,0.22065
244.8000,0.190783,213.25,0.218646
244.7000,1.32756,212.841,0.212901
244.6000,1.27254,213.973,0.228778
244.5000,1.42535,213.297,0.219298
244.4000,0.77758,212.946,0.214382
244.3000,-0.257265,213.837,0.226875
244.2000,0.305584,213.877,0.22743
244.1000,0.175628,214.138,0.231092
244.0000,1.08835,212.524,0.208439
243.9000,0.630402,214.04,0.229714
243.8000,1.5714,215.096,0.244459
243.7000,0.880646,215.094,0.244428
243.6000,-0.408835,213.949,0.228445
243.5000,-0.133427,214.238,0.232487
243.4000,1.44632,213.92,0.228032
243.3000,0.608263,213.457,0.221556
243.2000,0.91857,214.109,0.23068
243.1000,-0.306576,214.494,0.236065
243.0000,0.863244,212.935,0.214223
242.9000,-0.562251,214.236,0.232455
242.8000,1.40133,215.21,0.246054
242.7000,2.22453,215.522,0.250391
242.6000,2.26085,214.263,0.232835
242.5000,1.49654,215.004,0.24318
242.4000,3.21781,214.348,0.234023
242.3000,-0.334806,213.885,0.227541
242.2000,1.15345,214.515,0.23635
242.1000,1.29352,213.643,0.22416
242.0000,1.66702,214.445,0.235385
241.9000,0.842747,214.98,0.242848
241.8000,2.29999,214.706,0.239023
241.7000,0.525787,215.401,0.248704
241.6000,1.12295,214.952,0.242454
241.5000,2.09159,215.339,0.247852
241.4000,0.421454,214.482,0.235891
241.3000,0.768504,214.847,0.240984
241.2000,0.816288,215.962,0.256503
241.1000,-0.545575,215.616,0.2517
241.0000,-2.17938,215.219,0.24618
240.9000,0.0915142,215.415,0.248909
240.8000,-0.206685,213.936,0.228255
240.7000,1.69134,217.072,0.271893
240.6000,0.157541,215.877,0.255322
240.5000,2.53213,215.296,0.247253
240.4000,1.51633,215.879,0.255353
240.3000,1.61302,215.304,0.247363
240.2000,3.47248,215.86,0.255086
240.1000,-1.42574,215.648,0.252141
240.0000,1.71549,216.841,0.268694
239.9000,1.33181,216.972,0.270513
239.8000,1.72165,216.201,0.259822
239.7000,1.83988,215.299,0.247285
239.6000,1.00365,216.451,0.263295
239.5000,-0.751041,216.982,0.270655
239.4000,0.904915,216.854,0.268883
239.3000,1.89112,216.934,0.26998
239.2000,0.0576575,216.58,0.265085
239.1000,1.89845,216.201,0.259822
239.0000,1.48049,216.603,0.265399
238.9000,2.51294,216.613,0.26554
238.8000,0.107784,216.275,0.260859
238.7000,1.57534,216.91,0.269651
238.6000,0.653809,216.637,0.26587
238.5000,1.07653,217.873,0.282955
238.4000,1.72641,218.027,0.28508
238.3000,-0.418372,217.101,0.2723
238.2000,0.898732,217.304,0.275104
238.1000,-0.139387,218.071,0.285689
238.0000,3.31817,217.541,0.278375
237.9000,1.10066,216.318,0.261457
237.8000,0.00371598,217.878,0.283018
237.7000,0.734503,217.326,0.275402
237.6000,-0.637666,217.999,0.284689
237.5000,2.58449,217.846,0.28258
237.4000,0.230155,217.739,0.281112
237.3000,1.58594,217.922,0.283627
237.2000,0.555642,218.338,0.289355
237.1000,1.22195,218.537,0.292099
237.0000,1.52283,217.992,0.284596
236.9000,0.31426,218.041,0.285267
236.8000,0.973593,218.709,0.294468
236.7000,0.0549126,218.435,0.290696
236.6000,2.0788,219.932,0.311234
236.5000,2.41098,218.391,0.290089
236.4000,0.492902,219.838,0.309947
236.3000,1.73634,218.002,0.284736
236.2000,-1.20621,218.137,0.286594
236.1000,2.69174,218.452,0.29093
236.0000,0.492421,218.24,0.288014
235.9000,-0.677628,219.194,0.301127
235.8000,1.01917,218.685,0.294141
235.7000,1.33626,219.756,0.30883
235.6000,2.38824,219.893,0.310707
235.5000,-0.0142525,219.451,0.304655
235.4000,0.37182,219.213,0.301392
235.3000,0.517575,219.943,0.311389
235.2000,0.296559,220.613,0.320539
235.1000,1.70773,218.939,0.297628
235.0000,1.56904,220.703,0.321776
234.9000,2.75441,220.203,0.314937
234.8000,1.16411,218.999,0.298452
234.7000,1.34933,220.962,0.325299
234.6000,-0.873438,221.139,0.327707
234.5000,3.29751,220.676,0.321405
234.4000,-0.470959,220.115,0.313744
234.3000,1.07194,220.022,0.312474
234.2000,1.10187,220.836,0.323584
234.1000,1.11091,221.031,0.326241
234.0000,2.24205,220.944,0.325052
233.9000,0.418994,221.191,0.328417
233.8000,3.70608,220.132,0.313977
233.7000,3.47988,221.221,0.328834
233.6000,-0.834146,219.386,0.303754
233.5000,3.25107,221.759,0.336155
233.4000,-0.254365,220.64,0.32091
233.3000,1.66961,220.558,0.319797
233.2000,1.67675,221.189,0.328402
233.1000,0.363725,220.167,0.314457
233.0000,-0.0299685,221.388,0.331101
232.9000,-0.359786,221.656,0.334754
232.8000,0.898751,221.413,0.33144
232.7000,1.09219,222.293,0.3434
232.6000,0.475198,222.3,0.343492
232.5000,0.743109,220.329,0.316671
232.4000,3.08168,220.955,0.325206
232.3000,2.23799,222.25,0.342816
232.2000,2.43326,221.151,0.327877
232.1000,1.13796,221.757,0.336124
232.0000,-0.304922,222.796,0.350217
231.9000,0.79102,222.309,0.343615
231.8000,0.0275731,222.464,0.34572
231.7000,1.63571,222.517,0.346441
231.6000,1.2384,222.208,0.342247
231.5000,1.52528,221.907,0.338156
231.4000,2.24255,223.532,0.360158
231.3000,1.11445,222.606,0.347639
231.2000,1.23744,222.485,0.345996
231.1000,1.70626,223.781,0.363522
231.0000,3.32997,221.267,0.329451
230.9000,1.08835,221.884,0.337848
230.8000,1.63378,223.283,0.356806
230.7000,0.237603,222.822,0.35057
230.6000,0.624435,222.259,0.342939
230.5000,0.69066,222.742,0.349481
230.4000,-0.647264,222.959,0.352425
230.3000,2.40121,222.751,0.349603
230.2000,2.63995,223.356,0.357786
230.1000,0.91564,223.32,0.357296
230.0000,1.14669,223.722,0.362727
229.9000,1.11038,223.505,0.359806
229.8000,3.01695,221.957,0.338833
229.7000,1.91001,223.703,0.362467
229.6000,1.4749,223.677,0.362115
229.5000,0.449143,224.895,0.378514
229.4000,2.22851,223.677,0.362115
229.3000,-0.736903,224.447,0.372497
229.2000,-0.856021,223.924,0.365447
229.1000,1.59183,223.76,0.363246
229.0000,3.31221,223.899,0.365111
228.9000,0.509574,224.346,0.37114
228.8000,2.37477,223.909,0.365248
228.7000,1.42337,224.888,0.378422
228.6000,1.16624,225.256,0.383366
228.5000,1.64461,225.016,0.380142
228.4000,2.43722,223.879,0.364851
228.3000,3.17606,225.145,0.381876
228.2000,0.392356,226.255,0.396748
228.1000,-0.252855,224.643,0.375133
228.0000,2.07978,225.502,0.386663
227.9000,1.89266,226.334,0.397793
227.8000,-0.104868,226.255,0.396748
227.7000,0.914799,226.819,0.404267
227.6000,2.61726,226.395,0.39861
227.5000,2.62944,226.057,0.394097
227.4000,0.742303,227.117,0.40824
227.3000,-0.413425,226.736,0.403164
227.2000,0.0935328,228.178,0.422359
227.1000,1.53121,227.249,0.410006
227.0000,-0.464446,227.407,0.412103
226.9000,2.82654,226.45,0.399352
226.8000,0.187925,227.204,0.409402
226.7000,1.43641,226.964,0.406202
226.6000,-0.913288,226.918,0.405597
226.5000,0.934792,227.486,0.413159
226.4000,-0.199636,227.151,0.408693
226.3000,1.75554,226.499,0.400003
226.2000,-0.366231,227.632,0.415103
226.1000,1.10475,227.464,0.412872
226.0000,1.49779,227.609,0.414802
225.9000,1.26424,227.861,0.418146
225.8000,1.72272,227.265,0.410217
225.7000,1.36976,227.504,0.4134
225.6000,3.48301,228.621,0.428235
225.5000,-0.761836,227.883,0.418432
225.4000,0.919925,227.847,0.417965
225.3000,2.45203,228.014,0.420178
225.2000,1.47582,229.142,0.435135
225.1000,0.046631,228.184,0.422434
225.0000,0.528666,228.341,0.424524
224.9000,2.77613,228.544,0.427214
224.8000,0.241112,228.689,0.429136
224.7000,0.293971,229.055,0.433981
224.6000,2.5678,228.508,0.426733
224.5000,3.14649,229.22,0.436155
224.4000,1.8324,229.482,0.439629
224.3000,2.07725,227.907,0.418763
224.2000,2.02281,229.115,0.434776
224.1000,4.74084,229.554,0.440572
224.0000,1.763,229.272,0.436844
223.9000,-1.66544,230.456,0.452465
223.8000,1.7445,229.499,0.439853
223.7000,0.314166,228.993,0.433157
223.6000,2.94497,230.069,0.447375
223.5000,0.179037,230.166,0.448644
223.4000,0.652882,229.191,0.43578
223.3000,2.27393,230.655,0.455089
223.2000,2.54219,229.833,0.444251
223.1000,1.11558,230.509,0.453166
223.0000,3.45742,230.629,0.454746
222.9000,0.115836,231.111,0.461076
222.8000,-0.00788132,231.337,0.464052
222.7000,1.95333,231.202,0.462282
222.6000,1.94358,231.615,0.467693
222.5000,3.31001,230.722,0.455968
222.4000,2.37384,231.407,0.464973
222.3000,1.19822,231.312,0.463724
222.2000,1.56027,231.09,0.460808
222.1000,1.83688,232.263,0.47618
222.0000,1.45978,231.258,0.463011
221.9000,-0.223589,232.377,0.477676
221.8000,3.05901,232.852,0.483879
221.7000,2.93866,231.922,0.471716
221.6000,2.69789,231.168,0.461835
221.5000,0.377222,231.905,0.471494
221.4000,-0.811426,232.465,0.478817
221.3000,2.02226,232.601,0.480594
221.2000,1.19185,231.363,0.464393
221.1000,3.20171,232.916,0.484707
221.0000,1.4226,232.442,0.478521
220.9000,1.1832,232.897,0.48447
220.8000,3.26339,233.504,0.492373
220.7000,2.85643,232.214,0.475543
220.6000,2.61547,233.096,0.487057
220.5000,0.893383,234.326,0.50307
220.4000,0.20694,233.687,0.494763
220.3000,2.1062,233.365,0.490572
220.2000,3.44835,233.16,0.487899
220.1000,-0.435612,233.39,0.490897
220.0000,-0.474164,233.369,0.490617
219.9000,2.13784,234.317,0.502952
219.8000,2.66268,234.646,0.507217
219.7000,2.76673,233.844,0.496797
219.6000,0.714827,234.138,0.500627
219.5000,2.31432,233.993,0.498742
219.4000,0.142711,235.187,0.514235
219.3000,0.37632,234.696,0.507863
219.2000,0.0528199,234.863,0.510037
219.1000,1.68837,234.059,0.499596
219.0000,2.84083,234.245,0.502011
218.9000,0.491336,235.22,0.51466
218.8000,0.309688,235.583,0.51935
218.7000,0.539536,234.493,0.505232
218.6000,1.51386,234.625,0.506952
218.5000,1.89214,235.602,0.5196
218.4000,1.44101,235.926,0.523786
218.3000,2.93002,235.598,0.519541
218.2000,2.86139,236.194,0.527237
218.1000,1.92342,235.988,0.524591
218.0000,2.58614,235.55,0.518926
217.9000,4.04361,236.113,0.526199
217.8000,2.19417,236.659,0.53324
217.7000,1.23782,236.419,0.530145
217.6000,0.688948,235.816,0.522367
217.5000,0.389429,236.376,0.52959
217.4000,1.99671,236.74,0.534276
217.3000,1.73446,236.784,0.534845
217.2000,3.35072,236.92,0.536595
217.1000,2.78951,236.97,0.537236
217.0000,5.12871,237.405,0.54283
216.9000,3.6091,237.163,0.539728
216.8000,2.71171,237.449,0.543397
216.7000,-0.932492,237.596,0.545289
216.6000,-0.547549,238.294,0.554238
216.5000,1.23968,237.548,0.544663
216.4000,2.07254,237.286,0.541301
216.3000,-1.31475,237.746,0.547208
216.2000,0.430255,238.299,0.554296
216.1000,1.62371,238.01,0.550594
216.0000,2.09881,238.027,0.550812
215.9000,0.137081,238.36,0.555079
215.8000,2.69523,238.84,0.561225
215.7000,4.47401,238.047,0.551073
215.6000,0.186176,238.49,0.556747
215.5000,5.03327,238.232,0.553439
215.4000,4.23962,239.073,0.564192
215.3000,1.88303,238.793,0.560616
215.2000,2.88527,239.033,0.563686
215.1000,0.95715,238.641,0.558675
215.0000,-1.18593,239.079,0.564279
214.9000,1.26751,239.135,0.564988
214.8000,2.42104,239.092,0.564439
214.7000,1.79116,240.562,0.583158
214.6000,1.71637,239.89,0.574611
214.5000,0.222301,239.26,0.566579
214.4000,2.38244,238.927,0.562325
214.3000,2.00016,239.627,0.571262
214.2000,0.957285,240.4,0.581099
214.1000,0.779852,239.989,0.575881
214.0000,1.8956,240.61,0.583778
213.9000,1.87745,239.626,0.571248
213.8000,1.10221,240.146,0.577871
213.7000,3.43607,239.87,0.574366
213.6000,2.58787,239.973,0.575679
213.5000,1.08501,241.079,0.589732
213.4000,2.91234,241.56,0.59582
213.3000,2.42185,241.638,0.59681
213.2000,-1.25468,241.182,0.59104
213.1000,2.02081,241.418,0.594027
213.0000,2.50542,240.872,0.587101
212.9000,2.20173,240.917,0.587676
212.8000,-0.286076,241.215,0.591456
212.7000,1.05543,241.757,0.598316
212.6000,2.22139,241.049,0.589344
212.5000,1.75447,241.662,0.597111
212.4000,1.87398,241.816,0.599061
212.3000,1.08551,242.214,0.60409
212.2000,3.23984,242.309,0.605292
212.1000,2.19501,244.216,0.629299
212.0000,2.87259,242.467,0.607295
211.9000,2.08549,242.356,0.605893
211.8000,4.67958,241.456,0.5945
211.7000,0.551933,243.221,0.616794
211.6000,2.80611,242.486,0.607524
211.5000,0.895745,243.097,0.615239
211.4000,1.15434,243.939,0.625828
211.3000,2.00546,243.792,0.623978
211.2000,1.007,243.852,0.624733
211.1000,1.05885,243.548,0.620915
211.0000,1.99175,243.645,0.622126
210.9000,1.64705,244.797,0.636586
210.8000,-0.130343,243.829,0.624448
210.7000,-3.02629,243.936,0.625786
210.6000,1.42534,244.599,0.634102
210.5000,1.74832,245.315,0.643066
210.4000,-0.289354,244.854,0.637296
210.3000,-0.183842,245.203,0.641663
210.2000,5.32297,243.608,0.621671
210.1000,2.96055,244.685,0.635181
210.0000,1.20157,245.533,0.645799
209.9000,1.16341,244.302,0.63038
209.8000,0.172888,245.589,0.646492
209.7000,1.76917,243.717,0.623038
209.6000,4.41252,245.511,0.645516
209.5000,1.95244,246.523,0.658136
209.4000,1.76995,245.856,0.649831
209.3000,5.35425,246.429,0.656965
209.2000,1.86062,246.302,0.655383
209.1000,1.22336,246.225,0.654423
209.0000,0.844071,246.925,0.663141
208.9000,2.24704,247.225,0.666872
208.8000,4.33901,247.102,0.665338
208.7000,4.87996,246.679,0.660082
208.6000,1.33802,247.166,0.666141
208.5000,1.20866,247.125,0.665634
208.4000,-0.577525,246.404,0.656654
208.3000,2.01184,247.384,0.668842
208.2000,4.36201,247.749,0.67337
208.1000,0.360282,247.838,0.674479
208.0000,-0.0378023,248.14,0.678214
207.9000,2.2384,248.413,0.681594
207.8000,0.70452,248.086,0.677554
207.7000,2.28104,248.811,0.686525
207.6000,1.81613,248.969,0.688471
207.5000,0.260203,249.118,0.690318
207.4000,2.70559,249.052,0.689493
207.3000,3.17683,248.696,0.685097
207.2000,1.70916,249.393,0.693701
207.1000,-1.11836,249.529,0.695377
207.0000,1.50423,249.23,0.691688
206.9000,1.78417,250.103,0.702452
206.8000,-0.0462236,250.474,0.707008
206.7000,3.08558,251.451,0.719005
206.6000,1.90012,251.593,0.720739
206.5000,0.745372,249.658,0.696969
206.4000,2.80714,250.346,0.705434
206.3000,2.81742,251.561,0.720351
206.2000,1.17333,251.155,0.715367
206.1000,2.2703,251.932,0.724885
206.0000,-0.149742,252.037,0.726173
205.9000,5.06219,252.062,0.726478
205.8000,-0.0826974,251.532,0.71999
205.7000,5.25467,252.063,0.726492
205.6000,2.72525,252.624,0.733342
205.5000,0.67891,253.016,0.738122
205.4000,1.6074,252.953,0.737349
205.3000,5.00277,253.497,0.743972
205.2000,2.755,253.124,0.739434
205.1000,2.53664,253.245,0.74091
205.0000,-1.03837,254.514,0.756332
204.9000,0.988528,254.42,0.755191
204.8000,0.81055,254.03,0.75046
204.7000,1.63712,254.303,0.753775
204.6000,2.80095,254.269,0.753362
204.5000,2.53231,254.294,0.753665
204.4000,2.89578,254.203,0.752551
204.3000,0.509884,254.701,0.758598
204.2000,1.83363,255.822,0.772154
204.1000,3.59043,255.051,0.762839
204.0000,4.56338,254.271,0.753376
203.9000,1.67989,255.916,0.77329
203.8000,2.80343,255.109,0.763538
203.7000,1.36647,256.245,0.777268
203.6000,1.53303,255.861,0.772633
203.5000,1.14781,256.643,0.782061
203.4000,-1.7911,255.91,0.773221
203.3000,3.41444,257.534,0.792771
203.2000,1.03338,257.692,0.794675
203.1000,0.545898,257.124,0.787842
203.0000,-0.622789,257.469,0.791995
202.9000,3.00742,257.952,0.797788
202.8000,4.67123,258.058,0.799065
202.7000,-1.30434,258.121,0.799812
202.6000,2.57915,258.729,0.807098
202.5000,0.434912,259.155,0.812191
202.4000,1.75002,258.899,0.809131
202.3000,3.66687,259.342,0.814424
202.2000,0.724866,259.435,0.815533
202.1000,0.859569,259.521,0.816561
202.0000,4.89874,259.641,0.817994
201.9000,1.8977,259.536,0.816737
201.8000,1.14847,260.429,0.827375
201.7000,1.18056,260.209,0.824759
201.6000,1.93347,260.668,0.830218
201.5000,0.768793,260.744,0.831121
201.4000,1.37271,261.323,0.837997
201.3000,2.45077,261.443,0.839421
201.2000,0.441711,261.149,0.835939
201.1000,0.755244,262.473,0.851616
201.0000,3.60986,262.323,0.849848
200.9000,-0.505884,262.483,0.851737
200.8000,2.39048,262.226,0.848695
200.7000,-0.988282,263.303,0.861421
200.6000,4.65644,262.642,0.853611
200.5000,0.436973,263.318,0.861595
200.4000,1.01003,262.638,0.853571
200.3000,2.049,262.982,0.857625
200.2000,2.48563,264.607,0.876766
200.1000,-2.75258,263.852,0.867881
200.0000,1.7102,264.407,0.87441
199.9000,3.30289,264.383,0.874131
199.8000,-0.165418,264.894,0.88013
199.7000,-0.701279,264.889,0.880064
199.6000,-1.10412,265.555,0.887872
199.5000,-0.348383,265.695,0.889516
199.4000,2.96306,266.117,0.894445
199.3000,2.21959,266.102,0.894273
199.2000,2.96172,266.153,0.894869
199.1000,-1.55421,266.493,0.898839
199.0000,-1.50847,266.974,0.904456
198.9000,2.5932,266.889,0.903465
198.8000,-1.37582,266.876,0.903307
198.7000,2.38475,267.35,0.908825
198.6000,2.91326,267.767,0.913676
198.5000,1.02631,267.274,0.907941
198.4000,1.44875,267.659,0.912424
198.3000,5.40834,268.02,0.916626
198.2000,3.26159,267.769,0.913702
198.1000,2.47173,268.738,0.924949
198.0000,-0.589121,268.435,0.92144
197.9000,5.93583,268.037,0.916823
197.8000,-3.70499,268.975,0.927706
197.7000,3.74815,269.795,0.937183
197.6000,0.875526,268.825,0.92596
197.5000,0.160693,269.318,0.931668
197.4000,1.87949,270.22,0.942089
197.3000,5.29414,269.761,0.936791
197.2000,-1.37742,270.037,0.939984
197.1000,1.98731,270.657,0.947133
197.0000,1.5311,270.482,0.945121
196.9000,-2.75201,271.466,0.956444
196.8000,3.20998,271.072,0.951909
196.7000,6.39211,271.587,0.957837
196.6000,-2.78483,271.988,0.962444
196.5000,-1.02573,272.234,0.965264
196.4000,1.83912,272.133,0.964108
196.3000,4.0422,272.727,0.970913
196.2000,2.42727,273.315,0.97764
196.1000,1.92797,273.068,0.974816
196.0000,1.79053,273.654,0.981511
195.9000,7.73905,273.545,0.980269
195.8000,0.483632,274.651,0.992879
195.7000,4.23126,274.602,0.992325
195.6000,2.72793,275.07,0.997649
195.5000,3.85043,274.959,0.996386
195.4000,-0.145209,275.102,0.99801
195.3000,5.04201,275.475,1.00225
195.2000,0.714122,275.104,0.998035
195.1000,0.755494,275.818,1.00614
195.0000,1.13401,276.061,1.00889
194.9000,5.49781,276.2,1.01047
194.8000,2.64673,275.963,1.00779
194.7000,1.33021,277.305,1.02297
194.6000,1.36818,277.607,1.02638
194.5000,3.00093,277.186,1.02162
194.4000,0.150731,278.144,1.03244
194.3000,0.225956,278.447,1.03585
194.2000,-1.05108,278.424,1.03559
194.1000,1.99243,279.232,1.04467
194.0000,3.44949,279.948,1.0527
193.9000,1.17585,280.134,1.05479
193.8000,-2.64345,280.727,1.06142
193.7000,-1.13255,280.885,1.06319
193.6000,-1.82047,281.468,1.06969
193.5000,3.47875,282.948,1.08617
193.4000,-0.838883,282.27,1.07863
193.3000,3.72031,282.696,1.08337
193.2000,3.87514,283.099,1.08785
193.1000,5.68888,283.71,1.09462
193.0000,0.392987,284.298,1.10113
192.9000,2.35179,284.008,1.09792
192.8000,1.31075,284.502,1.10339
192.7000,0.923837,285.491,1.11431
192.6000,3.35513,286.475,1.12513
192.5000,0.564495,286.804,1.12876
192.4000,1.65426,288.597,1.14839
192.3000,-1.81991,288.348,1.14567
192.2000,-0.622643,289.47,1.15792
192.1000,2.06904,290.074,1.1645
192.0000,6.11913,290.492,1.16904
191.9000,-4.6995,290.85,1.17293
191.8000,2.8357,290.317,1.16713
191.7000,4.72763,291.693,1.18207
191.6000,1.19274,292.661,1.19253
191.5000,3.03203,294.715,1.21465
191.4000,0.248204,294.055,1.20755
191.3000,-0.472161,293.07,1.19695
191.2000,-0.47391,295.984,1.22825
191.1000,4.45802,296.737,1.23629
191.0000,-1.46302,297.292,1.24221
190.9000,-0.169807,298.401,1.25402
190.8000,2.73275,300.705,1.27842
190.7000,0.0786001,300.802,1.27944
190.6000,-2.98472,301.584,1.28769
190.5000,0.0822756,302.637,1.29876
190.4000,-3.46209,303.582,1.30867
190.3000,1.22149,305.083,1.32436
190.2000,0.488175,305.414,1.32781
190.1000,2.69028,306.523,1.33935
190.0000,3.91242,307.493,1.34941

##### Extended Information
[Comments]
Sample name,BA_EH_JP
Comment
User,HurleyPonticos
Division
Company,Saint Mary's College

[Detailed Information]
Creation date,9/27/2022 4:11 PM

Data array type,Linear data array * 3
Horizontal axis,Wavelength [nm]
Vertical axis(1),CD [mdeg]
Vertical axis(2),HT [V]
Vertical axis(3),Abs
Start,320 nm
End,190 nm
Data interval,0.1 nm
Data points,1301    

[Measurement Information]
Instrument name,J-1500
Model name,J-1500
Serial No.,B051061638

Detector,PM-539
Detector S/N,B051061638
  Lock-in amp.,X mode
  HT volt,Auto

Accessory,PTC-517
Accessory S/N,B026561646
  Temperature,22.02 C
  Control sensor,Holder
  Monitor sensor,Holder

Measurement date,9/27/2022 4:11 PM

CD Overload detect,1281
Photometric mode,CD, HT, Abs
Measure range,320 - 190 nm
Data pitch,0.1 nm
CD scale,20 mdeg/0.05 dOD
FL scale,20 mdeg/0.05 dOD
D.I.T.,8 msec
Bandwidth,2.00 nm
Start mode,Immediately
Scanning mode,Continuous
Scanning speed,100 nm/min
Baseline correction,None
Shutter control,Auto
No. of cycle,1/1
N2 Flowmeter,Manual

Solvent,NaPO4 buffer

