TITLE,BP_EH_JP
DATA TYPE,
ORIGIN,JASCO
OWNER,
DATE,22/09/27
TIME,17:34:36
SPECTROMETER/DATA SYSTEM,
LOCALE,1033
RESOLUTION,
DELTAX,-0.1
XUNITS,NANOMETERS
YUNITS,CD [mdeg]
Y2UNITS,HT [V]
Y3UNITS,ABSORBANCE
FIRSTX,  320.0000
LASTX,  190.0000
NPOINTS,    1301
FIRSTY,    -0.65459
MAXY,    59.52634
MINY,   -55.42971
XYDATA
320.0000,-0.654594,207.21,0.132867
319.9000,-0.467473,206.954,0.129185
319.8000,2.19116,207.375,0.135243
319.7000,2.00626,208.447,0.150604
319.6000,0.220033,207.264,0.133649
319.5000,1.49282,205.567,0.10918
319.4000,0.325614,206.198,0.118297
319.3000,1.62523,207.424,0.135943
319.2000,1.24706,205.504,0.108278
319.1000,1.23439,206.732,0.125989
319.0000,0.458007,206.335,0.120275
318.9000,0.149914,206.869,0.127963
318.8000,0.59963,205.306,0.105408
318.7000,0.0844338,207.677,0.139569
318.6000,1.52315,207.527,0.137423
318.5000,2.08947,206.284,0.11954
318.4000,2.533,206.974,0.129478
318.3000,-0.768673,206.707,0.12563
318.2000,1.52859,206.306,0.11985
318.1000,0.658977,208.091,0.145513
318.0000,0.512307,206.156,0.117692
317.9000,1.34915,206.906,0.1285
317.8000,1.08168,205.843,0.113177
317.7000,0.32019,207.594,0.138383
317.6000,2.41509,206.333,0.120242
317.5000,1.46991,206.312,0.119948
317.4000,1.28912,206.869,0.127963
317.3000,1.72565,205.995,0.11537
317.2000,-0.282652,205.614,0.109868
317.1000,-0.761082,206.849,0.127685
317.0000,1.71319,207.799,0.141324
316.9000,0.525957,207.068,0.130831
316.8000,1.20968,205.311,0.105474
316.7000,1.0264,206.533,0.123133
316.6000,1.90316,206.974,0.129478
316.5000,1.99884,206.368,0.120749
316.4000,1.28026,207.206,0.132818
316.3000,1.41072,206.243,0.118951
316.2000,0.265923,206.589,0.123933
316.1000,1.39829,206.797,0.126935
316.0000,1.40763,206.841,0.127571
315.9000,0.265035,206.136,0.117398
315.8000,1.31281,206.411,0.121369
315.7000,2.09295,206.811,0.127131
315.6000,2.7907,207.111,0.13145
315.5000,1.13428,206.068,0.116417
315.4000,1.56208,207.695,0.139829
315.3000,1.78275,206.729,0.125956
315.2000,1.65284,206.109,0.117022
315.1000,1.27586,206.2,0.11833
315.0000,2.35452,205.996,0.115386
314.9000,1.52698,206.011,0.115599
314.8000,2.30318,206.741,0.12612
314.7000,0.113856,207.192,0.132606
314.6000,0.660874,205.753,0.111867
314.5000,1.51302,207.331,0.134609
314.4000,2.23614,206.397,0.121174
314.3000,1.38863,205.857,0.113373
314.2000,-1.66291,204.497,0.0936749
314.1000,0.864607,205.592,0.10954
314.0000,1.72518,206.604,0.124145
313.9000,0.427414,206.427,0.121598
313.8000,0.247382,206.71,0.125679
313.7000,-0.249193,205.014,0.101173
313.6000,0.56433,205.317,0.105572
313.5000,0.730907,206.209,0.118461
313.4000,0.323985,205.272,0.104916
313.3000,1.41983,206.232,0.118788
313.2000,0.468737,206.809,0.127098
313.1000,-0.152689,206.735,0.126038
313.0000,1.69177,206.463,0.122121
312.9000,2.51356,206.665,0.125027
312.8000,2.10214,206.303,0.119817
312.7000,0.371987,206.027,0.115828
312.6000,1.49702,205.758,0.111949
312.5000,1.43484,206.794,0.126886
312.4000,0.358454,206.498,0.122627
312.3000,-0.151523,205.7,0.111113
312.2000,0.162912,206.497,0.122611
312.1000,2.2533,205.001,0.100992
312.0000,0.62703,207.556,0.137846
311.9000,2.37747,206.819,0.127245
311.8000,-1.01086,206.132,0.117349
311.7000,1.10711,205.881,0.113717
311.6000,-0.241911,204.539,0.0942841
311.5000,1.39064,205.834,0.113046
311.4000,1.43791,205.868,0.113537
311.3000,-0.0391229,205.755,0.111899
311.2000,1.03699,206.553,0.123411
311.1000,1.16214,206.316,0.119997
311.0000,1.56646,205.689,0.11095
310.9000,1.42797,205.489,0.108049
310.8000,2.32134,207.016,0.130082
310.7000,2.01981,206.436,0.121729
310.6000,2.38104,205.349,0.106032
310.5000,0.894629,204.587,0.0949751
310.4000,1.30381,205.601,0.109672
310.3000,1.6709,206.422,0.121533
310.2000,0.727767,204.603,0.0952055
310.1000,-0.922961,205.478,0.107901
310.0000,-0.216533,206.461,0.122088
309.9000,2.01763,206.392,0.121092
309.8000,-0.475414,205.95,0.114715
309.7000,-0.258149,206.022,0.115762
309.6000,2.55124,206.891,0.128289
309.5000,2.37255,206.885,0.128191
309.4000,0.423871,206.252,0.119082
309.3000,1.25756,206.89,0.128272
309.2000,0.861686,206.238,0.118869
309.1000,-0.318901,206.507,0.122758
309.0000,1.29366,205.333,0.105802
308.9000,-0.12946,206.204,0.118379
308.8000,1.22688,205.23,0.104309
308.7000,1.53713,206.071,0.116466
308.6000,1.47232,206.332,0.120226
308.5000,1.20841,205.412,0.106934
308.4000,2.30043,205.988,0.115272
308.3000,0.381926,206.096,0.116826
308.2000,1.90619,206.049,0.116155
308.1000,0.65019,206.319,0.120046
308.0000,2.13503,205.554,0.109
307.9000,1.10432,204.966,0.100483
307.8000,1.53713,206.061,0.116319
307.7000,-0.537884,206.398,0.12119
307.6000,0.921346,205.459,0.107623
307.5000,1.2618,205.706,0.111195
307.4000,-0.389984,205.957,0.114814
307.3000,0.136358,205.635,0.110163
307.2000,-1.53668,206.976,0.129511
307.1000,0.191693,205.867,0.11352
307.0000,0.112177,206.436,0.121729
306.9000,-1.15202,206.243,0.118951
306.8000,1.174,206.065,0.116384
306.7000,2.49313,205.036,0.101501
306.6000,0.617556,205.515,0.108426
306.5000,0.958367,205.866,0.113504
306.4000,0.965474,206.298,0.119736
306.3000,1.6613,206.466,0.12217
306.2000,0.788822,206.197,0.118281
306.1000,1.02492,206.19,0.118183
306.0000,1.36061,206.345,0.120422
305.9000,1.81799,206.066,0.1164
305.8000,-0.177069,206.066,0.1164
305.7000,0.0332634,205.585,0.109442
305.6000,-0.174762,205.89,0.113848
305.5000,0.908171,206.341,0.120357
305.4000,0.611397,206.236,0.118853
305.3000,1.99262,206.965,0.129348
305.2000,0.65525,205.227,0.10426
305.1000,2.91625,207.722,0.140219
305.0000,0.321725,206.317,0.120013
304.9000,1.26383,205.943,0.114617
304.8000,0.179774,206.256,0.119131
304.7000,1.34795,206.107,0.116989
304.6000,0.353573,206.753,0.126299
304.5000,0.146915,205.364,0.106245
304.4000,-0.489244,206.183,0.118085
304.3000,1.04852,205.766,0.112063
304.2000,0.549252,206.373,0.12083
304.1000,0.131333,206.618,0.124358
304.0000,0.0164848,206.986,0.129658
303.9000,0.434343,205.714,0.11131
303.8000,-0.031508,205.246,0.104539
303.7000,2.61423,206.655,0.12488
303.6000,1.69548,205.964,0.114928
303.5000,2.55733,205.841,0.113144
303.4000,-0.0604125,206.17,0.117888
303.3000,0.123103,206.615,0.124308
303.2000,0.835676,206.199,0.118314
303.1000,-0.680817,206.48,0.122366
303.0000,1.2632,205.996,0.115386
302.9000,-0.185146,206.1,0.116891
302.8000,-0.325059,205.903,0.114044
302.7000,-0.0940291,205.424,0.107114
302.6000,1.00088,206.648,0.124782
302.5000,1.61957,206.018,0.115697
302.4000,0.699667,205.705,0.111179
302.3000,-0.314117,205.297,0.105277
302.2000,1.26883,206.238,0.118869
302.1000,0.14983,205.925,0.114355
302.0000,-0.746377,205.937,0.114535
301.9000,1.42584,205.434,0.107262
301.8000,1.90064,206.466,0.12217
301.7000,0.960142,204.904,0.0995793
301.6000,1.5601,205.265,0.104818
301.5000,1.07924,205.515,0.108426
301.4000,1.4747,205.5,0.108213
301.3000,1.5706,206.49,0.122513
301.2000,1.40126,206.343,0.120389
301.1000,0.148879,205.266,0.104834
301.0000,1.01548,206.132,0.117349
300.9000,3.2381,206.063,0.116351
300.8000,1.22362,205.202,0.103899
300.7000,1.9173,206.103,0.116924
300.6000,1.54632,205.989,0.115288
300.5000,0.643061,205.91,0.114143
300.4000,2.02928,205.421,0.107065
300.3000,0.350972,205.457,0.10759
300.2000,0.2463,206.025,0.115795
300.1000,-0.301816,206.235,0.118837
300.0000,1.85782,205.589,0.109508
299.9000,-0.704252,206.294,0.119687
299.8000,2.24509,205.835,0.113062
299.7000,0.543983,204.745,0.0972779
299.6000,2.78003,205.688,0.110933
299.5000,0.584604,206.048,0.116139
299.4000,1.12805,206.375,0.120847
299.3000,0.655962,205.237,0.104407
299.2000,2.04084,206.488,0.12248
299.1000,2.27868,205.295,0.105244
299.0000,0.764337,205.866,0.113504
298.9000,-0.162259,205.385,0.106557
298.8000,1.07777,205.249,0.104588
298.7000,0.927687,205.779,0.112243
298.6000,0.962904,206.056,0.116253
298.5000,-0.450266,204.419,0.0925389
298.4000,1.79214,205.69,0.110966
298.3000,1.39782,205.943,0.114617
298.2000,0.649335,207.257,0.133551
298.1000,0.100195,204.377,0.0919298
298.0000,0.308261,205.903,0.114044
297.9000,1.24451,205.384,0.10654
297.8000,0.0646449,205.138,0.102979
297.7000,-0.45145,206.376,0.120863
297.6000,0.896675,206.006,0.115534
297.5000,1.18775,205.527,0.108606
297.4000,1.43896,205.368,0.106311
297.3000,0.575043,205.511,0.108377
297.2000,1.58883,204.882,0.099267
297.1000,0.272237,206.076,0.116531
297.0000,0.341527,204.788,0.0979028
296.9000,1.37544,206.202,0.118363
296.8000,0.558658,205.628,0.110065
296.7000,0.63585,205.012,0.10114
296.6000,1.72276,205.362,0.106212
296.5000,-0.09632,203.621,0.0809291
296.4000,0.602253,205.272,0.104916
296.3000,-0.0445491,207.257,0.133551
296.2000,2.0283,205.921,0.114306
296.1000,2.3028,205.574,0.109278
296.0000,0.908271,206.209,0.118461
295.9000,3.39641,206.221,0.118624
295.8000,0.679613,205.612,0.109835
295.7000,0.282873,205.232,0.104342
295.6000,2.78353,205.87,0.11357
295.5000,0.841503,205.593,0.109557
295.4000,0.0159582,205.983,0.11519
295.3000,1.58964,205.627,0.110049
295.2000,2.34834,206.267,0.119295
295.1000,0.278319,205.592,0.10954
295.0000,1.12397,205.119,0.1027
294.9000,2.33028,205.981,0.115173
294.8000,0.0916781,204.965,0.100467
294.7000,0.282195,205.646,0.110327
294.6000,0.890865,206.17,0.117888
294.5000,1.12978,206.571,0.123672
294.4000,2.28197,205.432,0.107229
294.3000,-0.501963,204.85,0.0987903
294.2000,-0.885743,205.835,0.113062
294.1000,-0.0924512,204.795,0.0980014
294.0000,-0.537535,205.63,0.110098
293.9000,0.517137,205.025,0.101337
293.8000,2.22204,204.598,0.0951396
293.7000,0.0511924,205.71,0.111244
293.6000,0.0126791,207.267,0.133697
293.5000,0.926472,206.576,0.123753
293.4000,0.171909,204.646,0.0958305
293.3000,-0.289641,204.547,0.0943992
293.2000,1.44718,206.349,0.120471
293.1000,2.46065,205.821,0.112849
293.0000,-1.5938,205.934,0.114486
292.9000,1.39762,206.154,0.11766
292.8000,2.6334,204.847,0.0987575
292.7000,-0.117557,205.613,0.109852
292.6000,1.42855,206.34,0.12034
292.5000,-0.313066,205.473,0.107819
292.4000,-0.779673,205.875,0.113635
292.3000,-0.605476,204.997,0.100926
292.2000,0.336363,204.903,0.0995629
292.1000,1.04458,205.34,0.1059
292.0000,2.3767,205.123,0.10275
291.9000,0.946509,206.33,0.12021
291.8000,-0.774514,205.245,0.104522
291.7000,-0.412247,205.014,0.101173
291.6000,0.37778,204.358,0.09165
291.5000,-0.746036,203.988,0.0862768
291.4000,-0.035158,204.627,0.0955673
291.3000,-0.435718,205.714,0.11131
291.2000,0.950895,204.963,0.100434
291.1000,-0.376379,205.644,0.110294
291.0000,-1.20628,204.326,0.0911887
290.9000,0.307612,205.828,0.112964
290.8000,0.141216,205.935,0.114503
290.7000,0.51726,205.813,0.112735
290.6000,1.12958,205.828,0.112964
290.5000,2.27411,206.523,0.122986
290.4000,-0.0444926,205.731,0.111556
290.3000,0.435101,204.595,0.0950901
290.2000,0.462913,206.665,0.125027
290.1000,0.941333,206.147,0.117561
290.0000,2.18434,205.713,0.111294
289.9000,-1.01213,204.938,0.100072
289.8000,-0.342786,205.916,0.114224
289.7000,0.740569,206.199,0.118314
289.6000,-0.0423088,205.587,0.109475
289.5000,1.48929,205.977,0.115108
289.4000,1.54413,206.352,0.12052
289.3000,2.31486,205.683,0.110868
289.2000,0.0666952,205.324,0.105671
289.1000,-0.0599549,205.464,0.107688
289.0000,1.52164,205.439,0.107327
288.9000,1.129,205.928,0.114404
288.8000,0.503965,205.172,0.103472
288.7000,0.283021,204.973,0.100581
288.6000,0.886168,206.093,0.116777
288.5000,-0.61582,206.536,0.123166
288.4000,1.08555,205.137,0.102963
288.3000,-1.13729,206.675,0.125174
288.2000,0.920491,206.171,0.117905
288.1000,0.867635,205.958,0.11483
288.0000,0.77024,206.008,0.11555
287.9000,1.17566,205.917,0.114241
287.8000,1.16242,205.761,0.111981
287.7000,0.180468,206.574,0.123721
287.6000,0.674704,205.748,0.111801
287.5000,-0.408544,206.19,0.118183
287.4000,-1.20197,205.567,0.10918
287.3000,0.99242,205.915,0.114208
287.2000,0.188749,205.121,0.102733
287.1000,0.12046,206.279,0.119474
287.0000,1.41088,205.393,0.106671
286.9000,0.66408,205.686,0.1109
286.8000,0.787283,206.296,0.119719
286.7000,0.507049,206.371,0.120798
286.6000,2.09772,205.867,0.11352
286.5000,0.827173,206.371,0.120798
286.4000,-0.549082,205.823,0.112882
286.3000,1.59213,206.351,0.120504
286.2000,1.3684,205.912,0.114175
286.1000,-0.226562,206.289,0.119605
286.0000,0.484134,205.792,0.11244
285.9000,2.29591,205.955,0.114797
285.8000,2.17323,206.283,0.119523
285.7000,-0.523497,206.312,0.119948
285.6000,1.43359,206.39,0.121075
285.5000,0.377328,206.095,0.116809
285.4000,0.0479925,205.791,0.112424
285.3000,-0.106645,206.242,0.118935
285.2000,0.218846,206.889,0.128256
285.1000,1.1943,205.932,0.114453
285.0000,2.60989,206.011,0.115599
284.9000,-0.804343,205.806,0.112636
284.8000,1.34798,205.415,0.106983
284.7000,1.92396,205.834,0.113046
284.6000,1.16017,206.707,0.12563
284.5000,1.09065,206.198,0.118297
284.4000,0.959471,206.236,0.118853
284.3000,-0.312791,204.889,0.0993655
284.2000,0.549301,205.966,0.114944
284.1000,1.14077,206.956,0.129218
284.0000,2.39566,206.132,0.117349
283.9000,1.22923,205.21,0.104013
283.8000,1.25705,205.933,0.11447
283.7000,-1.05095,206.522,0.12297
283.6000,0.458779,206.221,0.118624
283.5000,1.10356,205.477,0.107885
283.4000,0.649103,205.998,0.115419
283.3000,0.161189,205.487,0.108032
283.2000,0.213181,205.884,0.113766
283.1000,1.08184,206.294,0.119687
283.0000,1.60012,206.446,0.121876
282.9000,-0.853796,206.435,0.121712
282.8000,0.170687,206.057,0.11627
282.7000,-0.560377,205.995,0.11537
282.6000,0.642276,205.759,0.111965
282.5000,1.9469,206.412,0.121386
282.4000,1.0617,206.128,0.117284
282.3000,-0.318834,206.044,0.116073
282.2000,1.26149,206.313,0.119965
282.1000,0.959943,206.006,0.115534
282.0000,0.908806,206.699,0.125516
281.9000,-0.658077,206.072,0.116482
281.8000,0.707657,205.221,0.104178
281.7000,-0.280684,205.341,0.105917
281.6000,0.0241108,205.288,0.105146
281.5000,1.01908,205.809,0.112686
281.4000,1.0384,206.003,0.115484
281.3000,2.04926,205.725,0.111474
281.2000,1.26826,206.604,0.124145
281.1000,-1.01355,205.951,0.114732
281.0000,1.44757,204.988,0.100795
280.9000,1.21392,206.223,0.118657
280.8000,2.84046,205.744,0.111736
280.7000,0.84827,206.431,0.121664
280.6000,0.774853,206.207,0.118428
280.5000,0.89861,206.526,0.123035
280.4000,0.794568,206.56,0.123525
280.3000,0.0638577,206.104,0.11694
280.2000,0.304048,206.192,0.118215
280.1000,0.65296,206.402,0.121239
280.0000,1.60753,206.306,0.11985
279.9000,0.3782,205.665,0.110605
279.8000,1.4112,206.35,0.120487
279.7000,0.855852,206.466,0.12217
279.6000,1.6354,205.887,0.113815
279.5000,1.21374,207.161,0.132167
279.4000,0.165466,205.802,0.112587
279.3000,2.37439,205.904,0.114061
279.2000,0.963372,205.638,0.110212
279.1000,1.3451,205.781,0.112276
279.0000,1.75725,205.015,0.101189
278.9000,-0.241543,205.865,0.113488
278.8000,0.879501,206.926,0.128794
278.7000,0.134229,206.428,0.121615
278.6000,1.48572,206.692,0.125418
278.5000,0.744161,205.886,0.113799
278.4000,0.986353,207.403,0.13565
278.3000,1.22062,205.935,0.114503
278.2000,1.42912,206.285,0.119556
278.1000,-0.0836403,206.651,0.124831
278.0000,-0.491377,206.751,0.126266
277.9000,0.536541,205.877,0.113668
277.8000,0.376352,206.089,0.116727
277.7000,1.38053,206.532,0.123117
277.6000,-0.364538,207.059,0.130701
277.5000,-0.0660305,205.639,0.110229
277.4000,0.767356,205.984,0.115206
277.3000,1.96569,205.884,0.113766
277.2000,0.9097,206.426,0.121582
277.1000,1.12484,206.625,0.124455
277.0000,2.81329,207.032,0.13031
276.9000,1.09327,206.618,0.124358
276.8000,1.67937,205.58,0.109376
276.7000,1.5444,206.721,0.125842
276.6000,-2.35498,206.106,0.116973
276.5000,-0.266786,206.267,0.119295
276.4000,-1.07261,206.986,0.129658
276.3000,0.51498,205.211,0.10403
276.2000,0.712491,205.838,0.113095
276.1000,0.857001,206.065,0.116384
276.0000,1.58736,206.843,0.127587
275.9000,-0.578206,207.364,0.135081
275.8000,-0.49544,207.124,0.131629
275.7000,1.33619,206.606,0.124178
275.6000,2.59986,206.93,0.128843
275.5000,2.06839,206.503,0.122692
275.4000,1.97214,206.019,0.115713
275.3000,-2.7747,205.753,0.111867
275.2000,-0.527651,206.539,0.123215
275.1000,0.4267,206.023,0.115779
275.0000,0.337563,206.517,0.122905
274.9000,-0.756747,206.751,0.126266
274.8000,1.48755,205.959,0.114846
274.7000,1.35143,206.208,0.118444
274.6000,0.986628,206.351,0.120504
274.5000,-0.795233,205.989,0.115288
274.4000,0.279244,206.447,0.121892
274.3000,-1.28089,207.074,0.130913
274.2000,0.160447,206.431,0.121664
274.1000,-0.870229,205.917,0.114241
274.0000,-0.0778584,206.532,0.123117
273.9000,0.875246,206.245,0.118984
273.8000,1.95042,206.077,0.116548
273.7000,1.66826,206.18,0.118036
273.6000,1.04923,206.291,0.119638
273.5000,-0.0494246,206.434,0.121696
273.4000,0.448149,206.653,0.124863
273.3000,0.355782,206.349,0.120471
273.2000,-1.44615,206.162,0.117774
273.1000,-1.07856,206.479,0.122349
273.0000,1.50171,206.899,0.128403
272.9000,-0.482007,206.093,0.116777
272.8000,-0.54129,206.435,0.121712
272.7000,0.767697,205.495,0.108147
272.6000,-0.743565,206.956,0.129218
272.5000,3.91085,206.665,0.125027
272.4000,-0.363033,206.96,0.129283
272.3000,0.308252,206.964,0.129332
272.2000,0.0289677,206.085,0.116662
272.1000,-0.628062,207.572,0.138074
272.0000,-0.352577,206.49,0.122513
271.9000,-0.386585,206.394,0.121124
271.8000,-0.257065,206.217,0.118575
271.7000,1.00259,205.806,0.112636
271.6000,0.986437,207.252,0.133469
271.5000,-0.462895,206.529,0.123068
271.4000,-1.58755,206.511,0.122807
271.3000,0.679442,206.546,0.123313
271.2000,2.38673,205.717,0.111359
271.1000,-0.256528,206.894,0.128321
271.0000,0.467456,207.028,0.130261
270.9000,-0.52402,207.085,0.131075
270.8000,-0.539623,207.576,0.138123
270.7000,0.403221,206.709,0.125663
270.6000,0.879705,206.716,0.125761
270.5000,-0.582683,206.02,0.11573
270.4000,1.04745,206.966,0.129365
270.3000,-1.21273,206.017,0.115681
270.2000,0.610918,206.411,0.121369
270.1000,0.307742,206.769,0.126527
270.0000,2.28458,206.827,0.127359
269.9000,-0.778279,206.555,0.123443
269.8000,1.48554,207.32,0.134446
269.7000,0.456369,206.743,0.126152
269.6000,1.117,206.131,0.117333
269.5000,-0.976091,206.835,0.127473
269.4000,-0.348377,207.269,0.133713
269.3000,0.724268,206.796,0.126919
269.2000,-0.0397378,207.437,0.136138
269.1000,-0.625671,206.651,0.124831
269.0000,0.193228,206.763,0.126446
268.9000,0.931302,207.108,0.131401
268.8000,0.156417,206.878,0.128093
268.7000,-0.27788,207.244,0.133355
268.6000,0.995037,207.505,0.137114
268.5000,2.21926,206.776,0.126625
268.4000,0.47301,207.044,0.130489
268.3000,-0.367933,207.417,0.135846
268.2000,1.38112,206.818,0.127229
268.1000,-0.155497,207.488,0.13687
268.0000,2.33,207.728,0.1403
267.9000,-1.23606,207.401,0.135618
267.8000,0.573234,206.763,0.126446
267.7000,0.616211,207.34,0.134739
267.6000,-0.579522,207.886,0.142574
267.5000,-1.25782,207.04,0.130424
267.4000,0.130735,207.188,0.132557
267.3000,-0.221909,207.589,0.138318
267.2000,1.08395,206.899,0.128403
267.1000,-0.371569,207.296,0.134104
267.0000,1.10796,207.473,0.136642
266.9000,0.315989,207.732,0.140365
266.8000,1.10897,207.108,0.131401
266.7000,0.716224,206.507,0.122758
266.6000,0.784212,208.169,0.146632
266.5000,-0.042642,207.376,0.13526
266.4000,1.48173,207.305,0.134234
266.3000,1.3777,207.819,0.141617
266.2000,0.852392,207.597,0.138431
266.1000,0.556146,207.606,0.138561
266.0000,0.733809,208.411,0.150085
265.9000,-0.0161534,207.501,0.137049
265.8000,2.27557,207.017,0.130098
265.7000,0.321961,207.87,0.142347
265.6000,0.778847,207.222,0.133046
265.5000,0.193755,207.595,0.138399
265.4000,1.12582,208.055,0.144993
265.3000,0.173896,207.143,0.131906
265.2000,0.903836,208.356,0.149307
265.1000,-1.70949,207.792,0.141227
265.0000,-0.927672,208.989,0.158341
264.9000,2.37315,207.239,0.13329
264.8000,-0.458938,207.435,0.136106
264.7000,0.454023,207.9,0.14277
264.6000,0.419546,208.271,0.148092
264.5000,-0.796168,208.52,0.151641
264.4000,-1.68396,207.466,0.136545
264.3000,-1.01761,207.86,0.142201
264.2000,0.408915,208.304,0.148562
264.1000,-1.18304,208.387,0.149745
264.0000,0.339651,207.909,0.142899
263.9000,0.408099,208.083,0.145399
263.8000,0.627054,208.113,0.145821
263.7000,-0.122419,208.44,0.150507
263.6000,0.883701,208.309,0.148627
263.5000,0.166837,208.174,0.146697
263.4000,1.29741,208.016,0.144442
263.3000,-1.28198,208.224,0.147411
263.2000,-1.04113,208.599,0.152775
263.1000,-0.603265,207.384,0.135374
263.0000,-0.102415,208.312,0.148675
262.9000,0.0897448,208.831,0.156093
262.8000,-0.413556,208.838,0.15619
262.7000,-1.84269,208.011,0.14436
262.6000,-0.508494,208.546,0.152013
262.5000,0.296753,209.075,0.159569
262.4000,-1.33898,208.412,0.150102
262.3000,0.10393,208.881,0.156804
262.2000,-0.222843,208.172,0.146665
262.1000,0.759838,208.337,0.149032
262.0000,-0.425985,208.375,0.149567
261.9000,-0.034622,208.734,0.154701
261.8000,0.36005,208.718,0.154474
261.7000,1.87428,208.414,0.150134
261.6000,0.348383,208.932,0.157532
261.5000,-0.531028,207.914,0.14298
261.4000,-0.383578,208.389,0.149778
261.3000,0.0255893,209.824,0.170237
261.2000,0.637397,207.977,0.143873
261.1000,0.603862,209.666,0.167997
261.0000,1.47666,208.622,0.153098
260.9000,1.8237,210.03,0.173169
260.8000,1.43673,208.152,0.146389
260.7000,-0.732613,208.992,0.158389
260.6000,-0.308846,208.748,0.154912
260.5000,-0.194842,208.855,0.156432
260.4000,-0.675418,208.632,0.153244
260.3000,1.25672,208.237,0.147605
260.2000,-0.135389,209.152,0.160668
260.1000,1.37145,208.729,0.154636
260.0000,-0.341357,208.82,0.155931
259.9000,0.919993,209.374,0.163834
259.8000,1.22869,208.446,0.150588
259.7000,0.180836,209.1,0.159925
259.6000,1.0659,209.214,0.161557
259.5000,-0.595358,208.38,0.149648
259.4000,0.0940722,209.971,0.172332
259.3000,-0.897862,209.775,0.169544
259.2000,0.00814907,209.946,0.171977
259.1000,1.08426,209.67,0.168045
259.0000,0.0263356,209.346,0.16343
258.9000,-0.556702,210.519,0.180119
258.8000,0.527582,209.553,0.166384
258.7000,-1.3356,209.137,0.160458
258.6000,-0.856653,209.945,0.171961
258.5000,-0.00854772,209.969,0.1723
258.4000,0.201548,209.484,0.165399
258.3000,-1.42171,210.195,0.175519
258.2000,-1.59175,210.014,0.172944
258.1000,-1.20179,210.527,0.180232
258.0000,0.0749858,210.763,0.183573
257.9000,-0.887083,208.667,0.153746
257.8000,-0.181562,209.457,0.165012
257.7000,0.118983,209.894,0.171237
257.6000,0.931676,210.211,0.175745
257.5000,1.12259,210.089,0.174006
257.4000,-0.355091,209.454,0.16498
257.3000,-0.769689,210.111,0.174328
257.2000,0.527868,210.317,0.177241
257.1000,-0.265839,210.313,0.177193
257.0000,0.880658,209.909,0.171446
256.9000,0.3123,210.193,0.175487
256.8000,-0.225264,210.485,0.179637
256.7000,1.23796,210.049,0.173443
256.6000,-0.550071,209.074,0.159553
256.5000,1.54283,209.548,0.166319
256.4000,0.095633,210.809,0.184231
256.3000,0.655123,209.293,0.162688
256.2000,0.75426,210.399,0.178415
256.1000,0.862467,209.314,0.162978
256.0000,1.28794,209.458,0.165028
255.9000,0.602842,210.267,0.176533
255.8000,0.432929,209.912,0.171494
255.7000,1.03975,210.459,0.179267
255.6000,-1.44393,210.136,0.174683
255.5000,2.06379,210.681,0.182416
255.4000,1.08213,210.517,0.180087
255.3000,0.47869,210.531,0.18028
255.2000,-0.00261837,210.766,0.183621
255.1000,0.38338,210.638,0.181806
255.0000,-0.611876,210.858,0.184921
254.9000,-0.305399,210.516,0.180071
254.8000,0.0674661,209.999,0.172734
254.7000,1.3801,210.6,0.18126
254.6000,0.0571468,210.616,0.181485
254.5000,-0.987704,211.202,0.189781
254.4000,-0.111694,211.114,0.188547
254.3000,0.283731,210.499,0.17983
254.2000,-0.5338,210.789,0.183942
254.1000,2.63243,211.104,0.188402
254.0000,1.61734,210.754,0.183444
253.9000,0.840346,210.781,0.183829
253.8000,0.156381,210.644,0.181886
253.7000,1.4656,210.815,0.184311
253.6000,1.46543,211.553,0.194747
253.5000,-0.0543064,211.258,0.190583
253.4000,-1.03752,211.182,0.189509
253.3000,-1.71461,211.351,0.191896
253.2000,0.0889279,211.693,0.196731
253.1000,-0.0771741,211.103,0.188386
253.0000,0.692925,211.487,0.193818
252.9000,0.909146,210.511,0.180006
252.8000,1.0624,211.399,0.192569
252.7000,1.72283,210.522,0.180151
252.6000,0.757669,211.91,0.199786
252.5000,0.757994,212.485,0.207897
252.4000,0.252454,211.785,0.198027
252.3000,-0.708643,211.496,0.193946
252.2000,-0.207037,211.085,0.18813
252.1000,-0.897048,211.243,0.190374
252.0000,-0.890623,210.701,0.182689
251.9000,0.493392,211.647,0.196075
251.8000,0.8119,211.733,0.197291
251.7000,0.771494,211.012,0.187103
251.6000,-0.252608,211.451,0.193306
251.5000,1.861,212.54,0.208662
251.4000,-1.47711,212.348,0.205966
251.3000,1.11599,211.987,0.200872
251.2000,-1.07764,212.494,0.208024
251.1000,-1.76186,211.761,0.197691
251.0000,-1.22403,212.601,0.209523
250.9000,0.0968225,212.543,0.20871
250.8000,-1.32255,211.222,0.19007
250.7000,0.988964,212.871,0.213315
250.6000,0.257164,212.021,0.201352
250.5000,0.797113,211.816,0.198458
250.4000,0.334053,212.169,0.203444
250.3000,0.100199,212.27,0.204865
250.2000,-0.136242,212.225,0.204226
250.1000,-1.48193,212.014,0.201256
250.0000,-2.33451,211.544,0.194619
249.9000,0.407605,212.202,0.203907
249.8000,0.46799,211.589,0.195259
249.7000,-0.240609,212.328,0.205679
249.6000,0.51457,212.546,0.208758
249.5000,-0.0071409,213.307,0.219441
249.4000,-0.466795,212.085,0.202262
249.3000,0.283665,213.085,0.216324
249.2000,0.402436,212.73,0.21134
249.1000,-0.774939,211.624,0.195755
249.0000,0.255608,212.642,0.210097
248.9000,0.257932,212.152,0.203205
248.8000,0.180827,212.366,0.206222
248.7000,1.26714,212.348,0.205966
248.6000,0.688915,212.511,0.208264
248.5000,0.280673,211.774,0.197867
248.4000,0.19262,213.413,0.220936
248.3000,-0.308525,212.272,0.204897
248.2000,-0.221184,212.928,0.214127
248.1000,-1.20392,212.387,0.206509
248.0000,-0.652134,213.272,0.218949
247.9000,-0.388303,211.961,0.200505
247.8000,-0.866099,213.774,0.225986
247.7000,-1.08093,212.945,0.214366
247.6000,-0.59579,212.839,0.21287
247.5000,-0.754777,214.038,0.229682
247.4000,-0.047875,213.638,0.224081
247.3000,-0.540241,213.057,0.215942
247.2000,-0.876155,213.23,0.21836
247.1000,0.387912,214.061,0.230015
247.0000,-2.71304,213.963,0.228635
246.9000,-0.511703,213.317,0.219585
246.8000,0.670148,213.097,0.216499
246.7000,-1.90233,214.713,0.239118
246.6000,0.443805,213.684,0.224732
246.5000,-1.39201,213.244,0.218567
246.4000,-1.35009,214.171,0.231552
246.3000,-0.269577,213.451,0.22146
246.2000,-1.49581,213.488,0.221984
246.1000,-1.76431,214.507,0.236239
246.0000,-0.492109,214.135,0.231045
245.9000,0.806724,214.004,0.229206
245.8000,-2.53622,214.733,0.239403
245.7000,0.731817,214.341,0.233928
245.6000,-2.55926,213.629,0.223954
245.5000,-1.0411,214.073,0.230173
245.4000,-2.22732,214.013,0.229333
245.3000,-0.962836,213.889,0.227604
245.2000,-0.238971,213.631,0.223986
245.1000,-2.17086,214.306,0.233437
245.0000,-1.5185,214.703,0.238976
244.9000,-0.00997823,213.791,0.226224
244.8000,-0.909127,214.103,0.230601
244.7000,-3.4165,214.328,0.233738
244.6000,-2.59731,214.879,0.241442
244.5000,-2.23596,214.561,0.236999
244.4000,-2.43488,214.553,0.236888
244.3000,-1.00698,214.84,0.240889
244.2000,-2.55901,215.151,0.245233
244.1000,-1.77274,214.671,0.238533
244.0000,-3.44063,215.815,0.254472
243.9000,-2.78235,215.505,0.250155
243.8000,-0.263814,215.237,0.246432
243.7000,-2.03264,215.17,0.245485
243.6000,-2.11706,215.583,0.251242
243.5000,-2.07504,214.807,0.240431
243.4000,-2.33796,215.683,0.252629
243.3000,-1.70458,215.694,0.252787
243.2000,-2.03528,215.389,0.248547
243.1000,-4.91297,215.542,0.250675
243.0000,-2.93683,214.934,0.2422
242.9000,-2.31971,215.097,0.244475
242.8000,-4.9963,214.9,0.241726
242.7000,-1.48693,215.945,0.256267
242.6000,-2.22914,215.662,0.252346
242.5000,-2.27662,215.04,0.243685
242.4000,-4.04797,215.56,0.250927
242.3000,-2.48237,215.718,0.253118
242.2000,-1.09971,216.068,0.257982
242.1000,-5.89904,215.64,0.25203
242.0000,-4.03142,216.758,0.267549
241.9000,-2.8703,216.269,0.260765
241.8000,-3.92745,216.189,0.259664
241.7000,-4.80015,216.639,0.265901
241.6000,-4.42924,216.34,0.261755
241.5000,-5.05389,216.534,0.264441
241.4000,-4.73649,216.381,0.262321
241.3000,-4.00175,217.89,0.28319
241.2000,-4.88224,217.158,0.273084
241.1000,-4.22823,216.491,0.263845
241.0000,-5.74041,217.065,0.271799
240.9000,-3.81888,217.529,0.278203
240.8000,-7.51022,216.766,0.267659
240.7000,-4.76816,217.559,0.278625
240.6000,-4.42602,218.188,0.287296
240.5000,-5.22714,217.794,0.281862
240.4000,-4.05589,218.172,0.287078
240.3000,-5.66228,216.445,0.263216
240.2000,-5.41733,218.69,0.294203
240.1000,-4.92602,217.846,0.28258
240.0000,-6.69936,217.703,0.280611
239.9000,-5.97806,218.98,0.298188
239.8000,-5.67581,219.02,0.298733
239.7000,-6.62792,219.86,0.310257
239.6000,-7.11071,218.559,0.292396
239.5000,-6.29683,218.94,0.297643
239.4000,-7.27044,219.246,0.301842
239.3000,-8.06995,218.616,0.29319
239.2000,-5.95465,220.009,0.312288
239.1000,-7.65634,220.139,0.31407
239.0000,-6.20559,219.533,0.305773
238.9000,-7.32748,221.25,0.329219
238.8000,-7.88985,220.047,0.312815
238.7000,-7.45764,219.541,0.305881
238.6000,-7.79656,219.926,0.311156
238.5000,-8.88186,219.855,0.310179
238.4000,-6.30384,219.786,0.309233
238.3000,-8.28658,220.567,0.319921
238.2000,-7.83637,221.093,0.32709
238.1000,-10.5466,221.066,0.326719
238.0000,-8.21042,220.836,0.323584
237.9000,-10.1984,221.465,0.332149
237.8000,-8.03836,220.191,0.314782
237.7000,-12.4203,221.077,0.326874
237.6000,-11.3446,221.026,0.326179
237.5000,-9.68538,221.941,0.338618
237.4000,-10.1821,221.143,0.327769
237.3000,-10.2397,223.632,0.361519
237.2000,-8.76328,221.741,0.335909
237.1000,-11.5895,221.262,0.329389
237.0000,-11.3881,222.051,0.34011
236.9000,-11.3177,222.854,0.350999
236.8000,-9.67494,223.465,0.359255
236.7000,-12.7473,222.307,0.343585
236.6000,-12.7055,223.345,0.357633
236.5000,-12.7671,222.972,0.352593
236.4000,-11.5339,221.974,0.339064
236.3000,-12.4023,223.185,0.355474
236.2000,-13.9464,224.598,0.374524
236.1000,-13.8643,223.393,0.358291
236.0000,-13.4283,223.323,0.357342
235.9000,-13.3528,223.802,0.363812
235.8000,-14.1293,224.556,0.37396
235.7000,-14.6692,224.54,0.373747
235.6000,-16.0099,223.543,0.360311
235.5000,-13.0446,224.905,0.378651
235.4000,-12.8392,225.487,0.386466
235.3000,-13.9291,224.737,0.376398
235.2000,-15.148,225.553,0.387346
235.1000,-16.7402,225.511,0.386784
235.0000,-16.2819,225.416,0.385509
234.9000,-17.1539,225.947,0.392626
234.8000,-19.4847,225.436,0.385782
234.7000,-15.8483,226.199,0.395991
234.6000,-17.1625,226.405,0.398747
234.5000,-20.3135,226.599,0.401334
234.4000,-19.9348,226.785,0.403814
234.3000,-17.7411,227.19,0.409221
234.2000,-19.7747,227.521,0.413626
234.1000,-18.8578,227.03,0.407093
234.0000,-18.9196,227.152,0.408708
233.9000,-19.3594,227.438,0.412525
233.8000,-21.274,228.328,0.424344
233.7000,-20.3187,227.671,0.415616
233.6000,-21.4893,228.44,0.425832
233.5000,-18.068,228.167,0.422209
233.4000,-19.6142,229.096,0.434521
233.3000,-21.3915,229.759,0.443279
233.2000,-21.512,228.786,0.430411
233.1000,-22.155,230.165,0.448629
233.0000,-20.4063,228.391,0.425186
232.9000,-19.4071,229.482,0.439629
232.8000,-25.7372,229.955,0.445866
232.7000,-25.527,230.647,0.454985
232.6000,-23.9049,230.744,0.456252
232.5000,-21.6561,230.518,0.453285
232.4000,-23.1449,229.961,0.44594
232.3000,-23.537,230.073,0.44742
232.2000,-24.8979,230.594,0.454284
232.1000,-25.8427,231.633,0.46793
232.0000,-24.2929,231.868,0.471004
231.9000,-23.9762,232.273,0.476313
231.8000,-27.2894,232.34,0.477188
231.7000,-24.9373,232.202,0.475379
231.6000,-25.8123,232.38,0.477706
231.5000,-26.8404,232.35,0.477321
231.4000,-28.7505,232.996,0.485757
231.3000,-27.2903,232.9,0.4845
231.2000,-25.2348,232.585,0.480387
231.1000,-25.4249,232.954,0.485209
231.0000,-28.2717,233.167,0.487988
230.9000,-28.0387,233.43,0.491414
230.8000,-30.3439,233.457,0.491768
230.7000,-28.8676,234.228,0.50179
230.6000,-29.2667,234.361,0.503526
230.5000,-30.1834,234.078,0.499847
230.4000,-30.7814,233.675,0.4946
230.3000,-29.0238,233.828,0.496591
230.2000,-32.0649,234.577,0.50632
230.1000,-32.2985,234.025,0.499154
230.0000,-30.5103,235.28,0.515437
229.9000,-32.8342,234.912,0.510669
229.8000,-32.1256,235.14,0.513619
229.7000,-30.7965,235.524,0.518589
229.6000,-32.8219,236.199,0.52731
229.5000,-32.5285,235.762,0.521664
229.4000,-31.3793,236.359,0.529371
229.3000,-33.0949,235.6,0.51957
229.2000,-34.7495,236.334,0.529049
229.1000,-33.702,235.915,0.52364
229.0000,-33.1717,237.049,0.538256
228.9000,-35.5197,236.821,0.535326
228.8000,-35.2193,237.009,0.537746
228.7000,-35.8921,237.765,0.547455
228.6000,-36.8373,237.427,0.543121
228.5000,-33.8712,237.599,0.545318
228.4000,-34.8432,237.81,0.548036
228.3000,-35.3336,238.32,0.554571
228.2000,-37.8498,238.863,0.561514
228.1000,-38.6575,239.49,0.569514
228.0000,-37.6048,238.776,0.560399
227.9000,-35.7447,239.192,0.565711
227.8000,-35.5217,239.389,0.568228
227.7000,-38.7299,239.27,0.56671
227.6000,-35.9173,240.055,0.576718
227.5000,-36.9678,240.764,0.585735
227.4000,-37.5599,240.836,0.586641
227.3000,-38.919,240.566,0.583216
227.2000,-35.3969,241.426,0.594127
227.1000,-42.0919,241.554,0.595749
227.0000,-37.5195,241.748,0.598201
226.9000,-42.0351,241.892,0.600022
226.8000,-39.4343,242.115,0.602844
226.7000,-42.796,241.793,0.598775
226.6000,-40.0407,242.395,0.60638
226.5000,-41.1044,242.152,0.603317
226.4000,-42.5737,242.167,0.603503
226.3000,-42.1415,243.018,0.61424
226.2000,-42.9413,243.309,0.617907
226.1000,-40.9695,243.274,0.617465
226.0000,-43.1334,243.212,0.61668
225.9000,-41.6952,243.999,0.626583
225.8000,-45.1884,243.485,0.620117
225.7000,-41.2283,244.262,0.629882
225.6000,-45.3965,244.876,0.63758
225.5000,-43.1519,243.786,0.623907
225.4000,-38.3626,244.868,0.63748
225.3000,-45.0841,245.182,0.641408
225.2000,-44.3729,244.93,0.638246
225.1000,-46.5682,245.138,0.640855
225.0000,-46.39,245.428,0.644482
224.9000,-45.4086,246.032,0.652022
224.8000,-43.1185,245.299,0.642867
224.7000,-42.2726,246.331,0.655751
224.6000,-43.1732,246.768,0.661196
224.5000,-43.0407,246.806,0.661661
224.4000,-43.5514,246.457,0.657317
224.3000,-46.0317,247.44,0.669546
224.2000,-46.6998,246.441,0.65712
224.1000,-43.753,247.129,0.665676
224.0000,-46.5773,248.058,0.677203
223.9000,-45.4348,247.838,0.674479
223.8000,-47.4511,247.945,0.675799
223.7000,-44.3209,247.94,0.675743
223.6000,-48.2807,248.484,0.682477
223.5000,-48.554,248.424,0.681734
223.4000,-48.1355,248.623,0.684201
223.3000,-45.3618,248.794,0.686315
223.2000,-43.5064,249.057,0.689562
223.1000,-46.4236,249.963,0.700723
223.0000,-48.7111,250.525,0.707635
222.9000,-45.6928,249.422,0.694064
222.8000,-48.089,251.242,0.716436
222.7000,-46.4272,250.343,0.705406
222.6000,-46.0999,250.469,0.706952
222.5000,-49.768,251.301,0.717158
222.4000,-47.1152,251.314,0.717325
222.3000,-49.6693,251.539,0.720073
222.2000,-46.6524,252.164,0.727724
222.1000,-45.7454,252.954,0.737363
222.0000,-47.3615,251.859,0.723998
221.9000,-51.0902,253.333,0.741986
221.8000,-49.119,251.475,0.719296
221.7000,-49.2655,252.36,0.730119
221.6000,-48.3947,254.558,0.756867
221.5000,-46.593,254.552,0.756785
221.4000,-45.3066,253.712,0.74659
221.3000,-47.2528,254.05,0.750694
221.2000,-48.6355,253.813,0.747816
221.1000,-46.0727,253.761,0.747183
221.0000,-46.7361,254.371,0.7546
220.9000,-48.1445,255.21,0.764759
220.8000,-47.1229,255.623,0.769759
220.7000,-44.7848,255.223,0.764923
220.6000,-47.1162,255.865,0.772674
220.5000,-47.5276,256.887,0.784993
220.4000,-46.9835,256.647,0.782101
220.3000,-47.4924,256.061,0.77504
220.2000,-46.5584,256.06,0.775026
220.1000,-49.3624,256.396,0.779085
220.0000,-44.9984,257.573,0.793247
219.9000,-47.9369,258.066,0.79916
219.8000,-47.2565,256.903,0.785184
219.7000,-45.7291,258.428,0.803491
219.6000,-47.8053,258.239,0.801225
219.5000,-44.759,258.684,0.806556
219.4000,-49.2184,258.181,0.800532
219.3000,-49.6304,258.695,0.806692
219.2000,-45.7907,259.19,0.812611
219.1000,-48.3335,258.044,0.798889
219.0000,-45.1589,259.811,0.820021
218.9000,-47.8294,259.378,0.814857
218.8000,-48.7412,260.242,0.82515
218.7000,-46.3238,259.237,0.813166
218.6000,-46.5557,260.89,0.832858
218.5000,-48.3646,260.049,0.822856
218.4000,-47.7702,261.332,0.838104
218.3000,-47.47,260.915,0.833154
218.2000,-46.3247,260.876,0.832696
218.1000,-50.1703,261.912,0.84498
218.0000,-43.1605,262.326,0.849875
217.9000,-49.2274,261.001,0.834177
217.8000,-46.7164,262.184,0.848199
217.7000,-45.1382,262.354,0.85021
217.6000,-42.1982,262.548,0.8525
217.5000,-48.8816,262.381,0.850531
217.4000,-49.5302,263.209,0.860312
217.3000,-47.2248,263.802,0.867294
217.2000,-44.8583,264.117,0.871001
217.1000,-47.585,263.84,0.867748
217.0000,-48.1744,264.675,0.877564
216.9000,-47.0177,264.133,0.871187
216.8000,-47.8001,264.924,0.880476
216.7000,-46.7066,265.322,0.885152
216.6000,-47.9588,266.388,0.897609
216.5000,-46.7625,266.231,0.895783
216.4000,-46.9563,266.425,0.898045
216.3000,-46.8673,266.682,0.901047
216.2000,-49.4288,266.354,0.897212
216.1000,-48.2786,266.763,0.901986
216.0000,-41.8644,267.211,0.907215
215.9000,-46.9961,267.339,0.908706
215.8000,-47.9239,267.684,0.912714
215.7000,-46.9031,267.544,0.911093
215.6000,-47.3055,267.635,0.912147
215.5000,-45.6509,268.538,0.922637
215.4000,-48.6196,269.059,0.928677
215.3000,-45.1901,269.483,0.933581
215.2000,-48.9731,268.881,0.926617
215.1000,-49.2081,269.985,0.939382
215.0000,-46.3108,269.994,0.939487
214.9000,-42.9204,269.899,0.938388
214.8000,-46.0821,270.621,0.946715
214.7000,-45.146,271.478,0.956587
214.6000,-49.3395,271.212,0.953525
214.5000,-46.684,271.697,0.9591
214.4000,-46.5135,271.968,0.96221
214.3000,-44.8983,272.295,0.965966
214.2000,-46.147,271.94,0.961884
214.1000,-43.7596,272.37,0.966823
214.0000,-48.7701,272.443,0.967654
213.9000,-46.8382,273.519,0.979971
213.8000,-48.0422,272.511,0.968433
213.7000,-49.6434,273.678,0.981782
213.6000,-43.504,273.362,0.978171
213.5000,-48.6923,275.16,0.998666
213.4000,-47.0488,274.364,0.989614
213.3000,-43.894,275.085,0.997816
213.2000,-48.1307,275.246,0.999645
213.1000,-49.0622,274.99,0.996734
213.0000,-45.5685,275.514,1.0027
212.9000,-46.422,275.562,1.00324
212.8000,-48.4816,276.714,1.0163
212.7000,-45.7236,276.578,1.01476
212.6000,-47.8037,277.322,1.02316
212.5000,-45.8875,277.102,1.02068
212.4000,-49.2374,278.083,1.03175
212.3000,-46.8419,278.95,1.0415
212.2000,-47.039,278.581,1.03735
212.1000,-44.7891,279.251,1.04489
212.0000,-50.6179,279.516,1.04786
211.9000,-44.8272,279.738,1.05036
211.8000,-53.6515,280.62,1.06023
211.7000,-44.2759,280.64,1.06045
211.6000,-43.5755,280.623,1.06026
211.5000,-46.4065,281.761,1.07296
211.4000,-49.5255,282.275,1.07869
211.3000,-49.8952,282.57,1.08197
211.2000,-49.406,282.93,1.08597
211.1000,-53.2018,283.517,1.09249
211.0000,-49.7646,283.918,1.09693
210.9000,-49.7598,284.194,1.09998
210.8000,-49.0757,284.595,1.10441
210.7000,-52.6063,284.577,1.10421
210.6000,-44.5791,285.717,1.11679
210.5000,-51.1126,285.217,1.11128
210.4000,-50.1894,286.226,1.12241
210.3000,-48.603,286.606,1.12658
210.2000,-49.6056,287.068,1.13165
210.1000,-49.2236,287.659,1.13813
210.0000,-50.3127,287.661,1.13815
209.9000,-50.6656,288.281,1.14494
209.8000,-55.0776,288.753,1.1501
209.7000,-53.3275,289.838,1.16192
209.6000,-45.6181,291.307,1.17788
209.5000,-51.4002,291.249,1.17726
209.4000,-50.4076,291.872,1.18401
209.3000,-48.4652,292.687,1.19282
209.2000,-52.0597,292.898,1.19509
209.1000,-50.7499,293.038,1.19661
209.0000,-53.5524,293.425,1.20077
208.9000,-55.4244,294.996,1.21767
208.8000,-53.9628,295.484,1.22289
208.7000,-51.6212,295.957,1.22796
208.6000,-51.0232,295.964,1.22803
208.5000,-50.0227,296.346,1.23212
208.4000,-53.511,296.561,1.23442
208.3000,-46.7044,297.72,1.24678
208.2000,-55.4297,298.975,1.26011
208.1000,-50.7331,298.707,1.25727
208.0000,-46.5032,300.423,1.27544
207.9000,-49.3025,300.511,1.27637
207.8000,-48.8692,301.502,1.28683
207.7000,-49.7784,302.68,1.29921
207.6000,-51.0946,302.348,1.29572
207.5000,-42.1585,304.326,1.31646
207.4000,-45.0611,304.317,1.31636
207.3000,-48.8046,304.825,1.32166
207.2000,-48.8172,305.24,1.326
207.1000,-47.2149,306.255,1.33656
207.0000,-43.4757,306,1.33391
206.9000,-47.4617,308.815,1.36309
206.8000,-43.9659,307.943,1.35407
206.7000,-42.1198,309.632,1.37152
206.6000,-44.2289,309.549,1.37067
206.5000,-44.6173,310.88,1.38435
206.4000,-48.8244,312.344,1.39935
206.3000,-46.0362,313.975,1.416
206.2000,-52.0337,313.165,1.40775
206.1000,-51.048,314.581,1.42217
206.0000,-42.7157,315.653,1.43306
205.9000,-41.0059,315.742,1.43395
205.8000,-42.121,316.372,1.44033
205.7000,-33.8566,318.229,1.45908
205.6000,-40.0178,318.581,1.46263
205.5000,-36.3538,318.853,1.46536
205.4000,-35.8531,320.487,1.48175
205.3000,-38.6013,319.937,1.47625
205.2000,-40.1887,322.732,1.50416
205.1000,-36.0535,323.785,1.51463
205.0000,-31.5837,323.753,1.5143
204.9000,-32.9281,325.47,1.53132
204.8000,-31.4132,326.157,1.5381
204.7000,-30.0939,326.789,1.54433
204.6000,-32.4297,328.018,1.55642
204.5000,-28.6033,328.358,1.55975
204.4000,-28.8862,330.291,1.57867
204.3000,-23.353,331.055,1.58612
204.2000,-31.4673,332.263,1.59787
204.1000,-23.9884,333.232,1.60727
204.0000,-23.921,334.324,1.61784
203.9000,-24.4277,336.008,1.63407
203.8000,-24.0293,337.077,1.64435
203.7000,-20.2259,338.396,1.65699
203.6000,-21.3775,339.941,1.67173
203.5000,-17.496,340.503,1.67708
203.4000,-22.5222,342.184,1.69305
203.3000,-16.8326,343.024,1.701
203.2000,-17.6321,344.28,1.71287
203.1000,-17.8015,345.258,1.72208
203.0000,-12.4008,345.973,1.7288
202.9000,-12.7193,347.988,1.74767
202.8000,-15.1832,348.064,1.74838
202.7000,-9.95268,349.545,1.76219
202.6000,-7.71622,351.133,1.77695
202.5000,-4.84044,351.982,1.78481
202.4000,-7.01529,353.564,1.79943
202.3000,-7.26346,355.031,1.81293
202.2000,-8.16491,356.137,1.82308
202.1000,8.15617,357.236,1.83314
202.0000,-2.43286,360.179,1.85996
201.9000,-4.18196,361.39,1.87093
201.8000,4.83099,363.273,1.88794
201.7000,8.53666,364.706,1.90084
201.6000,0.804883,365.658,1.90938
201.5000,6.66932,368.089,1.93112
201.4000,3.45811,368.396,1.93386
201.3000,0.261378,370.826,1.95544
201.2000,16.0932,371.841,1.96443
201.1000,15.4545,373.279,1.97711
201.0000,10.5901,374.831,1.99077
200.9000,13.0427,375.919,2.00031
200.8000,21.9163,377.812,2.01686
200.7000,18.6648,378.338,2.02144
200.6000,17.0884,380.594,2.04104
200.5000,14.882,383.199,2.06356
200.4000,19.1533,384.414,2.07402
200.3000,19.1709,386.241,2.08969
200.2000,21.7723,387.37,2.09935
200.1000,20.6606,389.554,2.11796
200.0000,18.83,390.708,2.12775
199.9000,25.3309,392.744,2.14498
199.8000,17.8865,394.96,2.16365
199.7000,14.6999,396.013,2.17248
199.6000,29.149,397.813,2.18755
199.5000,26.4377,399.142,2.19863
199.4000,27.684,400.445,2.20947
199.3000,41.0735,402.291,2.22477
199.2000,27.684,404.276,2.24116
199.1000,30.7956,404.825,2.24568
199.0000,25.5818,407.61,2.26854
198.9000,28.5548,408.559,2.2763
198.8000,27.0766,411.483,2.3001
198.7000,27.4373,412.608,2.30923
198.6000,31.8575,415.164,2.32988
198.5000,33.1654,416.312,2.33911
198.4000,38.3403,418.726,2.35848
198.3000,39.8147,420.33,2.37128
198.2000,29.7526,422.393,2.3877
198.1000,41.1769,424.342,2.40315
198.0000,38.5243,425.735,2.41416
197.9000,44.6906,427.697,2.4296
197.8000,26.8132,428.443,2.43546
197.7000,40.0111,431.145,2.4566
197.6000,46.1599,432.66,2.46841
197.5000,38.3652,434.799,2.48502
197.4000,54.7693,435.898,2.49353
197.3000,41.4415,440.055,2.52555
197.2000,28.4556,440.653,2.53014
197.1000,44.2108,441.799,2.53891
197.0000,52.7034,444.224,2.5574
196.9000,53.5753,445.064,2.5638
196.8000,29.4057,447.803,2.58455
196.7000,31.7118,450.224,2.60282
196.6000,44.1405,451.956,2.61582
196.5000,34.1531,454.615,2.63572
196.4000,34.3369,455.194,2.64004
196.3000,42.381,458.358,2.66356
196.2000,44.6239,459.741,2.6738
196.1000,37.812,462.736,2.69588
196.0000,35.6399,464.636,2.70983
195.9000,42.4136,466.539,2.72375
195.8000,51.1594,468.163,2.73559
195.7000,35.4155,469.772,2.74729
195.6000,29.6375,471.645,2.76087
195.5000,59.5263,472.323,2.76577
195.4000,27.7494,475.945,2.79186
195.3000,34.1136,476.996,2.7994
195.2000,41.9979,479.061,2.81417
195.1000,49.4181,480.793,2.82652
195.0000,26.1136,481.651,2.83263
194.9000,47.211,483.026,2.84238
194.8000,46.9363,483.904,2.84861
194.7000,44.9517,485.593,2.86055
194.6000,44.3591,487.315,2.87269
194.5000,38.3093,488.855,2.88351
194.4000,27.9146,491.321,2.90078
194.3000,38.8631,492.77,2.9109
194.2000,34.8118,493.92,2.91891
194.1000,33.9933,495.966,2.93313
194.0000,41.95,498.501,2.95067
193.9000,37.6776,500.969,2.96767
193.8000,30.1302,502.798,2.98022
193.7000,29.7241,504,2.98846
193.6000,38.498,506.061,3.00253
193.5000,48.4103,506.797,3.00755
193.4000,39.6702,508.286,3.01767
193.3000,36.8076,509.317,3.02467
193.2000,36.6094,511.17,3.03721
193.1000,37.1789,512.651,3.04721
193.0000,36.7353,514.511,3.05974
192.9000,34.646,515.918,3.06918
192.8000,32.2722,517.354,3.0788
192.7000,23.2682,520.177,3.09764
192.6000,29.7089,521.559,3.10684
192.5000,26.2883,522.521,3.11323
192.4000,26.9781,524.563,3.12675
192.3000,51.5293,526.178,3.13742
192.2000,40.765,529.095,3.15661
192.1000,36.4119,528.846,3.15498
192.0000,32.6162,531.57,3.17283
191.9000,24.3657,531.729,3.17387
191.8000,12.0173,534.678,3.1931
191.7000,17.9866,536.228,3.20317
191.6000,44.2749,539.149,3.22209
191.5000,28.6886,539.118,3.22189
191.4000,19.0428,541.073,3.2345
191.3000,26.3541,543.496,3.25008
191.2000,35.3783,545.025,3.25988
191.1000,21.8522,547.662,3.27673
191.0000,28.3695,550.069,3.29205
190.9000,25.1459,551.594,3.30172
190.8000,29.5713,554.351,3.31915
190.7000,38.421,557.4,3.33835
190.6000,16.8012,558.591,3.34582
190.5000,36.6774,561.313,3.36285
190.4000,13.1443,563.214,3.3747
190.3000,18.7252,565.104,3.38645
190.2000,21.4488,567.47,3.40112
190.1000,4.42222,569.383,3.41294
190.0000,33.027,570.881,3.42217

##### Extended Information
[Comments]
Sample name,BP_EH_JP
Comment
User,HurleyPonticos
Division
Company,Saint Mary's College

[Detailed Information]
Creation date,9/27/2022 4:34 PM

Data array type,Linear data array * 3
Horizontal axis,Wavelength [nm]
Vertical axis(1),CD [mdeg]
Vertical axis(2),HT [V]
Vertical axis(3),Abs
Start,320 nm
End,190 nm
Data interval,0.1 nm
Data points,1301    

[Measurement Information]
Instrument name,J-1500
Model name,J-1500
Serial No.,B051061638

Detector,PM-539
Detector S/N,B051061638
  Lock-in amp.,X mode
  HT volt,Auto

Accessory,PTC-517
Accessory S/N,B026561646
  Temperature,21.93 C
  Control sensor,Holder
  Monitor sensor,Holder

Measurement date,9/27/2022 4:34 PM

CD Overload detect,1049
Photometric mode,CD, HT, Abs
Measure range,320 - 190 nm
Data pitch,0.1 nm
CD scale,20 mdeg/0.05 dOD
FL scale,20 mdeg/0.05 dOD
D.I.T.,8 msec
Bandwidth,2.00 nm
Start mode,Immediately
Scanning mode,Continuous
Scanning speed,100 nm/min
Baseline correction,None
Shutter control,Auto
No. of cycle,1/1
N2 Flowmeter,Manual

Solvent,NaPO4 buffer

