TITLE,BP_EH_JP
DATA TYPE,
ORIGIN,JASCO
OWNER,
DATE,22/09/27
TIME,17:32:52
SPECTROMETER/DATA SYSTEM,
LOCALE,1033
RESOLUTION,
DELTAX,-0.1
XUNITS,NANOMETERS
YUNITS,CD [mdeg]
Y2UNITS,HT [V]
Y3UNITS,ABSORBANCE
FIRSTX,  320.0000
LASTX,  190.0000
NPOINTS,    1301
FIRSTY,     1.11918
MAXY,    59.86889
MINY,   -56.41994
XYDATA
320.0000,1.11918,206.129,0.1173
319.9000,1.60241,206.447,0.121892
319.8000,1.3796,206.123,0.117218
319.7000,0.320643,207.215,0.132948
319.6000,0.795191,208.027,0.144588
319.5000,0.531657,205.926,0.114371
319.4000,1.41875,206.124,0.117234
319.3000,1.35011,207.02,0.130147
319.2000,1.03675,206.912,0.128582
319.1000,0.266795,207.509,0.137163
319.0000,0.211776,206.715,0.125745
318.9000,3.25374,206.591,0.123966
318.8000,0.52347,207.02,0.130147
318.7000,2.5605,206.767,0.126495
318.6000,1.30794,206.575,0.123737
318.5000,1.15486,205.425,0.107131
318.4000,-0.606079,206.708,0.125646
318.3000,0.417093,207.67,0.139472
318.2000,1.62541,206.778,0.126658
318.1000,2.66047,207.117,0.131532
318.0000,0.58492,206.434,0.121696
317.9000,-0.737327,206.794,0.126886
317.8000,3.01611,206.044,0.116073
317.7000,-0.973983,207.099,0.131271
317.6000,1.37553,207.57,0.138041
317.5000,1.82125,206.555,0.123443
317.4000,0.617575,207.081,0.13101
317.3000,0.947634,206.39,0.121075
317.2000,1.46367,206.766,0.126479
317.1000,1.65017,206.113,0.117071
317.0000,0.525071,207.033,0.130326
316.9000,1.41841,207.088,0.131124
316.8000,1.72157,207.143,0.131906
316.7000,1.52083,206.576,0.123753
316.6000,1.84682,206.691,0.125402
316.5000,0.0411172,207.389,0.135439
316.4000,-0.150571,206.232,0.118788
316.3000,1.80688,205.952,0.114748
316.2000,0.305034,206.284,0.11954
316.1000,2.05464,206.548,0.123345
316.0000,0.226305,206.771,0.12656
315.9000,0.334396,206.19,0.118183
315.8000,0.894675,206.363,0.120684
315.7000,0.394198,206.439,0.121778
315.6000,2.69785,206.69,0.125385
315.5000,-0.295955,206.019,0.115713
315.4000,0.0815751,206.66,0.124961
315.3000,-0.525278,205.408,0.106885
315.2000,1.0795,206.743,0.126152
315.1000,1.74662,206.252,0.119082
315.0000,1.70326,208.345,0.149145
314.9000,0.590124,206.129,0.1173
314.8000,0.785757,206.456,0.122023
314.7000,1.22604,206.551,0.123394
314.6000,1.80314,206.702,0.125565
314.5000,-0.824241,206.611,0.124259
314.4000,1.94935,206.255,0.119115
314.3000,2.20719,206.318,0.12003
314.2000,-0.0595683,206.712,0.125712
314.1000,0.840808,207.442,0.136203
314.0000,2.11217,206.525,0.123019
313.9000,-0.189518,205.751,0.111851
313.8000,1.31762,205.366,0.106278
313.7000,1.71348,206.177,0.118003
313.6000,0.0618796,206.282,0.119507
313.5000,-0.44749,206.14,0.117463
313.4000,2.01685,206.206,0.118412
313.3000,0.784205,205.408,0.106885
313.2000,1.09968,205.694,0.111015
313.1000,1.53942,206.628,0.124504
313.0000,2.66582,207.571,0.138057
312.9000,1.57743,206.426,0.121582
312.8000,1.48734,206.839,0.127539
312.7000,2.43295,206.795,0.126903
312.6000,0.453499,207.061,0.130733
312.5000,1.35538,206.431,0.121664
312.4000,-1.01714,205.531,0.108656
312.3000,1.93196,206.145,0.117529
312.2000,1.48761,205.379,0.106458
312.1000,1.31867,205.219,0.104145
312.0000,1.1988,206.191,0.118199
311.9000,0.878684,206.308,0.119883
311.8000,0.360239,207.039,0.130408
311.7000,0.835082,206.665,0.125027
311.6000,0.454091,205.602,0.109688
311.5000,0.833123,205.095,0.102355
311.4000,0.563369,205.169,0.103423
311.3000,0.960656,206.001,0.115452
311.2000,0.339575,206.523,0.122986
311.1000,1.13148,206.368,0.120749
311.0000,0.662452,206.343,0.120389
310.9000,0.63904,206.887,0.128223
310.8000,0.705379,205.347,0.105999
310.7000,-0.267439,205.949,0.114699
310.6000,0.915053,205.775,0.112194
310.5000,-0.366729,206.289,0.119605
310.4000,1.07343,206.528,0.123052
310.3000,2.8169,206.628,0.124504
310.2000,2.38475,205.698,0.11108
310.1000,-0.263958,206.644,0.124733
310.0000,1.41461,205.375,0.106409
309.9000,1.27176,205.11,0.102569
309.8000,0.738287,206.121,0.117186
309.7000,2.39431,204.58,0.0948764
309.6000,1.756,205.166,0.103373
309.5000,0.143136,205.319,0.105589
309.4000,1.03935,205.784,0.112325
309.3000,0.349445,207.297,0.13412
309.2000,1.36201,205.739,0.11167
309.1000,1.02995,206.75,0.12625
309.0000,-0.0236746,205.277,0.104982
308.9000,1.10384,207.274,0.133795
308.8000,1.37627,207.03,0.130277
308.7000,0.485262,207.24,0.133306
308.6000,0.139682,206.848,0.127669
308.5000,0.603299,206.352,0.12052
308.4000,1.62899,205.908,0.11411
308.3000,0.768038,206.464,0.122137
308.2000,3.17416,206.703,0.125581
308.1000,0.658701,207.649,0.139179
308.0000,0.708892,206.394,0.121124
307.9000,0.981277,206.145,0.117529
307.8000,0.683665,206.32,0.120063
307.7000,0.430906,204.37,0.0918311
307.6000,0.43479,206.568,0.123639
307.5000,1.12955,205.978,0.115125
307.4000,1.7396,206.857,0.1278
307.3000,1.34494,205.626,0.110032
307.2000,2.57473,205.987,0.115255
307.1000,2.79014,205.841,0.113144
307.0000,2.19507,205.868,0.113537
306.9000,0.471138,205.279,0.105014
306.8000,1.97448,207.994,0.144117
306.7000,1.14668,206.805,0.12705
306.6000,1.09479,206.503,0.122692
306.5000,2.43303,207.403,0.13565
306.4000,1.53425,205.993,0.115337
306.3000,0.781305,206.312,0.119948
306.2000,2.84789,207.125,0.131646
306.1000,-0.91228,206.371,0.120798
306.0000,2.52834,204.942,0.100138
305.9000,0.630094,205.311,0.105474
305.8000,0.353133,205.732,0.111572
305.7000,0.637292,205.606,0.109753
305.6000,1.218,206.015,0.115664
305.5000,2.3259,205.879,0.1137
305.4000,2.78692,206.093,0.116777
305.3000,0.461343,206.491,0.122529
305.2000,0.763445,206.853,0.127734
305.1000,0.548485,205.944,0.114634
305.0000,1.93775,205.16,0.103291
304.9000,1.72492,205.765,0.112047
304.8000,0.934078,206.278,0.119458
304.7000,0.842863,205.882,0.113733
304.6000,1.28893,206.063,0.116351
304.5000,1.22243,206.726,0.125908
304.4000,0.247007,206.732,0.125989
304.3000,1.45772,207.405,0.135666
304.2000,2.10435,205.869,0.113553
304.1000,1.01546,205.896,0.113946
304.0000,2.07425,205.698,0.11108
303.9000,0.638716,206.874,0.128044
303.8000,-0.243815,206.166,0.11784
303.7000,-0.767733,205.872,0.113586
303.6000,0.108595,205.725,0.111474
303.5000,0.404238,205.81,0.112702
303.4000,0.64237,205.566,0.109164
303.3000,0.518268,206.202,0.118363
303.2000,0.348852,204.776,0.0977217
303.1000,0.685853,205.927,0.114388
303.0000,-0.93166,206.247,0.119
302.9000,1.20868,206.279,0.119474
302.8000,1.75902,206.258,0.119164
302.7000,0.976743,206.933,0.128892
302.6000,2.20481,206.942,0.129022
302.5000,1.91821,206.051,0.116171
302.4000,1.25631,205.937,0.114535
302.3000,1.07104,205.857,0.113373
302.2000,1.04996,205.929,0.114421
302.1000,0.931129,204.955,0.100319
302.0000,0.127234,206.08,0.116597
301.9000,2.16596,205.524,0.108557
301.8000,1.97922,205.552,0.108967
301.7000,2.59296,205.976,0.115092
301.6000,0.732538,205.455,0.107557
301.5000,1.70709,206.089,0.116727
301.4000,1.09717,204.146,0.0885687
301.3000,1.09595,206.085,0.116662
301.2000,0.987888,205.704,0.111162
301.1000,1.28002,206.255,0.119115
301.0000,0.757209,206.325,0.120128
300.9000,2.80664,205.995,0.11537
300.8000,0.482902,206.113,0.117071
300.7000,0.357404,205.795,0.112473
300.6000,-0.777592,204.827,0.0984615
300.5000,-0.530115,204.721,0.0969327
300.4000,1.76496,205.143,0.103045
300.3000,1.01397,205.281,0.105047
300.2000,0.884847,205.848,0.113242
300.1000,1.37219,206.038,0.115991
300.0000,0.836024,205.867,0.11352
299.9000,-0.367678,204.787,0.0978862
299.8000,1.44365,205.327,0.105704
299.7000,0.579549,206.064,0.116368
299.6000,1.34454,206.264,0.119245
299.5000,0.457139,205.051,0.101715
299.4000,-0.407811,205.722,0.111424
299.3000,1.10548,205.872,0.113586
299.2000,0.225448,205.322,0.105638
299.1000,1.18188,205.572,0.109262
299.0000,1.02525,205.144,0.103061
298.9000,1.27524,204.933,0.100006
298.8000,0.443575,205.828,0.112964
298.7000,1.4847,206.258,0.119164
298.6000,1.12713,205.77,0.112112
298.5000,0.300275,205.739,0.11167
298.4000,0.0726546,206.252,0.119082
298.3000,0.0315049,205.193,0.103767
298.2000,1.71596,206.295,0.119703
298.1000,0.540907,206.498,0.122627
298.0000,1.30436,206.284,0.11954
297.9000,0.786992,207.248,0.133421
297.8000,1.05001,205.866,0.113504
297.7000,1.54102,204.496,0.0936585
297.6000,1.17706,205.008,0.101091
297.5000,0.0602909,205.972,0.115043
297.4000,0.166631,206.015,0.115664
297.3000,-0.629558,205.149,0.103127
297.2000,-0.592845,205.259,0.104719
297.1000,2.43675,205.737,0.111637
297.0000,0.707293,205.44,0.107344
296.9000,1.58854,205.856,0.113357
296.8000,1.88184,205.046,0.101633
296.7000,0.304106,205.89,0.113848
296.6000,1.64106,206.359,0.120618
296.5000,0.998891,205.602,0.109688
296.4000,1.58552,204.818,0.0983302
296.3000,0.0469531,205.55,0.108934
296.2000,0.792924,205.396,0.106704
296.1000,1.27477,205.678,0.110786
296.0000,0.678016,205.208,0.103981
295.9000,-0.191109,204.649,0.0958799
295.8000,0.381574,205.893,0.113897
295.7000,1.80823,206.262,0.119229
295.6000,0.95246,206.431,0.121664
295.5000,-0.572633,205.55,0.108934
295.4000,0.918106,204.889,0.0993655
295.3000,1.96133,205.77,0.112112
295.2000,0.278089,205.31,0.105458
295.1000,1.51256,205.401,0.106786
295.0000,1.01495,205.425,0.107131
294.9000,0.336379,205.044,0.101616
294.8000,-0.967812,205.415,0.106983
294.7000,0.245746,205.165,0.103357
294.6000,0.672592,205.558,0.109049
294.5000,0.851422,204.872,0.099119
294.4000,1.36256,205.899,0.113979
294.3000,1.08296,205.172,0.103472
294.2000,-1.41857,206.158,0.117725
294.1000,0.661776,206.651,0.124831
294.0000,1.37729,205.254,0.104654
293.9000,0.905387,204.843,0.0986917
293.8000,0.737677,205.182,0.103603
293.7000,2.25806,205.375,0.106409
293.6000,-0.344621,205.061,0.101863
293.5000,0.880615,205.706,0.111195
293.4000,2.53966,204.237,0.0898872
293.3000,-0.482449,205.703,0.111146
293.2000,0.908692,205.978,0.115125
293.1000,-0.492584,206.662,0.124994
293.0000,2.35522,205.243,0.10449
292.9000,1.22062,205.117,0.102668
292.8000,0.230591,204.434,0.0927531
292.7000,0.772156,205.08,0.102126
292.6000,-0.0331451,205.047,0.101649
292.5000,2.01848,205.665,0.110605
292.4000,0.668527,205.366,0.106278
292.3000,1.32762,204.361,0.0916992
292.2000,1.12227,205.967,0.114961
292.1000,-0.0234435,205.321,0.105622
292.0000,0.844034,204.863,0.0989877
291.9000,-1.62426,205.108,0.102536
291.8000,1.15358,205.78,0.11226
291.7000,1.95505,205.208,0.103981
291.6000,0.580982,205.623,0.109999
291.5000,1.18615,205.05,0.101699
291.4000,-0.0774058,205.285,0.105097
291.3000,-1.01666,204.975,0.100615
291.2000,1.74114,205.18,0.103587
291.1000,-0.120195,205.131,0.102864
291.0000,2.36773,204.647,0.0958472
290.9000,1.07606,206.177,0.118003
290.8000,0.18754,205.727,0.11149
290.7000,0.19773,205.358,0.106163
290.6000,1.7868,204.768,0.0976068
290.5000,0.698896,205.234,0.104358
290.4000,1.37506,205.228,0.104276
290.3000,-0.372025,204.195,0.0892776
290.2000,0.416326,204.743,0.0972452
290.1000,-0.386623,205.176,0.103521
290.0000,1.62626,205.713,0.111294
289.9000,0.908899,205.217,0.104112
289.8000,0.533114,205.111,0.102585
289.7000,1.12895,205.132,0.102881
289.6000,1.75302,205.473,0.107819
289.5000,0.631733,203.648,0.0813253
289.4000,-0.325105,205.995,0.11537
289.3000,1.06002,205.619,0.109934
289.2000,2.30604,206.148,0.117578
289.1000,1.18555,206.298,0.119736
289.0000,2.04916,205.964,0.114928
288.9000,1.13022,205.653,0.110425
288.8000,0.26675,205.824,0.112898
288.7000,0.409197,206.215,0.118542
288.6000,1.13169,205.876,0.113652
288.5000,0.90277,205.652,0.110409
288.4000,3.18916,205.626,0.110032
288.3000,-0.831108,204.099,0.0878929
288.2000,-0.0499343,206.335,0.120275
288.1000,0.593252,205.293,0.105212
288.0000,1.33146,206.07,0.11645
287.9000,1.47724,206.649,0.124798
287.8000,0.48697,205.96,0.114862
287.7000,0.758973,205.593,0.109557
287.6000,-0.545217,205.342,0.105933
287.5000,2.198,205.833,0.113029
287.4000,0.251607,205.715,0.111326
287.3000,1.1489,206.273,0.119376
287.2000,-0.693665,205.834,0.113046
287.1000,0.936918,205.523,0.108541
287.0000,1.91976,205.545,0.108868
286.9000,1.85317,206.216,0.118559
286.8000,1.00538,205.9,0.113995
286.7000,0.405462,205.55,0.108934
286.6000,0.928568,205.256,0.104686
286.5000,1.36147,206.626,0.124472
286.4000,0.317938,206.75,0.12625
286.3000,1.66979,206.736,0.126054
286.2000,0.629004,206.026,0.115812
286.1000,0.805914,205.538,0.10877
286.0000,0.916904,205.575,0.109294
285.9000,-0.115441,206.558,0.123492
285.8000,0.47615,205.872,0.113586
285.7000,0.958066,205.45,0.107491
285.6000,1.6869,206.066,0.1164
285.5000,1.73649,206.709,0.125663
285.4000,0.0845507,206.667,0.125059
285.3000,0.340451,206.196,0.118265
285.2000,1.82768,205.721,0.111408
285.1000,1.05616,205.705,0.111179
285.0000,1.12506,205.93,0.114437
284.9000,0.772886,206.579,0.123786
284.8000,0.533799,205.8,0.112554
284.7000,-0.122324,205.372,0.10636
284.6000,-0.264539,206.465,0.122154
284.5000,0.129757,206.037,0.115975
284.4000,0.977197,205.268,0.10485
284.3000,-0.979453,205.008,0.101091
284.2000,0.533006,204.804,0.0981328
284.1000,1.68477,207.313,0.134348
284.0000,1.01805,207.314,0.134365
283.9000,0.456496,206.993,0.129756
283.8000,-0.7529,205.646,0.110327
283.7000,0.769336,205.117,0.102668
283.6000,-0.7448,207.034,0.130342
283.5000,-0.474068,205.927,0.114388
283.4000,0.517654,206.021,0.115746
283.3000,1.43866,206.065,0.116384
283.2000,1.31727,207.049,0.130554
283.1000,0.302673,206.847,0.127653
283.0000,0.0903297,205.52,0.108508
282.9000,0.482347,205.33,0.105753
282.8000,0.46509,205.563,0.109131
282.7000,0.171481,204.596,0.0951068
282.6000,0.211977,205.431,0.107213
282.5000,0.29444,206.006,0.115534
282.4000,-0.815561,205.334,0.105818
282.3000,-1.02795,206.139,0.117447
282.2000,0.357117,206.368,0.120749
282.1000,0.440263,205.858,0.113389
282.0000,0.244091,207.186,0.132525
281.9000,0.492452,206.234,0.118821
281.8000,1.04987,206.073,0.116498
281.7000,0.674782,206.045,0.11609
281.6000,0.0610183,204.797,0.0980342
281.5000,1.738,205.581,0.109393
281.4000,-0.716705,206.131,0.117333
281.3000,0.467797,205.065,0.101912
281.2000,0.0146318,206.043,0.116057
281.1000,0.506161,206.801,0.126984
281.0000,1.85151,206.1,0.116891
280.9000,0.612736,206.077,0.116548
280.8000,0.881679,204.978,0.100647
280.7000,2.47592,205.798,0.112522
280.6000,1.24485,204.954,0.100302
280.5000,2.28893,205.478,0.107901
280.4000,0.309895,206.852,0.127718
280.3000,0.577186,205.347,0.105999
280.2000,-0.512165,206.366,0.120716
280.1000,1.8037,206.019,0.115713
280.0000,0.820735,206.275,0.119409
279.9000,-0.460067,206.094,0.116793
279.8000,-0.124855,206.035,0.115943
279.7000,0.336803,205.779,0.112243
279.6000,-1.30212,205.432,0.107229
279.5000,-0.0165901,206.134,0.117382
279.4000,1.13143,205.587,0.109475
279.3000,0.322019,205.55,0.108934
279.2000,0.426532,205.395,0.106688
279.1000,1.54412,205.48,0.107918
279.0000,0.591123,205.534,0.108704
278.9000,0.175512,206.502,0.122676
278.8000,1.60563,207.125,0.131646
278.7000,1.51886,206.766,0.126479
278.6000,0.699459,206.187,0.118134
278.5000,2.03698,205.822,0.112866
278.4000,1.40213,206.539,0.123215
278.3000,1.25613,205.986,0.115239
278.2000,-0.208319,207.269,0.133713
278.1000,1.01948,206.469,0.122202
278.0000,0.952613,206.054,0.116221
277.9000,0.330483,204.878,0.0992012
277.8000,-0.255549,205.987,0.115255
277.7000,-0.346716,207.334,0.134658
277.6000,-0.956511,207.854,0.14212
277.5000,0.500887,206.255,0.119115
277.4000,2.39659,206.725,0.125891
277.3000,0.0850087,206.226,0.118706
277.2000,0.704708,206.047,0.116122
277.1000,0.40338,207.371,0.135178
277.0000,0.404594,205.934,0.114486
276.9000,1.00069,206.306,0.11985
276.8000,0.411926,206.239,0.118886
276.7000,2.14346,204.675,0.0962584
276.6000,-0.26073,206.304,0.119834
276.5000,-0.0193394,207.995,0.144133
276.4000,-0.476672,206.615,0.124308
276.3000,1.17652,206.743,0.126152
276.2000,1.25292,206.709,0.125663
276.1000,0.189925,207.631,0.138919
276.0000,-0.0807146,205.865,0.113488
275.9000,0.459382,205.903,0.114044
275.8000,1.61743,207.17,0.132297
275.7000,-0.149764,206.171,0.117905
275.6000,0.756501,206.312,0.119948
275.5000,0.770478,206.316,0.119997
275.4000,0.0238238,207.034,0.130342
275.3000,2.45233,206.567,0.123623
275.2000,-0.794562,206.389,0.121059
275.1000,-0.465143,206.898,0.128386
275.0000,1.87054,206.046,0.116106
274.9000,0.349498,206.475,0.1223
274.8000,0.112595,205.915,0.114208
274.7000,0.12035,206.14,0.117463
274.6000,0.00901395,206.52,0.122937
274.5000,0.241593,206.973,0.129462
274.4000,0.469247,206.843,0.127587
274.3000,2.00768,206.159,0.117742
274.2000,-1.44512,206.665,0.125027
274.1000,1.43229,206.318,0.12003
274.0000,0.107222,206.206,0.118412
273.9000,0.96872,206.909,0.128549
273.8000,1.44867,206.848,0.127669
273.7000,0.862429,206.33,0.12021
273.6000,0.418007,207.305,0.134234
273.5000,1.73781,206.826,0.127343
273.4000,0.715197,206.34,0.12034
273.3000,-0.164034,206.695,0.125467
273.2000,-0.236714,205.781,0.112276
273.1000,-0.920187,206.156,0.117692
273.0000,0.893243,206.124,0.117234
272.9000,0.935927,206.025,0.115795
272.8000,0.905389,206.583,0.123851
272.7000,2.43962,206.199,0.118314
272.6000,0.782732,206.514,0.122856
272.5000,-1.14151,206.242,0.118935
272.4000,2.20487,207.328,0.13456
272.3000,0.958978,205.93,0.114437
272.2000,0.237291,206.394,0.121124
272.1000,-0.624091,206.194,0.118248
272.0000,0.377149,205.85,0.113275
271.9000,0.358927,206.625,0.124455
271.8000,1.39052,206.219,0.118608
271.7000,1.11197,207.253,0.133486
271.6000,0.645755,206.653,0.124863
271.5000,0.745697,206.327,0.12016
271.4000,0.759221,206.659,0.124945
271.3000,1.20362,206.211,0.118494
271.2000,0.149635,206.785,0.126756
271.1000,-0.928613,207.169,0.132281
271.0000,0.690558,206.996,0.129788
270.9000,-0.262863,206.898,0.128386
270.8000,1.2107,206.756,0.126348
270.7000,0.859204,207.431,0.136041
270.6000,-1.62784,206.619,0.124374
270.5000,1.20691,206.337,0.120308
270.4000,-0.690887,207.572,0.138074
270.3000,0.934549,206.894,0.128321
270.2000,0.16914,206.979,0.129544
270.1000,0.72675,206.397,0.121174
270.0000,0.816392,206.973,0.129462
269.9000,0.792655,207.57,0.138041
269.8000,0.468241,206.302,0.119801
269.7000,-0.260704,206.773,0.126593
269.6000,0.569326,206.268,0.119311
269.5000,-0.424282,207.305,0.134234
269.4000,0.769919,206.193,0.118232
269.3000,-1.23741,207.897,0.142737
269.2000,0.669056,207.304,0.134218
269.1000,0.313239,207.34,0.134739
269.0000,-1.22905,207.033,0.130326
268.9000,-0.733909,206.407,0.12132
268.8000,-0.0098536,206.599,0.12408
268.7000,-0.145145,207.493,0.136935
268.6000,-0.21202,207.627,0.138854
268.5000,0.517705,206.905,0.128484
268.4000,0.731223,206.541,0.123247
268.3000,-1.27904,205.975,0.115075
268.2000,0.147076,205.771,0.112129
268.1000,-1.21307,207.226,0.133095
268.0000,1.34129,207.689,0.139748
267.9000,0.0955935,206.983,0.129609
267.8000,0.686035,206.998,0.129821
267.7000,0.0832434,206.371,0.120798
267.6000,1.31914,207.62,0.138756
267.5000,1.91006,207.82,0.141633
267.4000,-0.05079,207.845,0.14199
267.3000,-0.473734,207.128,0.131695
267.2000,-0.566514,206.747,0.126217
267.1000,1.16689,208.654,0.153568
267.0000,0.782919,207.044,0.130489
266.9000,-0.300023,207.661,0.139342
266.8000,-0.872648,207.392,0.135487
266.7000,-0.334748,207.536,0.137553
266.6000,-0.809119,206.739,0.126103
266.5000,0.937313,208.931,0.157516
266.4000,0.447766,208.297,0.148465
266.3000,-0.0264919,208.497,0.151317
266.2000,0.0722024,207.505,0.137114
266.1000,0.266278,208.411,0.150085
266.0000,0.191796,207.852,0.142087
265.9000,-0.00888907,207.069,0.130847
265.8000,-0.0999019,207.697,0.139862
265.7000,1.12553,207.5,0.137033
265.6000,0.560994,208.108,0.145756
265.5000,0.180068,207.448,0.136285
265.4000,0.627523,208.566,0.152305
265.3000,0.470575,208.072,0.145237
265.2000,0.821091,208.318,0.148757
265.1000,-0.850034,207.793,0.141243
265.0000,0.971815,207.42,0.135894
264.9000,-0.403283,208.363,0.149405
264.8000,0.142795,208.151,0.146372
264.7000,-0.304243,208.209,0.1472
264.6000,0.126791,208.202,0.147102
264.5000,-0.58582,207.675,0.139553
264.4000,-0.796316,207.623,0.138805
264.3000,1.84708,208.581,0.152515
264.2000,-3.08084,209.285,0.162574
264.1000,1.62947,209.038,0.159052
264.0000,-1.16963,207.35,0.134885
263.9000,0.954596,208.27,0.148075
263.8000,0.894261,207.953,0.143533
263.7000,-0.608768,207.822,0.141649
263.6000,-1.67012,208.479,0.151058
263.5000,0.617298,209.352,0.163527
263.4000,0.0725845,208.67,0.153795
263.3000,0.376992,207.666,0.139423
263.2000,0.325181,207.87,0.142347
263.1000,1.93434,206.997,0.129804
263.0000,-0.734383,207.867,0.142299
262.9000,0.869926,208.469,0.150912
262.8000,0.900112,208.092,0.145529
262.7000,0.383867,209.246,0.162009
262.6000,-0.79994,209.063,0.159408
262.5000,-0.649296,208.829,0.15606
262.4000,-0.40945,208.964,0.157985
262.3000,-0.222321,207.41,0.135748
262.2000,-0.997122,207.161,0.132167
262.1000,-1.02462,208.398,0.149907
262.0000,0.992964,208.058,0.145042
261.9000,1.08906,208.343,0.149113
261.8000,0.482335,208.087,0.145448
261.7000,1.96101,207.922,0.143094
261.6000,-0.834653,208.609,0.15292
261.5000,0.337819,209.135,0.160426
261.4000,0.623973,208.617,0.153034
261.3000,0.320607,209.501,0.165641
261.2000,0.34794,208.129,0.146048
261.1000,0.801978,208.762,0.155106
261.0000,-1.45276,209.769,0.169464
260.9000,-0.640933,209.365,0.163705
260.8000,-0.357998,209.427,0.164592
260.7000,1.0569,209.675,0.168126
260.6000,2.0591,208.751,0.154944
260.5000,1.70683,207.585,0.138252
260.4000,1.29583,209.69,0.168335
260.3000,-1.4955,208.389,0.149778
260.2000,0.442637,210.074,0.173797
260.1000,-0.467662,209.545,0.166271
260.0000,0.323308,209.684,0.168255
259.9000,1.24985,208.772,0.155251
259.8000,2.35141,211.022,0.187248
259.7000,-0.26976,208.797,0.155607
259.6000,0.65409,208.754,0.154993
259.5000,-0.921646,208.829,0.15606
259.4000,2.88177,208.377,0.149599
259.3000,-0.409521,208.176,0.14673
259.2000,-0.109534,209.398,0.164173
259.1000,2.20565,209.399,0.164189
259.0000,0.812792,209.544,0.166255
258.9000,-0.297286,209.989,0.17259
258.8000,0.746037,209.955,0.172106
258.7000,1.15252,209.577,0.166723
258.6000,1.44815,209.195,0.161282
258.5000,1.10246,209.377,0.163882
258.4000,-0.621404,209.605,0.167126
258.3000,0.740246,210.722,0.182995
258.2000,-0.360985,209.206,0.161444
258.1000,1.49207,208.561,0.15224
258.0000,0.331288,208.864,0.156562
257.9000,0.830657,209.35,0.163495
257.8000,-1.08151,209.782,0.169641
257.7000,-0.0399438,210.276,0.176662
257.6000,-1.6705,208.682,0.153957
257.5000,0.470974,209.792,0.169786
257.4000,1.92658,210.227,0.17597
257.3000,1.98253,210.654,0.182031
257.2000,0.747274,209.734,0.168964
257.1000,0.173578,209.349,0.163479
257.0000,0.628219,210.084,0.173942
256.9000,-0.702735,209.522,0.165948
256.8000,0.0311998,210.064,0.173652
256.7000,-1.13038,209.816,0.170125
256.6000,1.11203,209.887,0.17114
256.5000,-1.05963,211.211,0.189909
256.4000,-0.250131,210.287,0.176823
256.3000,0.118853,210.301,0.177016
256.2000,-1.89086,210,0.172751
256.1000,-2.03216,209.508,0.165739
256.0000,-0.32651,210.336,0.177514
255.9000,1.71366,209.834,0.170382
255.8000,0.0793379,209.825,0.170254
255.7000,1.08535,209.909,0.171446
255.6000,-0.456193,210.225,0.175938
255.5000,-0.540827,210.553,0.180601
255.4000,0.723151,210.551,0.180569
255.3000,0.767767,209.75,0.16919
255.2000,-0.343922,211.088,0.188178
255.1000,1.37088,211.319,0.191448
255.0000,-0.486179,210.859,0.184937
254.9000,0.0497892,211.496,0.193946
254.8000,-0.766904,211.071,0.187937
254.7000,0.0143393,210.468,0.179396
254.6000,-1.72472,210.39,0.178286
254.5000,1.08355,210.958,0.186333
254.4000,1.93315,211.463,0.193482
254.3000,0.67458,210.966,0.186446
254.2000,1.78754,211.259,0.190599
254.1000,-0.879447,211.06,0.187777
254.0000,-0.655567,210.44,0.178994
253.9000,-2.33455,211.154,0.189108
253.8000,-0.40052,210.278,0.176694
253.7000,0.820772,212.139,0.203013
253.6000,0.0105746,210.549,0.180537
253.5000,-0.309387,210.69,0.182545
253.4000,0.430398,211.088,0.188178
253.3000,1.16544,211.131,0.188787
253.2000,0.874808,211.332,0.191624
253.1000,-0.0735385,211.999,0.201048
253.0000,0.451279,210.292,0.176887
252.9000,1.21204,210.908,0.185627
252.8000,0.749021,211.322,0.19148
252.7000,-4.14243,211.428,0.192986
252.6000,1.49226,211.387,0.192409
252.5000,-0.513818,211.58,0.195131
252.4000,0.6928,211.336,0.191688
252.3000,-0.97223,211.962,0.200521
252.2000,0.348791,211.941,0.200233
252.1000,1.21543,212.701,0.210926
252.0000,0.301958,211.399,0.192569
251.9000,0.565033,211.709,0.196955
251.8000,-0.27393,211.668,0.196379
251.7000,1.24789,211.869,0.19921
251.6000,-1.78964,211.994,0.200968
251.5000,-0.835815,211.818,0.19849
251.4000,-0.27572,211.957,0.200457
251.3000,-1.63932,211.839,0.198794
251.2000,-0.131186,211.867,0.199178
251.1000,0.438432,212.755,0.211691
251.0000,-1.41172,212.02,0.201336
250.9000,0.75097,212.653,0.210257
250.8000,-0.363504,211.642,0.196011
250.7000,0.124342,211.137,0.188867
250.6000,0.310445,211.903,0.199689
250.5000,-0.362899,212.729,0.211324
250.4000,2.14362,212.332,0.205743
250.3000,-0.44168,211.845,0.198874
250.2000,-0.774407,212.644,0.210129
250.1000,-0.365239,211.785,0.198027
250.0000,-1.06056,212.985,0.214923
249.9000,-0.941011,213.239,0.218487
249.8000,0.47603,212.347,0.20595
249.7000,-0.270568,211.667,0.196363
249.6000,1.05446,212.687,0.210735
249.5000,-0.586712,212.917,0.213968
249.4000,-0.4832,212.475,0.207753
249.3000,-0.353285,212.883,0.21349
249.2000,-0.940998,212.167,0.203412
249.1000,-1.46435,214.136,0.231061
249.0000,-1.98059,212.744,0.211531
248.9000,0.09648,212.869,0.213299
248.8000,-0.190925,212.398,0.206668
248.7000,-1.24022,211.967,0.200601
248.6000,-0.314555,212.937,0.214255
248.5000,-1.47503,211.948,0.200329
248.4000,0.677494,213.566,0.223081
248.3000,-1.94528,212.945,0.214366
248.2000,0.110465,212.542,0.208694
248.1000,-0.514936,212.708,0.211037
248.0000,0.943314,212.546,0.208758
247.9000,1.25841,212.405,0.206764
247.8000,0.920191,213.652,0.224287
247.7000,1.237,212.674,0.210559
247.6000,-0.106904,212.805,0.212392
247.5000,-1.18796,212.84,0.212885
247.4000,-0.896252,212.673,0.210543
247.3000,-1.61597,212.915,0.213936
247.2000,0.129961,212.642,0.210097
247.1000,0.00934002,214.056,0.229935
247.0000,0.478695,213.94,0.228318
246.9000,0.422259,214.01,0.229301
246.8000,0.656091,213.334,0.219823
246.7000,-0.331094,212.665,0.210432
246.6000,-0.385782,214.138,0.231092
246.5000,-1.82998,213.273,0.218964
246.4000,-0.279446,213.249,0.218631
246.3000,-1.43232,213.945,0.228382
246.2000,-2.44319,214.288,0.233184
246.1000,-1.76698,213.886,0.227557
246.0000,1.76078,214.07,0.230141
245.9000,-0.478182,214.376,0.234419
245.8000,-0.54499,213.616,0.223779
245.7000,-2.39113,213.854,0.227113
245.6000,-1.435,212.641,0.210081
245.5000,-0.777712,213.8,0.226351
245.4000,-0.701794,214.155,0.23133
245.3000,-1.82772,213.306,0.219426
245.2000,-0.0477856,214.06,0.229999
245.1000,0.262438,215.286,0.247111
245.0000,-0.854845,214.039,0.229697
244.9000,-0.196013,213.416,0.220967
244.8000,0.200221,214.385,0.234546
244.7000,-1.32454,214.389,0.234593
244.6000,-0.973664,215.492,0.249981
244.5000,-0.847678,214.485,0.235939
244.4000,-0.0951658,215.42,0.248972
244.3000,-1.07964,214.789,0.240178
244.2000,-1.82915,214.739,0.239482
244.1000,-2.07471,214.675,0.238597
244.0000,-2.50943,213.983,0.228921
243.9000,-2.47306,214.643,0.238138
243.8000,-3.48757,215.204,0.245959
243.7000,-2.786,215.315,0.247505
243.6000,-5.21056,215.25,0.246606
243.5000,-3.97147,214.34,0.233912
243.4000,-1.00156,214.777,0.24002
243.3000,-2.25796,215.353,0.248042
243.2000,-0.156715,215.267,0.246843
243.1000,-2.76236,215.497,0.250045
243.0000,-3.52444,216.105,0.258501
242.9000,-1.28153,215.713,0.253054
242.8000,-3.33683,215.768,0.253811
242.7000,-2.27478,216.108,0.258532
242.6000,-1.19445,215.781,0.253999
242.5000,-1.49211,216.401,0.262603
242.4000,-5.25966,216.186,0.259617
242.3000,-2.82048,215.957,0.25644
242.2000,-5.3361,215.388,0.248531
242.1000,-3.35731,215.972,0.256644
242.0000,-3.41545,215.837,0.254771
241.9000,-1.5824,215.798,0.254236
241.8000,-3.90827,216.294,0.261111
241.7000,-3.25284,216.556,0.264755
241.6000,-4.44102,215.602,0.25151
241.5000,-4.60503,215.866,0.25518
241.4000,-3.32219,216.577,0.265038
241.3000,-5.92789,217.172,0.273271
241.2000,-4.55276,216.912,0.269683
241.1000,-4.15644,217.099,0.272269
241.0000,-5.12783,217.381,0.276168
240.9000,-4.64032,217.513,0.277984
240.8000,-3.51635,218.297,0.288794
240.7000,-6.26807,217.498,0.27778
240.6000,-4.30656,217.157,0.273068
240.5000,-4.44069,218.381,0.289948
240.4000,-6.175,217.015,0.271109
240.3000,-5.39529,217.62,0.27947
240.2000,-6.79898,218.496,0.291538
240.1000,-5.27985,218.735,0.294826
240.0000,-6.20235,218.457,0.290993
239.9000,-6.28627,219.15,0.300521
239.8000,-7.15502,218.472,0.291211
239.7000,-6.13946,217.831,0.282377
239.6000,-7.83019,218.803,0.29576
239.5000,-7.25662,218.863,0.296585
239.4000,-8.2575,219.042,0.299044
239.3000,-6.0064,218.921,0.297379
239.2000,-6.37565,219.667,0.307604
239.1000,-8.6934,219.412,0.304111
239.0000,-7.98183,218.955,0.297846
238.9000,-7.56173,219.371,0.303552
238.8000,-8.81344,220.75,0.32241
238.7000,-8.43777,220.305,0.316331
238.6000,-8.82095,220.273,0.315897
238.5000,-7.68572,220.434,0.318095
238.4000,-8.11309,220.146,0.314163
238.3000,-9.59183,221.605,0.33406
238.2000,-8.03614,220.16,0.314349
238.1000,-10.0227,221.238,0.329065
238.0000,-8.45333,220.678,0.321436
237.9000,-10.6745,221.541,0.333182
237.8000,-7.37012,221.72,0.335616
237.7000,-10.0702,221.364,0.330777
237.6000,-11.1843,221.237,0.32905
237.5000,-10.6786,222.157,0.341555
237.4000,-9.66858,222.498,0.346181
237.3000,-10.775,221.616,0.334199
237.2000,-9.94455,222.677,0.348606
237.1000,-9.98133,221.942,0.338633
237.0000,-10.8876,222.723,0.34922
236.9000,-11.9328,222.527,0.346564
236.8000,-13.1077,223.11,0.354463
236.7000,-12.652,222.638,0.348069
236.6000,-10.1687,223.679,0.362146
236.5000,-12.6488,223.048,0.35362
236.4000,-12.0048,222.999,0.352961
236.3000,-12.7208,223.056,0.353728
236.2000,-13.9316,223.994,0.366394
236.1000,-12.9674,224.532,0.37364
236.0000,-13.3052,223.958,0.365905
235.9000,-14.1902,223.9,0.365126
235.8000,-14.6451,223.844,0.364377
235.7000,-14.7315,224.217,0.369401
235.6000,-15.0282,224.081,0.367569
235.5000,-15.7708,225.009,0.380051
235.4000,-13.4307,225.443,0.385873
235.3000,-15.7107,224.744,0.376489
235.2000,-17.5956,225.024,0.380249
235.1000,-14.3683,226.236,0.396491
235.0000,-16.4014,226.323,0.397657
234.9000,-16.9093,225.502,0.386663
234.8000,-16.282,225.718,0.389562
234.7000,-15.4007,227.075,0.407681
234.6000,-15.9365,226.451,0.399367
234.5000,-17.3028,226.126,0.395021
234.4000,-18.8703,227.849,0.41798
234.3000,-18.4867,227.577,0.414365
234.2000,-19.6986,227.48,0.413083
234.1000,-19.2023,227.368,0.41159
234.0000,-17.4535,227.588,0.414515
233.9000,-19.5787,227.416,0.412224
233.8000,-20.8969,227.577,0.414365
233.7000,-20.0794,228.107,0.421412
233.6000,-22.6002,228.975,0.432917
233.5000,-20.7304,228.854,0.431312
233.4000,-21.8268,228.198,0.422615
233.3000,-19.1669,228.888,0.431762
233.2000,-21.6439,229.825,0.444147
233.1000,-22.1123,229.64,0.441709
233.0000,-23.2481,229.692,0.442397
232.9000,-21.8928,229.92,0.445402
232.8000,-22.9936,230.043,0.447031
232.7000,-22.6741,230.587,0.454194
232.6000,-22.3814,230.456,0.452465
232.5000,-24.2798,229.819,0.444072
232.4000,-22.787,229.932,0.445567
232.3000,-23.9046,230.446,0.45233
232.2000,-25.1175,231.177,0.461954
232.1000,-22.2112,230.585,0.454165
232.0000,-25.8434,231.289,0.463412
231.9000,-24.9796,232.04,0.473259
231.8000,-25.0318,232.108,0.474149
231.7000,-26.9423,232.399,0.477958
231.6000,-27.7962,232.197,0.47532
231.5000,-27.4716,232.835,0.483657
231.4000,-28.0876,232.481,0.479025
231.3000,-28.2398,233.096,0.487057
231.2000,-28.293,232.725,0.482222
231.1000,-28.0322,232.829,0.483583
231.0000,-30.3165,232.965,0.485357
230.9000,-27.2682,233.075,0.486791
230.8000,-28.5753,233.129,0.487486
230.7000,-30.7095,233.714,0.495116
230.6000,-28.9078,233.906,0.497607
230.5000,-29.6247,234.113,0.500303
230.4000,-29.6351,234.37,0.503644
230.3000,-30.9591,234.225,0.50176
230.2000,-31.5966,234.299,0.502717
230.1000,-31.0362,235.408,0.517094
230.0000,-31.2482,234.104,0.500185
229.9000,-30.1249,234.698,0.507893
229.8000,-31.4959,235.785,0.521957
229.7000,-31.8761,234.889,0.510375
229.6000,-33.0839,235.748,0.521488
229.5000,-33.6662,235.91,0.523581
229.4000,-34.3088,236.055,0.525454
229.3000,-32.9985,235.698,0.520844
229.2000,-34.672,236.22,0.527574
229.1000,-32.6331,236.676,0.533459
229.0000,-35.9664,236.392,0.529794
228.9000,-35.0989,236.74,0.534276
228.8000,-34.8048,237.289,0.541344
228.7000,-36.1808,237.239,0.540704
228.6000,-34.7425,238.025,0.550782
228.5000,-35.2893,237.778,0.547615
228.4000,-35.5152,238.328,0.554673
228.3000,-35.8487,238.188,0.552873
228.2000,-35.0195,239.043,0.563816
228.1000,-36.1226,238.929,0.562354
228.0000,-37.5855,238.776,0.560399
227.9000,-39.901,239.339,0.567591
227.8000,-37.5601,239.057,0.56399
227.7000,-37.3768,239.853,0.574149
227.6000,-38.1046,239.483,0.569427
227.5000,-38.4233,240.332,0.580235
227.4000,-41.9557,240.661,0.584425
227.3000,-37.1588,240.359,0.580581
227.2000,-37.3773,240.465,0.581935
227.1000,-40.6405,241.176,0.590953
227.0000,-37.1716,241.392,0.593696
226.9000,-39.2388,242.192,0.603818
226.8000,-39.0052,241.067,0.589574
226.7000,-39.7174,241.71,0.597728
226.6000,-40.856,242.598,0.608939
226.5000,-41.3185,242.386,0.606265
226.4000,-42.1504,242.458,0.607181
226.3000,-43.4316,243.765,0.623636
226.2000,-42.7057,243.733,0.623237
226.1000,-42.6091,243.714,0.622995
226.0000,-41.3518,243.367,0.618634
225.9000,-40.2848,242.878,0.612469
225.8000,-42.5178,243.926,0.625658
225.7000,-42.0428,244.186,0.62893
225.6000,-42.3703,244.536,0.633321
225.5000,-41.1666,244.251,0.62974
225.4000,-42.5763,243.991,0.626483
225.3000,-43.1564,245.217,0.641847
225.2000,-48.2459,244.644,0.63467
225.1000,-44.1889,245.901,0.650382
225.0000,-43.4962,246.208,0.654212
224.9000,-43.4992,246.57,0.658728
224.8000,-44.6371,246.157,0.653576
224.7000,-42.3237,245.848,0.649732
224.6000,-46.4332,245.629,0.646987
224.5000,-45.0089,246.195,0.654056
224.4000,-46.0567,246.619,0.659335
224.3000,-46.6886,246.297,0.655327
224.2000,-44.4938,247.776,0.673707
224.1000,-48.9341,248.235,0.679392
224.0000,-44.6626,247.772,0.673665
223.9000,-46.7822,247.948,0.675842
223.8000,-45.8854,247.913,0.675406
223.7000,-45.5169,248.862,0.687155
223.6000,-47.7015,248.333,0.680613
223.5000,-46.1757,248.988,0.688709
223.4000,-45.7005,248.545,0.683234
223.3000,-45.3398,249.206,0.691395
223.2000,-44.9105,248.552,0.683318
223.1000,-47.732,249.499,0.695014
223.0000,-48.6601,250.249,0.70425
222.9000,-44.9804,250.927,0.712573
222.8000,-47.7634,250.588,0.708414
222.7000,-46.3827,251.174,0.715603
222.6000,-45.9672,250.852,0.711655
222.5000,-46.9565,250.848,0.7116
222.4000,-46.8521,250.969,0.713088
222.3000,-47.0897,250.918,0.712462
222.2000,-47.1204,252.088,0.726797
222.1000,-47.4272,251.864,0.724053
222.0000,-45.5443,252.611,0.733176
221.9000,-48.0288,252.668,0.733881
221.8000,-47.2893,252.878,0.736437
221.7000,-46.2764,252.914,0.736879
221.6000,-50.5237,253.352,0.742207
221.5000,-46.2603,253.795,0.747596
221.4000,-44.3997,253.61,0.74535
221.3000,-48.2121,253.828,0.747996
221.2000,-47.7813,254.001,0.750102
221.1000,-46.6632,254.244,0.75306
221.0000,-48.3302,255.28,0.765608
220.9000,-48.1736,254.522,0.756428
220.8000,-46.6609,255.237,0.765087
220.7000,-47.2111,255.392,0.766965
220.6000,-45.8636,255.163,0.764196
220.5000,-43.9516,255.864,0.77266
220.4000,-44.8752,256.29,0.777801
220.3000,-46.1455,256.971,0.786002
220.2000,-45.2604,257.118,0.787774
220.1000,-44.5923,257.197,0.788727
220.0000,-48.1858,257.281,0.789735
219.9000,-45.6863,256.815,0.784134
219.8000,-46.3132,258.005,0.798427
219.7000,-46.1008,257.694,0.794689
219.6000,-49.7308,257.697,0.79473
219.5000,-47.489,258.099,0.799554
219.4000,-45.7221,258.592,0.805458
219.3000,-47.1104,258.437,0.8036
219.2000,-47.836,258.794,0.807871
219.1000,-48.3612,259.185,0.812543
219.0000,-46.7498,259.257,0.813409
218.9000,-47.6583,258.919,0.809375
218.8000,-47.7725,259.917,0.821276
218.7000,-51.326,259.936,0.821506
218.6000,-45.6402,260.249,0.825231
218.5000,-46.6377,260.437,0.827469
218.4000,-50.3206,260.698,0.830582
218.3000,-48.5909,260.497,0.828184
218.2000,-48.193,260.843,0.832306
218.1000,-46.11,261.574,0.84098
218.0000,-47.2088,261.541,0.84059
217.9000,-47.6943,262.367,0.85037
217.8000,-44.8521,261.719,0.842699
217.7000,-47.0014,261.898,0.844819
217.6000,-49.5039,262.864,0.856234
217.5000,-43.908,262.646,0.853665
217.4000,-49.3214,263.517,0.863945
217.3000,-44.8505,263.647,0.865467
217.2000,-44.5107,264.306,0.873225
217.1000,-46.0535,264.416,0.874517
217.0000,-45.5113,264.469,0.875142
216.9000,-45.1121,264.898,0.88017
216.8000,-48.5129,264.094,0.870734
216.7000,-48.8152,265.258,0.884395
216.6000,-49.096,265.258,0.884395
216.5000,-47.7138,265.639,0.888853
216.4000,-45.8758,266.485,0.898747
216.3000,-47.7403,266.249,0.895994
216.2000,-45.291,266.874,0.90328
216.1000,-47.9494,267.006,0.904826
216.0000,-49.1866,267.302,0.908271
215.9000,-46.3256,267.116,0.906106
215.8000,-48.9375,267.641,0.912213
215.7000,-45.4362,268.426,0.921335
215.6000,-47.9784,268.356,0.92052
215.5000,-48.6546,268.182,0.918507
215.4000,-48.6597,269.203,0.930343
215.3000,-47.5951,269.816,0.937432
215.2000,-45.4733,269.083,0.928953
215.1000,-48.9059,269.434,0.933018
215.0000,-43.9157,269.557,0.934433
214.9000,-50.7524,269.849,0.937812
214.8000,-42.491,270.093,0.940625
214.7000,-45.7177,270.629,0.946806
214.6000,-45.4212,270.829,0.949117
214.5000,-46.0879,271.793,0.960206
214.4000,-50.3674,271.107,0.952313
214.3000,-47.0912,271.758,0.959803
214.2000,-42.9017,272.342,0.966499
214.1000,-45.02,272.116,0.963913
214.0000,-45.1705,272.532,0.96868
213.9000,-49.3621,272.847,0.972288
213.8000,-45.4668,273.547,0.980294
213.7000,-46.1713,273.571,0.980566
213.6000,-48.7206,273.16,0.975866
213.5000,-41.0663,274.473,0.990854
213.4000,-45.7532,274.755,0.994066
213.3000,-48.5588,274.959,0.996386
213.2000,-44.9115,274.113,0.986747
213.1000,-45.5174,275.499,1.00252
213.0000,-50.0386,276.181,1.01025
212.9000,-47.4669,276.836,1.01767
212.8000,-44.3531,276.063,1.00892
212.7000,-47.9626,276.8,1.01727
212.6000,-49.2206,277.561,1.02586
212.5000,-48.848,277.563,1.02588
212.4000,-49.9388,277.596,1.02626
212.3000,-44.5583,278.261,1.03375
212.2000,-47.1655,278.177,1.03281
212.1000,-52.7029,279.333,1.0458
212.0000,-49.3636,278.976,1.0418
211.9000,-49.7373,280.245,1.05603
211.8000,-47.8695,280.273,1.05635
211.7000,-50.6421,280.739,1.06156
211.6000,-47.193,281.173,1.0664
211.5000,-49.0204,283.079,1.08762
211.4000,-52.803,282.689,1.08329
211.3000,-50.7954,282.704,1.08346
211.2000,-51.4526,282.445,1.08058
211.1000,-48.4209,283.172,1.08865
211.0000,-49.7227,284.042,1.0983
210.9000,-50.0835,283.968,1.09748
210.8000,-45.9126,284.114,1.0991
210.7000,-51.6568,285.223,1.11135
210.6000,-46.7231,285.051,1.10946
210.5000,-51.2794,286.217,1.12231
210.4000,-52.5376,285.747,1.11713
210.3000,-48.2148,286.146,1.12152
210.2000,-50.9483,287.519,1.1366
210.1000,-47.5955,287.584,1.13731
210.0000,-52.331,287.515,1.13655
209.9000,-51.0578,289.039,1.15322
209.8000,-55.9682,289.918,1.1628
209.7000,-56.298,290.106,1.16484
209.6000,-49.1052,290.722,1.17154
209.5000,-56.4199,291.718,1.18234
209.4000,-50.086,291.53,1.1803
209.3000,-50.5163,291.989,1.18527
209.2000,-51.4945,292.887,1.19497
209.1000,-49.3618,293.721,1.20396
209.0000,-54.2695,293.542,1.20203
208.9000,-52.1659,294.096,1.20799
208.8000,-50.03,295.271,1.22061
208.7000,-49.525,295.26,1.2205
208.6000,-43.8838,295.724,1.22546
208.5000,-51.4441,296.801,1.23698
208.4000,-49.7795,296.938,1.23844
208.3000,-50.6365,297.335,1.24267
208.2000,-50.9787,298.001,1.24977
208.1000,-48.9289,298.876,1.25906
208.0000,-53.5249,300.545,1.27673
207.9000,-47.9827,300.341,1.27457
207.8000,-43.2285,301.04,1.28195
207.7000,-44.0855,302.159,1.29373
207.6000,-51.8623,302.434,1.29663
207.5000,-42.3819,304.026,1.31332
207.4000,-49.3025,303.451,1.3073
207.3000,-49.7714,304.094,1.31403
207.2000,-50.1146,305.614,1.3299
207.1000,-47.3584,306.149,1.33546
207.0000,-53.14,307.247,1.34687
206.9000,-47.2662,307.711,1.35167
206.8000,-44.7237,308.521,1.36005
206.7000,-43.1992,309.356,1.36867
206.6000,-45.7648,309.105,1.36609
206.5000,-42.9726,310.626,1.38174
206.4000,-47.8209,311.621,1.39195
206.3000,-45.5866,312.19,1.39778
206.2000,-39.5081,313.002,1.40608
206.1000,-47.378,313.485,1.411
206.0000,-41.7631,314.56,1.42195
205.9000,-44.6213,315.102,1.42746
205.8000,-42.9737,316.283,1.43944
205.7000,-37.8083,317.718,1.45393
205.6000,-40.7369,318.148,1.45827
205.5000,-38.0046,319.718,1.47404
205.4000,-35.6728,319.832,1.47519
205.3000,-38.603,320.779,1.48468
205.2000,-37.6929,321.137,1.48826
205.1000,-35.5645,322.709,1.50393
205.0000,-35.5941,323.588,1.51267
204.9000,-36.3443,325.439,1.531
204.8000,-31.8319,326.517,1.54165
204.7000,-37.4963,326.318,1.53968
204.6000,-27.1412,328.722,1.56332
204.5000,-30.4665,329.456,1.57051
204.4000,-18.9478,330.434,1.58006
204.3000,-34.374,331.871,1.59406
204.2000,-25.5731,332.132,1.59659
204.1000,-24.8991,333.2,1.60696
204.0000,-21.7983,333.999,1.61469
203.9000,-20.6351,335.748,1.63157
203.8000,-21.6178,337.817,1.65145
203.7000,-20.7616,339.205,1.66472
203.6000,-21.6563,339.341,1.66602
203.5000,-20.0238,340.875,1.68063
203.4000,-16.4677,341.79,1.68931
203.3000,-15.3108,342.644,1.69741
203.2000,-16.8925,344.731,1.71712
203.1000,-16.8016,344.705,1.71687
203.0000,-13.0338,345.828,1.72743
202.9000,-8.27965,348.554,1.75296
202.8000,-15.6708,348.945,1.75661
202.7000,-13.852,350.44,1.77051
202.6000,-12.3131,350.599,1.772
202.5000,-1.22186,352.058,1.78552
202.4000,-14.1867,353.979,1.80326
202.3000,-10.7717,354.601,1.80899
202.2000,-13.3528,356.649,1.82777
202.1000,-2.38343,357.851,1.83876
202.0000,3.19249,360.73,1.86496
201.9000,-8.56068,361.004,1.86744
201.8000,6.50178,362.527,1.88122
201.7000,0.965675,364.067,1.8951
201.6000,6.85984,365.368,1.90678
201.5000,11.7992,367.261,1.92373
201.4000,0.914041,368.622,1.93587
201.3000,2.74486,370,1.94812
201.2000,8.92816,372.138,1.96705
201.1000,13.6116,372.639,1.97147
201.0000,13.2477,374.595,1.9887
200.9000,9.1928,376.463,2.00507
200.8000,5.18836,377.585,2.01487
200.7000,25.6559,379.319,2.02998
200.6000,15.6431,380.808,2.0429
200.5000,17.0069,382.585,2.05826
200.4000,10.4332,384.527,2.07499
200.3000,8.03502,386.417,2.0912
200.2000,19.6111,387.624,2.10151
200.1000,24.7937,389.425,2.11686
200.0000,18.9486,391.088,2.13098
199.9000,18.8485,393.385,2.15039
199.8000,21.508,395.097,2.1648
199.7000,28.0081,396.17,2.1738
199.6000,31.0254,397.725,2.18681
199.5000,26.9722,399.246,2.1995
199.4000,26.9276,400.554,2.21038
199.3000,27.4621,402.166,2.22374
199.2000,30.5351,403.901,2.23807
199.1000,35.8903,405.541,2.25157
199.0000,30.3962,406.819,2.26206
198.9000,47.1826,408.568,2.27637
198.8000,35.1006,411.343,2.29897
198.7000,31.9245,412.061,2.3048
198.6000,31.7226,414.379,2.32354
198.5000,33.6256,416.562,2.34113
198.4000,31.1988,418.876,2.35967
198.3000,27.05,420.479,2.37247
198.2000,32.8107,421.981,2.38443
198.1000,29.3122,423.314,2.39501
198.0000,33.2804,425.325,2.41092
197.9000,33.9821,427.365,2.42699
197.8000,45.3133,429.288,2.44208
197.7000,40.5736,430.668,2.45288
197.6000,33.4364,432.791,2.46943
197.5000,40.0033,434.905,2.48585
197.4000,34.4344,435.242,2.48845
197.3000,38.0635,438.078,2.51035
197.2000,26.258,439.588,2.52197
197.1000,42.0255,441.66,2.53784
197.0000,48.0936,443.534,2.55215
196.9000,39.835,445.153,2.56447
196.8000,33.2229,448.257,2.58799
196.7000,38.2317,449.958,2.60081
196.6000,32.2407,451.396,2.61162
196.5000,39.5494,453.812,2.62972
196.4000,24.746,455.77,2.64433
196.3000,43.1382,457.155,2.65464
196.2000,36.4501,460.166,2.67694
196.1000,42.0089,462.554,2.69455
196.0000,41.5241,464.411,2.70819
195.9000,42.1754,466.673,2.72473
195.8000,37.1352,468.233,2.73611
195.7000,32.8194,470.3,2.75112
195.6000,39.28,471.354,2.75876
195.5000,36.9593,473.391,2.77348
195.4000,44.0564,475.476,2.78849
195.3000,52.9097,476.099,2.79297
195.2000,39.1862,478.765,2.81206
195.1000,41.9536,479.816,2.81956
195.0000,59.8689,481.951,2.83476
194.9000,29.9333,482.354,2.83762
194.8000,34.1694,484.066,2.84975
194.7000,46.1681,486.163,2.86457
194.6000,25.5917,487.369,2.87307
194.5000,48.3197,489.322,2.88679
194.4000,44.0154,491.369,2.90113
194.3000,37.3894,492.67,2.91021
194.2000,51.304,494.561,2.92337
194.1000,35.7721,496.622,2.93767
194.0000,33.2287,498.005,2.94724
193.9000,34.9898,500.144,2.96199
193.8000,36.3976,502.569,2.97865
193.7000,28.4311,504.138,2.9894
193.6000,38.3471,505.494,2.99867
193.5000,42.3712,507.819,3.0145
193.4000,33.7256,508.899,3.02183
193.3000,35.3898,509.892,3.02856
193.2000,40.8399,511.59,3.04005
193.1000,26.4139,513.448,3.05258
193.0000,43.4457,514.675,3.06084
192.9000,44.0933,516.15,3.07073
192.8000,30.1257,517.217,3.07788
192.7000,54.2293,519.728,3.09465
192.6000,28.839,522.165,3.11086
192.5000,47.373,523.563,3.12014
192.4000,33.1844,525.099,3.13029
192.3000,28.7224,527.228,3.14434
192.2000,19.9544,529.02,3.15612
192.1000,21.4234,529.936,3.16213
192.0000,33.1342,531.845,3.17463
191.9000,33.3812,534.282,3.19053
191.8000,27.5636,535.395,3.19776
191.7000,24.9648,536.748,3.20655
191.6000,31.0863,538.498,3.21788
191.5000,27.4231,539.984,3.22748
191.4000,25.2679,542.512,3.24376
191.3000,30.0935,543.27,3.24863
191.2000,29.0206,546.042,3.26639
191.1000,20.3292,547.823,3.27776
191.0000,28.5231,549.762,3.29009
190.9000,15.6427,551.589,3.30169
190.8000,28.7096,555.115,3.32397
190.7000,27.6311,557.112,3.33654
190.6000,28.6021,559.869,3.35383
190.5000,18.2304,561.097,3.36151
190.4000,35.9524,563.801,3.37836
190.3000,17.8301,564.994,3.38577
190.2000,35.2187,567.756,3.40289
190.1000,25.4539,569.781,3.41539
190.0000,26.9356,570.977,3.42275

##### Extended Information
[Comments]
Sample name,BP_EH_JP
Comment
User,HurleyPonticos
Division
Company,Saint Mary's College

[Detailed Information]
Creation date,9/27/2022 4:32 PM

Data array type,Linear data array * 3
Horizontal axis,Wavelength [nm]
Vertical axis(1),CD [mdeg]
Vertical axis(2),HT [V]
Vertical axis(3),Abs
Start,320 nm
End,190 nm
Data interval,0.1 nm
Data points,1301    

[Measurement Information]
Instrument name,J-1500
Model name,J-1500
Serial No.,B051061638

Detector,PM-539
Detector S/N,B051061638
  Lock-in amp.,X mode
  HT volt,Auto

Accessory,PTC-517
Accessory S/N,B026561646
  Temperature,22.00 C
  Control sensor,Holder
  Monitor sensor,Holder

Measurement date,9/27/2022 4:32 PM

CD Overload detect,996
Photometric mode,CD, HT, Abs
Measure range,320 - 190 nm
Data pitch,0.1 nm
CD scale,20 mdeg/0.05 dOD
FL scale,20 mdeg/0.05 dOD
D.I.T.,8 msec
Bandwidth,2.00 nm
Start mode,Immediately
Scanning mode,Continuous
Scanning speed,100 nm/min
Baseline correction,None
Shutter control,Auto
No. of cycle,1/1
N2 Flowmeter,Manual

Solvent,NaPO4 buffer

