TITLE,Buffer_JH_CW
DATA TYPE,
ORIGIN,JASCO
OWNER,
DATE,22/09/27
TIME,15:22:36
SPECTROMETER/DATA SYSTEM,
LOCALE,1033
RESOLUTION,
DELTAX,-0.1
XUNITS,NANOMETERS
YUNITS,CD [mdeg]
Y2UNITS,HT [V]
Y3UNITS,ABSORBANCE
FIRSTX,  320.0000
LASTX,  190.0000
NPOINTS,    1301
FIRSTY,     3.24368
MAXY,     8.52922
MINY,    -6.13906
XYDATA
320.0000,3.24368,206.445,0.121859
319.9000,2.55024,206.941,0.129006
319.8000,1.37794,205.945,0.11465
319.7000,3.06322,207.105,0.131369
319.6000,1.32805,206.19,0.118183
319.5000,1.95625,207.019,0.13013
319.4000,3.49148,206.393,0.121108
319.3000,0.726547,205.908,0.11411
319.2000,1.44416,206.694,0.125451
319.1000,-0.271112,206.309,0.119899
319.0000,0.965042,206.582,0.123835
318.9000,1.68179,206.059,0.116286
318.8000,-0.0377375,206.452,0.121957
318.7000,0.860315,206.627,0.124488
318.6000,0.305819,206.422,0.121533
318.5000,1.36463,205.753,0.111867
318.4000,0.0691696,206.648,0.124782
318.3000,1.90964,206.553,0.123411
318.2000,0.55686,206.555,0.123443
318.1000,1.49964,206.615,0.124308
318.0000,2.83902,207.07,0.130864
317.9000,4.43888,206.257,0.119147
317.8000,1.18321,206.232,0.118788
317.7000,1.7762,206.102,0.116907
317.6000,2.66865,206.063,0.116351
317.5000,2.41751,206.244,0.118968
317.4000,0.919004,205.96,0.114862
317.3000,-0.79738,206.508,0.122774
317.2000,2.83533,206.456,0.122023
317.1000,0.122367,206.253,0.119098
317.0000,0.722936,206.304,0.119834
316.9000,0.828397,206.26,0.119196
316.8000,0.897458,206.563,0.123558
316.7000,0.392439,206.676,0.12519
316.6000,0.373884,206.489,0.122496
316.5000,1.38295,206.63,0.124521
316.4000,2.46684,206.786,0.126772
316.3000,1.15154,206.471,0.122235
316.2000,0.731747,205.909,0.114126
316.1000,2.96051,206.38,0.120929
316.0000,1.7066,206.345,0.120422
315.9000,1.12089,206.219,0.118608
315.8000,2.10446,206.276,0.119425
315.7000,1.2531,206.036,0.115959
315.6000,1.11788,206.239,0.118886
315.5000,1.93955,205.977,0.115108
315.4000,0.777469,205.881,0.113717
315.3000,-0.500011,206.529,0.123068
315.2000,0.210185,206.04,0.116024
315.1000,0.398879,206.279,0.119474
315.0000,1.00866,206.119,0.117153
314.9000,1.26201,205.971,0.115026
314.8000,2.02381,206.571,0.123672
314.7000,3.29435,206.065,0.116384
314.6000,0.181082,206.102,0.116907
314.5000,2.31081,206.014,0.115648
314.4000,0.895875,205.926,0.114371
314.3000,0.601557,205.373,0.106376
314.2000,1.8673,205.765,0.112047
314.1000,2.92732,207.051,0.130587
314.0000,0.317619,205.341,0.105917
313.9000,1.43714,206.403,0.121255
313.8000,-0.580201,205.69,0.110966
313.7000,2.02064,206.778,0.126658
313.6000,0.638604,205.307,0.105425
313.5000,1.19221,206.251,0.119066
313.4000,2.32888,205.712,0.111277
313.3000,0.267509,206.025,0.115795
313.2000,1.59066,205.001,0.100992
313.1000,1.39521,205.395,0.106688
313.0000,2.29757,205.941,0.114584
312.9000,2.55445,206.189,0.118167
312.8000,0.839077,205.647,0.110343
312.7000,0.65751,205.791,0.112424
312.6000,0.869596,206.504,0.122709
312.5000,1.15026,205.712,0.111277
312.4000,1.37908,205.691,0.110982
312.3000,0.264733,206.129,0.1173
312.2000,1.53238,205.628,0.110065
312.1000,0.86789,205.759,0.111965
312.0000,2.66243,206.505,0.122725
311.9000,1.68033,205.417,0.107016
311.8000,1.37898,205.439,0.107327
311.7000,1.3525,205.877,0.113668
311.6000,0.876264,205.898,0.113962
311.5000,0.512949,205.806,0.112636
311.4000,3.10667,206.495,0.122578
311.3000,0.327976,206.049,0.116155
311.2000,0.686081,205.821,0.112849
311.1000,1.59235,205.501,0.108229
311.0000,0.913823,206.122,0.117202
310.9000,1.83204,205.353,0.106081
310.8000,1.58279,205.843,0.113177
310.7000,2.10252,205.423,0.107098
310.6000,2.12108,205.895,0.11393
310.5000,2.52245,205.639,0.110229
310.4000,1.23656,206.528,0.123052
310.3000,-0.857786,205.919,0.114273
310.2000,2.17681,205.474,0.107836
310.1000,-0.0615384,206.062,0.116335
310.0000,1.3392,205.32,0.105605
309.9000,0.689166,205.545,0.108868
309.8000,0.691333,205.879,0.1137
309.7000,1.37561,205.665,0.110605
309.6000,0.982279,206.028,0.115844
309.5000,1.36726,205.404,0.106819
309.4000,1.89129,205.767,0.11208
309.3000,1.54707,205.67,0.110671
309.2000,0.482358,205.474,0.107836
309.1000,0.595877,204.973,0.100581
309.0000,2.27908,205.118,0.102684
308.9000,1.92668,206.04,0.116024
308.8000,1.0891,205.193,0.103767
308.7000,-0.0712861,205.924,0.114339
308.6000,1.2767,206.272,0.11936
308.5000,-0.299304,205.784,0.112325
308.4000,0.227373,205.695,0.111032
308.3000,1.15098,205.721,0.111408
308.2000,1.25053,206.189,0.118167
308.1000,3.02268,205.609,0.109786
308.0000,2.02581,205.183,0.10362
307.9000,1.2109,205.847,0.113226
307.8000,1.62137,205.694,0.111015
307.7000,2.11094,205.785,0.112342
307.6000,0.932443,205.784,0.112325
307.5000,0.413871,206.443,0.121827
307.4000,0.00623817,205.078,0.102109
307.3000,-0.244134,206.474,0.122284
307.2000,0.836123,205.62,0.10995
307.1000,0.958349,206.158,0.117725
307.0000,3.06025,205.497,0.108164
306.9000,0.944246,205.413,0.10695
306.8000,2.12427,207.144,0.131922
306.7000,2.79696,205.663,0.110573
306.6000,1.42768,205.878,0.113684
306.5000,1.69397,205.62,0.10995
306.4000,-0.413132,205.153,0.103193
306.3000,1.01502,205.767,0.11208
306.2000,1.08577,205.898,0.113962
306.1000,0.218427,206.138,0.117431
306.0000,2.15173,205.89,0.113848
305.9000,1.2874,205.771,0.112129
305.8000,1.45866,205.388,0.106589
305.7000,1.93135,205.214,0.104079
305.6000,1.2107,205.256,0.104686
305.5000,-0.132649,205.656,0.110474
305.4000,1.64381,205.721,0.111408
305.3000,-0.077223,205.652,0.110409
305.2000,-0.315514,205.578,0.109344
305.1000,0.745881,205.587,0.109475
305.0000,0.402227,205.768,0.112096
304.9000,3.43407,205.816,0.112784
304.8000,1.16163,205.107,0.10252
304.7000,1.21309,205.911,0.114159
304.6000,-0.225574,205.997,0.115403
304.5000,0.264518,204.908,0.0996451
304.4000,2.52574,205.485,0.108
304.3000,1.109,205.763,0.112014
304.2000,0.240175,205.191,0.103735
304.1000,2.15007,204.925,0.0998916
304.0000,1.47727,205.435,0.107278
303.9000,0.81128,204.905,0.0995957
303.8000,1.35272,205.936,0.114519
303.7000,-0.152984,205.707,0.111212
303.6000,1.6216,204.556,0.0945309
303.5000,1.97459,205.368,0.106311
303.4000,1.27337,206.344,0.120406
303.3000,-0.130733,205.738,0.111654
303.2000,-1.09005,204.879,0.0992179
303.1000,2.8089,205.1,0.102421
303.0000,1.3086,204.821,0.0983793
302.9000,1.58098,205.732,0.111572
302.8000,1.21833,206.245,0.118984
302.7000,0.894653,205.554,0.109
302.6000,0.707233,205.356,0.10613
302.5000,0.478139,205.265,0.104818
302.4000,2.62621,205.091,0.10229
302.3000,1.63968,205.126,0.102799
302.2000,1.26383,205.093,0.102322
302.1000,0.622438,205.627,0.110049
302.0000,0.10795,205.107,0.10252
301.9000,0.800864,205.291,0.105195
301.8000,1.81043,205.736,0.111621
301.7000,0.830526,205.308,0.105441
301.6000,1.7414,204.971,0.100549
301.5000,0.789218,205.589,0.109508
301.4000,0.369471,204.613,0.0953536
301.3000,1.57478,205.33,0.105753
301.2000,1.76641,204.903,0.0995629
301.1000,1.61684,204.87,0.0990863
301.0000,2.26089,204.767,0.0975904
300.9000,1.3122,204.819,0.0983466
300.8000,1.1696,204.761,0.0975082
300.7000,2.29723,205.49,0.108065
300.6000,2.45306,205.211,0.10403
300.5000,0.400436,204.724,0.0969654
300.4000,1.82715,205.225,0.104227
300.3000,1.92543,205.514,0.10841
300.2000,0.235976,205.257,0.104703
300.1000,1.37944,205.809,0.112686
300.0000,2.8706,204.688,0.0964393
299.9000,1.24148,204.358,0.09165
299.8000,1.44184,205.115,0.102634
299.7000,1.68198,204.827,0.0984615
299.6000,1.98625,204.673,0.0962253
299.5000,1.66088,205.385,0.106557
299.4000,-0.00276668,204.367,0.0917815
299.3000,-0.688523,205.031,0.101419
299.2000,0.0889498,204.736,0.0971462
299.1000,3.05297,205.174,0.103488
299.0000,0.826091,204.66,0.0960444
298.9000,2.84372,205.029,0.101386
298.8000,1.05878,205.843,0.113177
298.7000,2.69397,205.034,0.101469
298.6000,-0.409939,204.812,0.098248
298.5000,1.94121,205.34,0.1059
298.4000,0.821934,204.59,0.0950246
298.3000,0.378345,205.236,0.104391
298.2000,2.12941,205.486,0.108016
298.1000,2.01204,203.676,0.0817217
298.0000,-0.326824,205.4,0.10677
297.9000,1.47811,205.775,0.112194
297.8000,1.51445,205.86,0.113422
297.7000,1.42335,204.502,0.0937408
297.6000,0.238161,203.687,0.0818869
297.5000,0.543591,204.544,0.0943497
297.4000,0.826686,204.905,0.0995957
297.3000,1.38002,204.964,0.10045
297.2000,1.58468,204.671,0.0961925
297.1000,0.599138,205.168,0.103406
297.0000,1.9226,204.789,0.0979192
296.9000,-0.186345,204.693,0.0965215
296.8000,-0.051451,204.521,0.0940205
296.7000,0.184358,204.791,0.0979356
296.6000,3.35818,204.63,0.0956004
296.5000,-0.682845,205.05,0.101699
296.4000,0.984812,204.801,0.0980836
296.3000,0.246479,204.258,0.0902003
296.2000,1.6943,205.035,0.101485
296.1000,0.930728,205.127,0.102815
296.0000,0.225862,204.897,0.0994807
295.9000,2.26117,204.862,0.0989713
295.8000,1.03315,205.334,0.105818
295.7000,0.395684,205.047,0.101649
295.6000,0.805135,205.016,0.101206
295.5000,0.694194,204.634,0.095666
295.4000,1.1724,206.204,0.118379
295.3000,2.17062,204.701,0.0966365
295.2000,0.534741,205.775,0.112194
295.1000,0.331171,204.153,0.0886676
295.0000,0.571327,206.021,0.115746
294.9000,-0.45813,203.952,0.0857491
294.8000,1.61629,205.086,0.102224
294.7000,2.23536,204.484,0.0934775
294.6000,1.06062,205.17,0.103439
294.5000,0.341726,204.588,0.0949915
294.4000,-0.355036,204.623,0.0955015
294.3000,2.06636,204.514,0.0939218
294.2000,2.67787,205.664,0.110589
294.1000,2.21946,205.681,0.110835
294.0000,0.680893,204.559,0.0945801
293.9000,3.05068,204.786,0.0978698
293.8000,1.58875,204.889,0.0993655
293.7000,0.166426,204.546,0.0943828
293.6000,0.51979,204.853,0.0988397
293.5000,0.747701,204.576,0.0948269
293.4000,-0.203187,205.356,0.10613
293.3000,0.295837,204.678,0.0963076
293.2000,1.46436,204.61,0.0953205
293.1000,1.8314,205.417,0.107016
293.0000,1.86207,205.072,0.102011
292.9000,1.11677,204.776,0.0977217
292.8000,0.494291,204.65,0.0958963
292.7000,2.12451,205.03,0.101403
292.6000,1.26394,204.748,0.0973107
292.5000,1.73975,203.63,0.0810611
292.4000,1.05467,204.32,0.0911063
292.3000,0.535087,203.977,0.0861118
292.2000,0.152647,204.044,0.0870849
292.1000,0.54827,204.428,0.0926708
292.0000,2.39816,203.737,0.0826135
291.9000,0.779053,202.614,0.0662145
291.8000,1.81997,203.49,0.0790123
291.7000,-0.0374359,203.856,0.0843466
291.6000,1.45187,203.982,0.0861779
291.5000,1.28979,203.449,0.0784173
291.4000,0.612385,204.26,0.0902331
291.3000,0.734689,204.144,0.0885359
291.2000,1.14376,204.823,0.0984124
291.1000,0.484248,204.786,0.0978698
291.0000,-0.0796945,204.709,0.0967518
290.9000,-0.0259347,203.562,0.0800699
290.8000,1.06629,204.589,0.0950079
290.7000,-0.337693,203.77,0.0830923
290.6000,0.375087,204.663,0.0960772
290.5000,0.39984,204.45,0.0929837
290.4000,1.39749,204.109,0.0880249
290.3000,0.459056,203.973,0.0860461
290.2000,-0.578973,203.788,0.0833564
290.1000,0.84577,205.252,0.104621
290.0000,1.61942,205.219,0.104145
289.9000,0.939536,205.463,0.107672
289.8000,1.33282,205.285,0.105097
289.7000,0.391922,204.369,0.0918147
289.6000,1.99032,204.059,0.0872994
289.5000,2.93084,203.551,0.0799047
289.4000,0.672715,204.566,0.0946788
289.3000,-0.0738351,204.658,0.0960117
289.2000,1.05788,204.66,0.0960444
289.1000,1.94027,205.21,0.104013
289.0000,1.97293,203.637,0.0811601
288.9000,0.656453,204.045,0.0871014
288.8000,1.70941,204.426,0.092638
288.7000,0.746526,204.801,0.0980836
288.6000,-0.762381,204.314,0.0910076
288.5000,0.321989,204.844,0.0987081
288.4000,0.0220203,204.816,0.0982971
288.3000,1.73207,205.214,0.104079
288.2000,-0.505145,204.12,0.0881898
288.1000,-0.0975213,203.724,0.0824319
288.0000,1.6745,204.079,0.087596
287.9000,0.558807,204.165,0.0888491
287.8000,1.26474,204.7,0.0966201
287.7000,-0.0567808,205.297,0.105277
287.6000,0.370066,203.595,0.0805491
287.5000,0.390417,204.218,0.0896236
287.4000,0.968992,205.797,0.112506
287.3000,1,203.784,0.0833067
287.2000,0.916839,204.642,0.0957813
287.1000,0.202983,203.245,0.0754408
287.0000,0.942855,205.346,0.105983
286.9000,1.08038,204.031,0.0869036
286.8000,2.0053,204.462,0.0931647
286.7000,2.13396,204.308,0.0909252
286.6000,1.53329,204.455,0.093066
286.5000,1.60124,204.26,0.0902331
286.4000,0.453906,204.317,0.0910568
286.3000,1.42307,205.551,0.10895
286.2000,1.74893,205.375,0.106409
286.1000,1.60557,205.002,0.101009
286.0000,0.392158,203.439,0.0782685
285.9000,-0.298714,204.934,0.100023
285.8000,-0.323045,204.936,0.10004
285.7000,0.232303,204.608,0.0952878
285.6000,-0.0615979,204.22,0.08964
285.5000,-0.078154,205.504,0.108278
285.4000,0.237679,205.598,0.109639
285.3000,0.405314,204.263,0.0902662
285.2000,0.235791,203.908,0.0851056
285.1000,0.0569069,204.631,0.0956168
285.0000,2.19774,203.679,0.0817714
284.9000,-0.202336,204.267,0.0903322
284.8000,1.82065,203.942,0.0856005
284.7000,0.848476,203.897,0.0849406
284.6000,0.793683,204.829,0.0984946
284.5000,2.15253,203.85,0.0842641
284.4000,-0.10912,204.396,0.0922096
284.3000,0.379761,204.779,0.0977712
284.2000,0.571876,204.146,0.0885687
284.1000,0.28009,204.754,0.0974096
284.0000,1.44979,204.811,0.0982317
283.9000,1.16123,203.675,0.0817053
283.8000,1.34922,204.439,0.0928354
283.7000,0.0119164,204.837,0.0986095
283.6000,-0.172719,204.649,0.0958799
283.5000,1.52161,205.136,0.102946
283.4000,-1.33174,204.007,0.0865409
283.3000,1.00455,203.6,0.0806152
283.2000,2.12693,205.296,0.105261
283.1000,0.695769,203.916,0.0852213
283.0000,1.17907,205.943,0.114617
282.9000,0.167333,204.65,0.0958963
282.8000,-0.0661042,205.216,0.104096
282.7000,1.14761,204.869,0.0990699
282.6000,0.58228,204.401,0.0922756
282.5000,0.749417,204.927,0.0999079
282.4000,0.497609,204.374,0.0918803
282.3000,1.13776,204.701,0.0966365
282.2000,0.610674,205.665,0.110605
282.1000,-0.236149,203.96,0.0858644
282.0000,2.16666,204.446,0.0929342
281.9000,1.39183,204.905,0.0995957
281.8000,1.07436,203.669,0.0816227
281.7000,1.05977,204.808,0.0981822
281.6000,1.0494,204.207,0.0894588
281.5000,1.66322,204.082,0.0876456
281.4000,1.19283,205.541,0.108803
281.3000,2.57344,204.864,0.0990041
281.2000,0.448242,203.401,0.0777231
281.1000,2.62623,204.062,0.0873487
281.0000,1.30872,202.599,0.0659988
280.9000,0.0266148,204.767,0.0975904
280.8000,-0.71024,203.711,0.0822336
280.7000,0.979591,205.115,0.102634
280.6000,0.169058,204.664,0.0960939
280.5000,0.582478,204.417,0.0925061
280.4000,-0.870292,204.085,0.0876785
280.3000,0.522673,206.142,0.117496
280.2000,0.920491,204.596,0.0951068
280.1000,1.35579,204.199,0.0893436
280.0000,0.0999063,203.122,0.073637
279.9000,1.86687,205.723,0.111441
279.8000,-0.495237,204.42,0.0925557
279.7000,-0.310696,202.736,0.0680051
279.6000,1.25129,203.702,0.0821017
279.5000,0.796866,203.977,0.0861118
279.4000,1.15994,204.404,0.0923251
279.3000,0.0845076,205.451,0.107508
279.2000,0.518806,204.74,0.0971957
279.1000,2.11352,202.867,0.069911
279.0000,0.163567,203.847,0.0842145
278.9000,0.770224,204.45,0.0929837
278.8000,2.14711,204.451,0.0930001
278.7000,-0.169709,203.183,0.0745308
278.6000,0.567449,203.626,0.0809949
278.5000,0.876734,204.358,0.09165
278.4000,1.53405,203.646,0.0812924
278.3000,1.35809,203.727,0.0824648
278.2000,1.9568,204.961,0.100401
278.1000,1.41533,204.288,0.0906285
278.0000,0.0821282,204.561,0.0945965
277.9000,0.88702,204.318,0.0910735
277.8000,2.32536,204.193,0.0892612
277.7000,0.777038,204.343,0.0914357
277.6000,-0.400231,205.338,0.105868
277.5000,0.251181,204.865,0.0990205
277.4000,0.534223,204.894,0.0994313
277.3000,2.05033,204.518,0.0939713
277.2000,0.76203,204.05,0.0871674
277.1000,-0.392931,204.523,0.0940536
277.0000,0.479037,204.75,0.0973438
276.9000,0.344641,205.49,0.108065
276.8000,0.82619,204.257,0.0901839
276.7000,1.64126,203.926,0.0853695
276.6000,1.69065,204.911,0.0996778
276.5000,1.98021,204.417,0.0925061
276.4000,0.344634,203.825,0.0839012
276.3000,0.513545,205.628,0.110065
276.2000,-0.297336,204.525,0.0940864
276.1000,0.336685,204.234,0.0898543
276.0000,1.18667,204.901,0.0995299
275.9000,0.873688,204.446,0.0929342
275.8000,-0.860878,205.364,0.106245
275.7000,0.80425,206.298,0.119736
275.6000,1.3116,204.964,0.10045
275.5000,1.13364,203.839,0.0840991
275.4000,0.446162,204.231,0.0898048
275.3000,0.0318466,204.059,0.0872994
275.2000,0.0773169,204.559,0.0945801
275.1000,0.602546,204.819,0.0983466
275.0000,-0.441299,204.088,0.0877281
274.9000,1.62565,203.925,0.0853531
274.8000,1.69405,204.76,0.0974918
274.7000,-0.220004,205.842,0.11316
274.6000,1.26943,205.642,0.110261
274.5000,1.57788,204.851,0.098807
274.4000,-0.626724,204.056,0.0872663
274.3000,1.46807,205.021,0.101272
274.2000,1.24955,204.171,0.0889315
274.1000,1.17231,204.573,0.0947778
274.0000,2.04504,204.569,0.0947119
273.9000,0.453543,204.71,0.0967682
273.8000,0.418411,204.712,0.096801
273.7000,0.193991,205.179,0.10357
273.6000,1.9595,204.139,0.0884699
273.5000,-0.365698,205.86,0.113422
273.4000,1.6242,204.119,0.0881731
273.3000,0.875767,203.735,0.0825806
273.2000,0.955063,204.171,0.0889315
273.1000,0.235346,205.629,0.110081
273.0000,-0.334427,206.089,0.116727
272.9000,1.09666,204.978,0.100647
272.8000,2.34324,204.395,0.0921932
272.7000,1.18863,204.658,0.0960117
272.6000,-0.467611,204.286,0.0906121
272.5000,-0.893085,204.784,0.097837
272.4000,2.44127,205.205,0.103948
272.3000,0.537805,205.802,0.112587
272.2000,0.493915,205.163,0.103341
272.1000,-0.622037,205.687,0.110917
272.0000,2.62361,204.479,0.0934116
271.9000,-1.0665,205.569,0.109213
271.8000,0.0372335,205.575,0.109294
271.7000,1.34829,204.102,0.0879258
271.6000,0.9701,205.282,0.105064
271.5000,-0.184157,204.451,0.0930001
271.4000,0.991567,204.413,0.0924566
271.3000,-1.19999,204.46,0.0931319
271.2000,-0.0936425,204.97,0.100532
271.1000,0.137522,204.947,0.100204
271.0000,0.117505,205.187,0.103685
270.9000,0.776453,204.578,0.0948433
270.8000,1.30025,204.29,0.0906617
270.7000,0.708604,204.158,0.08875
270.6000,1.25619,205.56,0.109082
270.5000,0.849019,205.576,0.109311
270.4000,0.790751,205.229,0.104292
270.3000,0.85805,204.505,0.0937903
270.2000,1.84347,205.232,0.104342
270.1000,-0.345246,206.028,0.115844
270.0000,-0.270115,205.649,0.110376
269.9000,1.17006,204.352,0.0915676
269.8000,1.5289,204.013,0.0866398
269.7000,3.03131,205.23,0.104309
269.6000,0.0360035,205.337,0.105851
269.5000,1.83636,203.994,0.0863592
269.4000,2.05732,205.023,0.101304
269.3000,0.809255,206.299,0.119752
269.2000,-0.179304,204.894,0.0994313
269.1000,0.451785,205.004,0.101025
269.0000,0.0846913,204.981,0.100697
268.9000,1.03861,205.744,0.111736
268.8000,1.5321,205.915,0.114208
268.7000,0.621742,205.502,0.108246
268.6000,1.43067,206.126,0.117267
268.5000,1.15808,205.128,0.102832
268.4000,0.701629,205.836,0.113079
268.3000,1.45781,205.788,0.112374
268.2000,2.00814,205.774,0.112178
268.1000,1.36411,205.597,0.109622
268.0000,-0.070487,204.578,0.0948433
267.9000,1.11083,204.685,0.0964062
267.8000,0.212063,205.38,0.106475
267.7000,0.902395,205.189,0.103718
267.6000,1.30162,204.978,0.100647
267.5000,0.292662,206.116,0.11712
267.4000,0.251445,205.929,0.114421
267.3000,0.820602,204.914,0.0997272
267.2000,0.205777,205.52,0.108508
267.1000,-0.497856,205.175,0.103505
267.0000,1.34669,206.163,0.11779
266.9000,1.44013,206.5,0.12266
266.8000,1.42315,205.506,0.108295
266.7000,0.369367,205.947,0.114682
266.6000,1.194,205.508,0.108328
266.5000,-0.303712,205.64,0.110245
266.4000,0.48092,206.329,0.120193
266.3000,-2.21378,207.013,0.130033
266.2000,0.861362,205.538,0.10877
266.1000,1.00463,205.796,0.112489
266.0000,0.662217,206.136,0.117398
265.9000,1.10755,207.096,0.131238
265.8000,1.42454,205.019,0.101255
265.7000,1.20198,206.272,0.11936
265.6000,1.97674,205.393,0.106671
265.5000,-0.713563,205.873,0.113602
265.4000,-1.64538,206.461,0.122088
265.3000,0.0950508,206.771,0.12656
265.2000,1.90265,206.232,0.118788
265.1000,0.157423,206.856,0.127783
265.0000,1.68258,205.614,0.109868
264.9000,0.873905,205.831,0.112997
264.8000,0.595018,206.23,0.118755
264.7000,1.68629,206.628,0.124504
264.6000,-0.0121922,206.234,0.118821
264.5000,0.397039,206.48,0.122366
264.4000,0.825424,206.33,0.12021
264.3000,1.1622,206.475,0.1223
264.2000,0.303558,206.279,0.119474
264.1000,0.840374,207.098,0.131255
264.0000,2.94045,206.656,0.124896
263.9000,0.14446,206.75,0.12625
263.8000,0.478122,207.103,0.131336
263.7000,-0.162235,206.613,0.124276
263.6000,-0.763643,207.509,0.137163
263.5000,-0.22396,205.945,0.11465
263.4000,1.05196,207.054,0.130636
263.3000,1.4628,206.214,0.118526
263.2000,0.09674,206.656,0.124896
263.1000,0.0276467,205.946,0.114666
263.0000,-0.209818,207.169,0.132281
262.9000,0.393572,207.128,0.131695
262.8000,1.04845,206.386,0.12101
262.7000,-0.244861,206.838,0.127522
262.6000,0.161066,206.549,0.123362
262.5000,-0.883365,206.307,0.119867
262.4000,1.15325,207.832,0.141795
262.3000,0.696979,207.068,0.130831
262.2000,1.90183,206.6,0.124096
262.1000,-0.0913071,207.537,0.13757
262.0000,0.346036,207.425,0.135959
261.9000,-0.723614,207.229,0.133144
261.8000,-0.996823,207.288,0.13399
261.7000,2.01931,206.475,0.1223
261.6000,1.53848,207.799,0.141324
261.5000,-0.430706,207.12,0.13158
261.4000,0.586926,207.306,0.134251
261.3000,0.885493,207.68,0.139618
261.2000,2.22805,208.531,0.151803
261.1000,1.55787,208.242,0.14767
261.0000,1.50783,207.128,0.131695
260.9000,-0.808504,206.332,0.120226
260.8000,0.222605,207.468,0.136578
260.7000,1.46518,208.206,0.147151
260.6000,1.45849,208.228,0.147476
260.5000,0.00152663,206.58,0.123803
260.4000,0.439594,208.005,0.144279
260.3000,0.565823,206.709,0.125663
260.2000,0.0556342,208.175,0.146713
260.1000,-0.129843,206.371,0.120798
260.0000,-1.113,207.118,0.131548
259.9000,0.659373,206.585,0.123884
259.8000,-0.961345,208.131,0.146081
259.7000,1.18131,207.911,0.142932
259.6000,0.938333,209.029,0.158923
259.5000,0.765832,208.018,0.144458
259.4000,1.07204,207.661,0.139342
259.3000,0.362703,207.56,0.137895
259.2000,2.47463,207.669,0.139455
259.1000,-0.0884434,208.014,0.144409
259.0000,0.500851,208.776,0.1553
258.9000,1.72062,206.47,0.122219
258.8000,1.5355,207.827,0.14173
258.7000,1.60128,208.395,0.149859
258.6000,0.430451,209.329,0.163188
258.5000,1.53048,207.748,0.140593
258.4000,1.14179,207.919,0.143045
258.3000,0.679576,207.997,0.144166
258.2000,0.0675374,207.101,0.131304
258.1000,0.338699,208.176,0.14673
258.0000,0.22355,209.069,0.159489
257.9000,-1.04593,208.47,0.150928
257.8000,-0.836597,209.239,0.161912
257.7000,1.26467,208.438,0.150474
257.6000,1.08969,208.751,0.154944
257.5000,0.383902,208.228,0.147476
257.4000,1.80105,208.339,0.149064
257.3000,0.702395,208.692,0.154102
257.2000,1.10328,208.769,0.155203
257.1000,0.592211,209.867,0.17085
257.0000,2.93438,209.043,0.159117
256.9000,1.6662,208.163,0.146535
256.8000,0.512862,208.505,0.15143
256.7000,0.29818,208.565,0.152289
256.6000,-0.892758,209.579,0.166755
256.5000,1.83146,208.039,0.144766
256.4000,2.31893,207.547,0.137716
256.3000,-0.10175,209.934,0.1718
256.2000,2.83332,209.204,0.161412
256.1000,1.25593,210.249,0.176276
256.0000,0.383196,209.564,0.166545
255.9000,0.683449,209.068,0.159472
255.8000,1.68523,208.997,0.158454
255.7000,0.124617,208.713,0.15441
255.6000,-0.471763,211.055,0.187713
255.5000,-0.438473,208.976,0.158163
255.4000,0.606565,209.39,0.16406
255.3000,1.12813,208.849,0.156351
255.2000,1.7575,209.814,0.170093
255.1000,0.343861,209.045,0.159149
255.0000,0.624622,209.142,0.160523
254.9000,0.291722,208.823,0.155979
254.8000,0.473665,209.587,0.166868
254.7000,0.317279,209.265,0.162284
254.6000,0.704421,209.233,0.161831
254.5000,1.5092,209.131,0.160377
254.4000,0.0884451,209.939,0.171881
254.3000,0.295086,210.13,0.174586
254.2000,1.75924,209.205,0.161428
254.1000,0.711669,208.973,0.158114
254.0000,1.4953,208.825,0.156012
253.9000,1.25689,209.245,0.161993
253.8000,1.28421,209.551,0.166351
253.7000,1.82512,209.887,0.17114
253.6000,-0.206124,209.945,0.171961
253.5000,1.13043,209.628,0.167448
253.4000,0.151768,210.387,0.178238
253.3000,1.11888,209.797,0.169851
253.2000,1.69201,209.378,0.163899
253.1000,2.62254,209.401,0.164221
253.0000,0.385057,208.706,0.154313
252.9000,-0.487542,210.028,0.173137
252.8000,0.881633,209.451,0.164932
252.7000,-0.955009,209.577,0.166723
252.6000,0.096577,210.507,0.179942
252.5000,0.479583,210.361,0.177868
252.4000,-0.814032,208.974,0.15813
252.3000,0.9807,210.556,0.180633
252.2000,1.33395,210.101,0.174183
252.1000,-0.248823,210.882,0.185258
252.0000,0.0951651,209.88,0.171043
251.9000,-0.0127396,210.195,0.175519
251.8000,0.622034,209.404,0.16427
251.7000,1.95461,210.676,0.182336
251.6000,1.24418,210.593,0.181163
251.5000,-0.496021,210.515,0.180054
251.4000,-0.270872,210.837,0.184616
251.3000,0.867043,211.076,0.188001
251.2000,0.377406,209.61,0.16719
251.1000,2.43332,210.831,0.184536
251.0000,2.18303,209.923,0.171655
250.9000,0.428983,210.483,0.179605
250.8000,0.883729,210.696,0.182625
250.7000,-1.21666,210.313,0.177193
250.6000,-0.568008,211.165,0.189268
250.5000,1.14815,210.681,0.182416
250.4000,-0.863303,210.722,0.182995
250.3000,-0.229219,210.837,0.184616
250.2000,1.02141,211.098,0.188322
250.1000,0.841347,211.154,0.189108
250.0000,0.281483,211.07,0.187921
249.9000,0.0240879,211.699,0.196811
249.8000,0.897933,210.434,0.178913
249.7000,3.00456,210.77,0.183669
249.6000,-0.940919,211.257,0.190566
249.5000,1.2933,210.668,0.182224
249.4000,0.535799,210.517,0.180087
249.3000,2.77782,211.358,0.191992
249.2000,1.29852,210.635,0.181758
249.1000,-0.424492,211.417,0.192826
249.0000,0.295702,211.398,0.192553
248.9000,-0.35877,211.081,0.188082
248.8000,1.29429,211.016,0.187152
248.7000,-0.322791,211.228,0.19015
248.6000,0.281934,211.067,0.187873
248.5000,-0.600047,211.187,0.189573
248.4000,-0.801544,211.77,0.197819
248.3000,0.658623,211.634,0.195899
248.2000,-1.33002,211.291,0.191047
248.1000,-0.833331,212.534,0.208583
248.0000,-0.160231,211.054,0.187697
247.9000,1.34622,211.801,0.19825
247.8000,2.04239,212.405,0.206764
247.7000,1.10313,211.206,0.189845
247.6000,-0.546957,211.27,0.190743
247.5000,2.6302,211.748,0.197499
247.4000,0.660728,211.536,0.194507
247.3000,0.738061,212.072,0.202071
247.2000,0.692086,211.911,0.199802
247.1000,0.475016,212.153,0.203221
247.0000,-0.572444,210.792,0.18399
246.9000,0.594228,211.209,0.189893
246.8000,0.433461,211.947,0.200313
246.7000,-0.254818,212.011,0.201208
246.6000,1.21582,212.617,0.209746
246.5000,0.203608,211.664,0.196315
246.4000,-0.0893602,211.699,0.196811
246.3000,-0.62117,213.596,0.223493
246.2000,2.72543,212.329,0.205695
246.1000,1.32745,211.211,0.189909
246.0000,0.812101,211.71,0.196971
245.9000,0.910577,213.481,0.221889
245.8000,1.17708,212.309,0.205408
245.7000,0.487495,213.016,0.215353
245.6000,-0.0867343,213.641,0.224129
245.5000,1.33753,213.811,0.226509
245.4000,1.92338,212.807,0.212423
245.3000,1.38766,211.709,0.196955
245.2000,0.204039,212.839,0.21287
245.1000,0.480094,212.869,0.213299
245.0000,-0.304986,212.54,0.208662
244.9000,0.901745,212.577,0.209188
244.8000,-0.158944,213.246,0.218583
244.7000,0.629869,211.43,0.193018
244.6000,1.49374,212.804,0.212376
244.5000,1.80566,212.287,0.205104
244.4000,1.67376,212.727,0.211292
244.3000,-0.60195,213.372,0.220364
244.2000,2.08178,212.81,0.212471
244.1000,-0.977133,213.493,0.222048
244.0000,-0.494037,212.953,0.214478
243.9000,1.12103,213.428,0.221142
243.8000,0.992687,213.129,0.216945
243.7000,1.77274,213.818,0.226605
243.6000,0.503903,213.355,0.220125
243.5000,-1.07418,212.987,0.214955
243.4000,1.27597,213.482,0.221905
243.3000,0.361575,213.691,0.224827
243.2000,1.81488,212.806,0.212408
243.1000,-0.00891021,213.6,0.223557
243.0000,0.945052,213.877,0.22743
242.9000,0.251603,213.235,0.21844
242.8000,1.51286,213.125,0.216897
242.7000,1.68883,212.776,0.211993
242.6000,1.5661,214.731,0.239372
242.5000,0.248284,213.992,0.229047
242.4000,2.71269,212.602,0.209539
242.3000,2.04084,214.295,0.233279
242.2000,2.15127,212.277,0.204961
242.1000,-0.794192,214.226,0.232312
242.0000,-0.0862763,213.804,0.226414
241.9000,0.884796,214.314,0.233548
241.8000,1.3608,213.877,0.22743
241.7000,1.5791,214.748,0.239609
241.6000,0.175689,214.315,0.233564
241.5000,0.39641,214.79,0.240194
241.4000,1.09918,214.152,0.231282
241.3000,0.560179,214.415,0.234957
241.2000,0.900949,214.788,0.240162
241.1000,-1.71106,214.477,0.235828
241.0000,0.063498,215.057,0.243922
240.9000,0.897352,214.687,0.238755
240.8000,-0.636118,214.311,0.2335
240.7000,-0.0382717,214.886,0.241537
240.6000,1.81648,214.725,0.239292
240.5000,-0.91517,214.433,0.235211
240.4000,-0.212449,214.746,0.239577
240.3000,0.194414,215.658,0.252282
240.2000,1.52297,215.011,0.243275
240.1000,0.511198,215.397,0.248657
240.0000,1.74287,215.355,0.248073
239.9000,0.218336,215.528,0.25047
239.8000,-0.582376,215.681,0.252598
239.7000,0.284135,215.497,0.250045
239.6000,-0.560737,215.73,0.253291
239.5000,1.96688,215.265,0.246811
239.4000,1.42208,215.355,0.248073
239.3000,0.232174,216.045,0.257667
239.2000,-0.967282,215.438,0.249224
239.1000,2.67611,215.744,0.25348
239.0000,2.4012,217.408,0.276544
238.9000,1.74435,215.487,0.249903
238.8000,1.58126,215.906,0.255731
238.7000,2.76789,216.409,0.262714
238.6000,1.08462,215.822,0.254566
238.5000,-0.581355,217.516,0.278031
238.4000,0.746646,216.508,0.26408
238.3000,-0.775721,216.565,0.264881
238.2000,-0.880763,216.24,0.260372
238.1000,1.11578,216.513,0.264159
238.0000,0.387854,215.081,0.244254
237.9000,-0.551232,217.271,0.27465
237.8000,0.525271,216.236,0.260309
237.7000,-0.35193,218.126,0.286438
237.6000,0.983851,215.77,0.253842
237.5000,-1.36078,216.991,0.27078
237.4000,1.81105,217.029,0.271297
237.3000,1.53695,218.457,0.290993
237.2000,1.28818,217.33,0.275464
237.1000,1.62566,217.44,0.276982
237.0000,1.62801,218.315,0.289044
236.9000,0.65178,217.449,0.277107
236.8000,1.50833,217.896,0.283268
236.7000,0.904891,218.071,0.285689
236.6000,-0.533605,217.972,0.284315
236.5000,0.121295,217.851,0.282658
236.4000,2.15705,217.416,0.276654
236.3000,0.679536,218.308,0.28895
236.2000,1.90508,218.17,0.287047
236.1000,0.986786,217.418,0.276669
236.0000,0.739849,217.7,0.280564
235.9000,0.757233,217.84,0.282502
235.8000,-0.259129,218.384,0.289995
235.7000,0.0045277,218.263,0.288326
235.6000,1.66287,218.621,0.293252
235.5000,1.96945,218.393,0.29012
235.4000,0.0859317,219.5,0.305322
235.3000,1.16458,218.491,0.29146
235.2000,1.58067,218.696,0.294281
235.1000,0.983647,218.239,0.287998
235.0000,-0.226752,218.563,0.292458
234.9000,1.67884,218.919,0.297348
234.8000,-0.159994,218.607,0.293066
234.7000,0.764052,219.51,0.305462
234.6000,1.52402,218.284,0.288623
234.5000,2.16766,219.328,0.302961
234.4000,-0.819918,218.392,0.290104
234.3000,0.167678,218.63,0.293377
234.2000,1.99521,220.198,0.314875
234.1000,-1.46742,219.066,0.29937
234.0000,0.403922,219.958,0.31159
233.9000,2.28505,219.94,0.311342
233.8000,0.786731,219.071,0.299433
233.7000,0.616627,220.095,0.313465
233.6000,2.59381,219.961,0.311637
233.5000,1.97435,220.598,0.320338
233.4000,0.262829,220.618,0.320617
233.3000,1.8787,220.592,0.320261
233.2000,0.960087,220.778,0.322796
233.1000,1.88132,220.613,0.320539
233.0000,1.06777,220.402,0.317662
232.9000,-0.0277084,220.303,0.316315
232.8000,1.34872,220.844,0.323693
232.7000,1.11924,221.179,0.328263
232.6000,0.315549,221.166,0.328078
232.5000,-0.566269,220.365,0.317151
232.4000,0.528749,220.91,0.324588
232.3000,-0.0164322,221.262,0.329389
232.2000,3.63634,222.164,0.341648
232.1000,1.31787,218.953,0.297815
232.0000,2.04828,220.161,0.314364
231.9000,1.06949,222.176,0.341817
231.8000,0.809977,221.562,0.333475
231.7000,-0.399157,221.853,0.337433
231.6000,-0.0991298,221.698,0.335323
231.5000,2.22182,222.887,0.351444
231.4000,0.383337,221.175,0.328201
231.3000,2.12437,222.116,0.341002
231.2000,0.525178,221.931,0.338479
231.1000,0.87081,222.18,0.341863
231.0000,0.513432,221.663,0.334846
230.9000,0.45783,222.037,0.339925
230.8000,-0.590139,221.725,0.335693
230.7000,-0.394398,221.846,0.337325
230.6000,0.481882,221.724,0.335678
230.5000,1.70356,222.19,0.342001
230.4000,-0.433572,222.839,0.3508
230.3000,1.28281,222.936,0.352103
230.2000,0.175167,223.252,0.356378
230.1000,2.21819,221.73,0.335755
230.0000,1.26672,222.43,0.345259
229.9000,1.98191,222.312,0.343661
229.8000,2.03544,223.044,0.353574
229.7000,2.31286,224.39,0.371735
229.6000,0.798109,221.985,0.339218
229.5000,-0.0127238,222.151,0.341479
229.4000,1.24854,221.42,0.331533
229.3000,1.9371,222.898,0.351597
229.2000,1.54497,224.47,0.372802
229.1000,2.39316,225.205,0.382682
229.0000,1.16043,222.533,0.346657
228.9000,1.49391,222.601,0.347578
228.8000,1.4634,222.633,0.348007
228.7000,-0.707228,224.115,0.368027
228.6000,1.36922,223.187,0.355505
228.5000,1.25245,224.423,0.372177
228.4000,0.718553,222.352,0.344199
228.3000,0.640706,224.692,0.375789
228.2000,2.02332,223.797,0.363736
228.1000,2.65453,224.275,0.370179
228.0000,2.90612,224.606,0.374631
227.9000,1.08059,224.333,0.370957
227.8000,1.87462,225.206,0.382697
227.7000,1.10934,224.835,0.377707
227.6000,0.360527,223.979,0.366195
227.5000,0.43727,224.601,0.37457
227.4000,-1.42533,225.019,0.380188
227.3000,0.589964,225.752,0.390018
227.2000,0.692696,225.683,0.389092
227.1000,1.23643,224.841,0.377798
227.0000,2.16454,225.247,0.383244
226.9000,0.57938,224.752,0.376596
226.8000,-0.680697,226.473,0.399655
226.7000,2.07115,224.91,0.378727
226.6000,1.32588,225.461,0.386116
226.5000,1.77857,227.27,0.410278
226.4000,0.395473,226.786,0.403829
226.3000,2.27399,225.597,0.387939
226.2000,0.0723164,227.131,0.408436
226.1000,1.89828,226.684,0.402468
226.0000,0.23035,226.19,0.39587
225.9000,1.01726,226.208,0.396112
225.8000,1.09746,227.615,0.414877
225.7000,1.66358,226.659,0.402136
225.6000,2.78413,227.497,0.413309
225.5000,3.34263,226.233,0.396445
225.4000,1.09756,226.526,0.400366
225.3000,-0.490163,227.411,0.412163
225.2000,1.34543,227.148,0.408663
225.1000,0.113451,227.27,0.410278
225.0000,0.626535,227.443,0.412586
224.9000,0.785824,228.586,0.427769
224.8000,-0.191799,228.838,0.431102
224.7000,2.38216,228.16,0.422119
224.6000,2.05832,227.47,0.412948
224.5000,2.5823,228.877,0.431627
224.4000,2.77775,229.145,0.435166
224.3000,0.468664,228.686,0.429091
224.2000,0.525161,228.11,0.421457
224.1000,1.61516,228.688,0.429121
224.0000,1.68827,227.396,0.411967
223.9000,-0.77355,230.075,0.447449
223.8000,1.08333,228.867,0.431492
223.7000,1.81685,229.224,0.436215
223.6000,1.2445,228.672,0.42891
223.5000,-1.16284,230.435,0.452196
223.4000,0.532983,229.385,0.438341
223.3000,0.287413,228.712,0.429436
223.2000,0.434328,229.089,0.434431
223.1000,1.40262,229.231,0.436304
223.0000,2.48407,230.328,0.450779
222.9000,2.01218,229.907,0.445238
222.8000,2.1198,231.123,0.46124
222.7000,1.75231,229.505,0.439928
222.6000,0.839948,230.825,0.457324
222.5000,1.45877,230.499,0.453032
222.4000,0.9766,230.331,0.450823
222.3000,-0.185719,230.532,0.453464
222.2000,0.513916,230.463,0.452554
222.1000,2.38111,230.383,0.45151
222.0000,2.80421,231.678,0.468525
221.9000,1.29776,231.692,0.468703
221.8000,2.67355,230.041,0.447001
221.7000,3.01042,231.979,0.472458
221.6000,0.296171,231.391,0.46475
221.5000,3.40318,231.059,0.460392
221.4000,1.08081,231.776,0.469802
221.3000,0.349313,230.885,0.458114
221.2000,2.10162,231.746,0.469416
221.1000,1.38332,232.258,0.476121
221.0000,-0.0159249,232.181,0.475113
220.9000,2.28437,230.778,0.456699
220.8000,0.39016,232.743,0.482459
220.7000,2.32111,231.429,0.465256
220.6000,2.60635,231.66,0.468287
220.5000,0.940274,232.251,0.476017
220.4000,-0.949425,233.02,0.486067
220.3000,0.240146,232.46,0.478758
220.2000,-1.64175,231.35,0.464215
220.1000,0.912367,232.27,0.476269
220.0000,3.09922,234.678,0.507628
219.9000,-0.227446,232.796,0.483139
219.8000,2.00915,233.163,0.487929
219.7000,-1.52475,234.195,0.501363
219.6000,0.440227,232.622,0.480875
219.5000,1.12829,232.87,0.484115
219.4000,0.0742068,232.669,0.481482
219.3000,0.0697057,233.864,0.497062
219.2000,1.93228,233.305,0.48979
219.1000,0.460031,235.004,0.511858
219.0000,0.374256,233.624,0.493937
218.9000,2.24131,232.969,0.485402
218.8000,0.993409,234.392,0.503923
218.7000,1.48756,233.228,0.488786
218.6000,2.98139,234.374,0.503688
218.5000,1.88788,234.621,0.506893
218.4000,1.38384,234.98,0.51155
218.3000,3.3379,234.406,0.5041
218.2000,2.04606,233.65,0.494276
218.1000,2.26721,234.893,0.510419
218.0000,-0.95326,234.376,0.503717
217.9000,2.5795,234.563,0.506144
217.8000,1.03236,234.076,0.499817
217.7000,1.09624,235.578,0.519292
217.6000,1.4312,234.605,0.506688
217.5000,0.507298,234.985,0.511608
217.4000,1.31974,235.425,0.517314
217.3000,1.82458,235.355,0.516405
217.2000,0.0411112,236.367,0.529473
217.1000,1.39,235.87,0.523055
217.0000,3.89565,236.09,0.525907
216.9000,1.32898,236.39,0.529765
216.8000,1.43472,235.876,0.523142
216.7000,1.594,236.138,0.526521
216.6000,1.1788,236.327,0.528962
216.5000,1.54541,236.394,0.529823
216.4000,2.98309,235.89,0.523318
216.3000,1.92578,237.416,0.542975
216.2000,1.44961,236.439,0.530408
216.1000,1.57329,236.127,0.526375
216.0000,1.46413,236.97,0.537236
215.9000,3.23423,237.591,0.545216
215.8000,2.9346,237.689,0.546481
215.7000,-0.215273,236.673,0.533415
215.6000,1.45968,237.567,0.54491
215.5000,1.36608,237.578,0.545056
215.4000,1.02648,236.302,0.52864
215.3000,1.33056,237.265,0.541039
215.2000,1.42752,237.86,0.548676
215.1000,-1.02232,237.654,0.54603
215.0000,1.9445,237.652,0.546001
214.9000,2.61393,237.592,0.54523
214.8000,0.68811,238.337,0.554789
214.7000,0.804536,238.027,0.550812
214.6000,1.82251,237.872,0.548821
214.5000,2.50391,237.733,0.547048
214.4000,-0.172089,239.239,0.566319
214.3000,2.29223,239.904,0.574799
214.2000,0.657381,237.176,0.539888
214.1000,1.41995,239.217,0.56603
214.0000,0.628661,238.215,0.553222
213.9000,2.74148,239.172,0.565466
213.8000,-0.744883,239.12,0.5648
213.7000,2.28367,238.354,0.555006
213.6000,1.30945,239.27,0.56671
213.5000,3.56494,239.436,0.568835
213.4000,-0.472403,239.869,0.574352
213.3000,5.37418,239.333,0.567519
213.2000,2.78959,239.605,0.570987
213.1000,0.400529,239.751,0.57285
213.0000,0.238059,239.268,0.566681
212.9000,2.57875,239.026,0.563599
212.8000,5.40429,239.476,0.56934
212.7000,0.30036,238.34,0.554818
212.6000,0.904306,240.361,0.58061
212.5000,3.65482,239.448,0.568979
212.4000,-0.701412,240.131,0.577684
212.3000,-0.0596575,241.162,0.590781
212.2000,2.03956,240.225,0.57888
212.1000,-0.915014,240.087,0.577121
212.0000,0.198103,241.999,0.601383
211.9000,1.20785,241.414,0.593969
211.8000,0.294082,241.395,0.593739
211.7000,1.00011,241.023,0.589013
211.6000,1.54187,241.376,0.593495
211.5000,1.18319,241.725,0.597915
211.4000,1.16597,241.087,0.589833
211.3000,2.34135,242.127,0.603002
211.2000,0.921512,241.957,0.600853
211.1000,1.25353,242.138,0.60313
211.0000,1.18895,242.329,0.60555
210.9000,0.390341,242.054,0.602071
210.8000,1.81958,243.466,0.619875
210.7000,4.34015,242.807,0.611583
210.6000,1.21371,242.13,0.60303
210.5000,0.23382,242.33,0.605564
210.4000,2.46159,241.731,0.597986
210.3000,0.764649,245.154,0.641054
210.2000,0.830775,244.532,0.633264
210.1000,5.47508,243.675,0.622511
210.0000,-0.290876,243.447,0.619647
209.9000,2.73858,243.127,0.61561
209.8000,2.26895,244.133,0.628261
209.7000,2.296,243.605,0.621628
209.6000,0.498785,242.316,0.605378
209.5000,2.48582,243.787,0.623921
209.4000,3.9158,244.873,0.637537
209.3000,1.27013,245.09,0.64026
209.2000,2.2786,245.198,0.641606
209.1000,-0.316644,243.786,0.623907
209.0000,-1.18481,245.039,0.639622
208.9000,1.28112,244.311,0.630494
208.8000,2.34236,244.314,0.630536
208.7000,1.16247,245.289,0.64274
208.6000,0.706274,245.124,0.640685
208.5000,1.10294,245.157,0.641096
208.4000,3.56091,246.003,0.651654
208.3000,0.458407,246.057,0.652333
208.2000,2.47584,246.761,0.661097
208.1000,-1.54714,246.782,0.661365
208.0000,2.92026,246.021,0.651881
207.9000,1.51364,246.63,0.659476
207.8000,2.63333,246.406,0.656682
207.7000,1.13775,245.22,0.641876
207.6000,1.08298,246.374,0.656287
207.5000,1.64652,248.079,0.67747
207.4000,1.88657,247.971,0.676122
207.3000,0.30848,247.207,0.666647
207.2000,-1.03582,248.101,0.677737
207.1000,0.0682289,247.085,0.665127
207.0000,0.875185,247.701,0.672779
206.9000,0.607764,248.164,0.678522
206.8000,2.0263,248.802,0.686414
206.7000,-0.0383304,248.583,0.683696
206.6000,2.80482,248.306,0.680276
206.5000,1.54066,247.712,0.67292
206.4000,1.06715,249.243,0.691856
206.3000,2.37638,249.235,0.691758
206.2000,2.50972,249.82,0.698965
206.1000,2.9994,250.051,0.701811
206.0000,0.0276092,249.59,0.696132
205.9000,0.9835,248.435,0.681874
205.8000,1.01346,251.21,0.716047
205.7000,2.95612,250.838,0.711489
205.6000,1.85545,249.742,0.698002
205.5000,2.6186,249.947,0.700528
205.4000,-0.251305,249.937,0.700402
205.3000,1.47069,250.167,0.703233
205.2000,1.45431,251.458,0.719088
205.1000,2.6996,250.097,0.702382
205.0000,-2.06591,250.865,0.711809
204.9000,1.89005,251.212,0.716075
204.8000,2.24158,251.169,0.715547
204.7000,0.443838,252.805,0.735553
204.6000,0.172402,252.524,0.732125
204.5000,-0.681852,252.11,0.727059
204.4000,2.00541,252.758,0.734973
204.3000,0.777609,253.295,0.741517
204.2000,2.35058,252.736,0.73471
204.1000,0.377682,253.067,0.738743
204.0000,3.19624,252.47,0.731461
203.9000,1.85521,253.778,0.74739
203.8000,2.80527,254.421,0.755204
203.7000,-1.24331,253.526,0.74433
203.6000,0.208206,254.158,0.752014
203.5000,0.969359,254.336,0.754173
203.4000,2.35574,254.593,0.757293
203.3000,0.963691,255.04,0.762702
203.2000,0.721584,255.325,0.766157
203.1000,1.89426,254.731,0.758955
203.0000,-0.220128,255.634,0.769882
202.9000,0.343425,255.745,0.771224
202.8000,1.21807,256.023,0.774589
202.7000,2.11652,256.017,0.774507
202.6000,-0.133045,256.477,0.780054
202.5000,1.43734,256.226,0.777035
202.4000,-0.0544643,255.92,0.773344
202.3000,4.04976,256.651,0.782156
202.2000,0.490073,256.929,0.785498
202.1000,-1.71516,257.104,0.78761
202.0000,-0.895063,256.907,0.785239
201.9000,1.51917,257.815,0.796144
201.8000,1.15021,257.866,0.796755
201.7000,0.33875,258.253,0.801401
201.6000,3.2173,258.653,0.80619
201.5000,1.75533,258.6,0.805553
201.4000,-0.135402,258.956,0.809808
201.3000,1.27632,259.004,0.81039
201.2000,1.5912,259.203,0.81276
201.1000,0.609185,259.721,0.81894
201.0000,1.99532,259.906,0.821155
200.9000,2.59421,259.867,0.820682
200.8000,0.917604,260.196,0.82461
200.7000,3.59276,260.629,0.82976
200.6000,0.674688,261.351,0.838333
200.5000,1.06522,260.756,0.831269
200.4000,0.614772,261.228,0.836867
200.3000,2.27877,261.501,0.840106
200.2000,2.59921,261.515,0.840281
200.1000,1.78072,261.899,0.844833
200.0000,0.489255,262.029,0.846362
199.9000,2.0523,262.299,0.849566
199.8000,-0.161008,262.663,0.853866
199.7000,1.91554,262.621,0.85337
199.6000,1.15621,263.38,0.86233
199.5000,1.60629,262.987,0.857692
199.4000,3.38658,263.224,0.860486
199.3000,0.975139,263.46,0.863264
199.2000,-0.845516,263.787,0.867121
199.1000,-1.90428,264.104,0.870854
199.0000,-1.19567,264.432,0.874703
198.9000,2.78683,264.226,0.87228
198.8000,1.82713,263.893,0.868361
198.7000,2.89958,265.166,0.883319
198.6000,3.49693,265.763,0.890312
198.5000,2.23178,265.083,0.882349
198.4000,0.980982,265.949,0.892485
198.3000,-1.16528,265.952,0.892525
198.2000,-0.158713,266.465,0.898508
198.1000,3.97474,267.216,0.907268
198.0000,0.271229,266.465,0.898508
197.9000,1.42662,266.844,0.902937
197.8000,4.30699,266.96,0.904284
197.7000,-0.111179,266.822,0.902673
197.6000,2.29782,267.241,0.907558
197.5000,5.44079,267.446,0.909946
197.4000,2.13831,267.347,0.908798
197.3000,0.289186,268.35,0.920454
197.2000,3.06542,268.032,0.916757
197.1000,0.806698,268.59,0.923241
197.0000,1.97173,268.498,0.922176
196.9000,-2.76216,268.966,0.927601
196.8000,0.715269,269.453,0.933228
196.7000,2.67825,268.917,0.927024
196.6000,-1.66473,270.024,0.939827
196.5000,-4.01554,269.712,0.936227
196.4000,2.28854,270.317,0.943214
196.3000,2.5293,271.808,0.960375
196.2000,2.04371,271.373,0.955376
196.1000,1.69062,272.274,0.965719
196.0000,1.31247,272.297,0.965979
195.9000,1.34944,271.946,0.961962
195.8000,-2.79235,272.401,0.967174
195.7000,3.21228,272.7,0.970601
195.6000,-0.929793,274.449,0.990583
195.5000,0.304869,273.926,0.984615
195.4000,2.95866,274.295,0.988827
195.3000,4.12062,272.877,0.972625
195.2000,1.72062,274.42,0.990247
195.1000,-0.992521,274.558,0.991821
195.0000,3.49687,276.098,1.00932
194.9000,1.18751,275.573,1.00336
194.8000,-0.986427,275.996,1.00816
194.7000,1.64799,276.09,1.00923
194.6000,1.45748,276.553,1.01447
194.5000,1.34898,275.794,1.00587
194.4000,5.26258,276.595,1.01495
194.3000,5.11197,277.691,1.02733
194.2000,4.37114,277.215,1.02196
194.1000,-1.89325,279.217,1.04451
194.0000,-3.04734,278.236,1.03347
193.9000,3.3737,280.584,1.05982
193.8000,1.36822,280.812,1.06237
193.7000,-2.94423,281.054,1.06508
193.6000,2.19672,281.34,1.06826
193.5000,3.10722,281.756,1.07291
193.4000,-0.465808,282.091,1.07664
193.3000,0.930503,282.98,1.08653
193.2000,-0.405566,283.639,1.09383
193.1000,0.13276,285.125,1.11027
193.0000,1.72137,284.472,1.10306
192.9000,8.52922,283.98,1.09761
192.8000,-3.51332,285.129,1.11031
192.7000,1.19001,286.927,1.1301
192.6000,1.71049,286.779,1.12848
192.5000,3.77261,289.468,1.1579
192.4000,4.55316,289.015,1.15296
192.3000,2.16281,290.105,1.16483
192.2000,-2.57334,290.909,1.17357
192.1000,1.03136,291.595,1.181
192.0000,2.13996,292.029,1.1857
191.9000,-1.26765,292.801,1.19404
191.8000,2.8909,294.527,1.21263
191.7000,2.24293,294.573,1.21312
191.6000,1.03218,295.462,1.22266
191.5000,-1.66673,295.358,1.22154
191.4000,3.77072,297.176,1.24098
191.3000,4.32686,298.956,1.25991
191.2000,-0.14199,298.868,1.25898
191.1000,-0.013267,300.247,1.27358
191.0000,-1.90739,301.201,1.28365
190.9000,-1.2906,301.114,1.28273
190.8000,3.65659,304.888,1.32232
190.7000,2.45331,306.635,1.34052
190.6000,-0.667724,305.628,1.33004
190.5000,-6.13906,307.428,1.34875
190.4000,0.774324,308.872,1.36368
190.3000,1.76026,310.593,1.3814
190.2000,-1.38936,312.277,1.39867
190.1000,0.394307,312.924,1.40528
190.0000,1.52896,314.158,1.41786

##### Extended Information
[Comments]
Sample name,Buffer_JH_CW
Comment
User,ScharfMinor
Division
Company,Saint Mary's College

[Detailed Information]
Creation date,9/27/2022 3:22 PM

Data array type,Linear data array * 3
Horizontal axis,Wavelength [nm]
Vertical axis(1),CD [mdeg]
Vertical axis(2),HT [V]
Vertical axis(3),Abs
Start,320 nm
End,190 nm
Data interval,0.1 nm
Data points,1301    

[Measurement Information]
Instrument name,J-1500
Model name,J-1500
Serial No.,B051061638

Detector,PM-539
Detector S/N,B051061638
  Lock-in amp.,X mode
  HT volt,Auto

Accessory,PTC-517
Accessory S/N,B026561646
  Temperature,22.15 C
  Control sensor,Holder
  Monitor sensor,Holder

Measurement date,9/27/2022 3:22 PM

CD Overload detect,1279
Photometric mode,CD, HT, Abs
Measure range,320 - 190 nm
Data pitch,0.1 nm
CD scale,20 mdeg/0.05 dOD
FL scale,20 mdeg/0.05 dOD
D.I.T.,8 msec
Bandwidth,2.00 nm
Start mode,Immediately
Scanning mode,Continuous
Scanning speed,100 nm/min
Baseline correction,None
Shutter control,Auto
No. of cycle,1/1
N2 Flowmeter,Manual

Solvent,NaPO4 buffer

