TITLE,bufferKCl_SSAM
DATA TYPE,
ORIGIN,JASCO
OWNER,
DATE,22/09/27
TIME,14:08:28
SPECTROMETER/DATA SYSTEM,
LOCALE,1033
RESOLUTION,
DELTAX,-0.1
XUNITS,NANOMETERS
YUNITS,CD [mdeg]
Y2UNITS,HT [V]
Y3UNITS,ABSORBANCE
FIRSTX,  320.0000
LASTX,  190.0000
NPOINTS,    1301
FIRSTY,    -0.49755
MAXY,    11.84397
MINY,    -7.58048
XYDATA
320.0000,-0.497546,258.435,0.803572
319.9000,-0.651684,257.947,0.797734
319.8000,2.01934,257.453,0.791805
319.7000,0.212074,257.376,0.790879
319.6000,-1.65701,257.708,0.794866
319.5000,4.79157,257.945,0.797707
319.4000,1.82092,258.045,0.798902
319.3000,1.0374,258.13,0.799921
319.2000,3.42824,258.03,0.798726
319.1000,2.55546,257.533,0.792757
319.0000,1.59256,257.998,0.798345
318.9000,-1.73626,257.905,0.797231
318.8000,-0.140667,258.328,0.802297
318.7000,-0.861064,257.565,0.793152
318.6000,1.20595,257.721,0.795015
318.5000,-1.18953,257.017,0.786561
318.4000,1.58344,257.422,0.791423
318.3000,1.14029,258.133,0.799962
318.2000,2.92471,257.517,0.792567
318.1000,0.0377335,257.851,0.796579
318.0000,0.754032,257.805,0.796021
317.9000,-2.09132,258.122,0.799826
317.8000,1.48923,257.371,0.790811
317.7000,0.188748,256.853,0.784584
317.6000,4.0824,258.002,0.798386
317.5000,0.119193,257.707,0.794852
317.4000,3.2616,258.2,0.800763
317.3000,1.26325,258.122,0.799826
317.2000,2.08651,257.346,0.790511
317.1000,-0.393007,257.91,0.797285
317.0000,-0.722597,257.989,0.798237
316.9000,-0.0106678,257.051,0.78697
316.8000,-4.12814,257.277,0.789681
316.7000,0.768463,257.682,0.794553
316.6000,2.41251,257.537,0.792812
316.5000,1.42929,257.684,0.79458
316.4000,0.0940974,257.504,0.792417
316.3000,3.77791,257.658,0.794267
316.2000,3.06898,257.269,0.789585
316.1000,0.425185,257.425,0.791464
316.0000,-0.301839,257.839,0.796429
315.9000,-0.823907,257.312,0.790103
315.8000,0.65788,257.316,0.790157
315.7000,-2.3568,257.661,0.794294
315.6000,3.11205,257.376,0.790879
315.5000,0.684236,257.187,0.788605
315.4000,2.54728,256.741,0.783234
315.3000,1.28376,257.292,0.789871
315.2000,-0.2426,258.445,0.803695
315.1000,1.68342,258.168,0.800383
315.0000,2.20337,256.449,0.779726
314.9000,5.20556,257.99,0.79825
314.8000,0.298963,256.757,0.783425
314.7000,2.40335,257.273,0.78964
314.6000,1.69698,257.379,0.790906
314.5000,1.06549,257.798,0.79594
314.4000,4.12826,257.286,0.78979
314.3000,-0.124602,257.699,0.794757
314.2000,3.34589,257.666,0.794362
314.1000,2.16761,257.888,0.797027
314.0000,1.20486,257.316,0.790157
313.9000,2.46623,257.185,0.788577
313.8000,1.05204,257.35,0.790566
313.7000,-1.97592,257.525,0.792662
313.6000,-1.01287,256.941,0.785648
313.5000,0.627158,257.338,0.790416
313.4000,2.24549,257.725,0.79507
313.3000,1.96097,257.19,0.788646
313.2000,3.27724,258.007,0.798454
313.1000,2.02446,257.461,0.7919
313.0000,4.20353,257.431,0.791532
312.9000,2.69371,256.996,0.786302
312.8000,3.5616,257.351,0.79058
312.7000,0.485181,257.315,0.790144
312.6000,1.50781,257.704,0.794811
312.5000,2.306,257.271,0.789613
312.4000,-1.79425,257.144,0.788087
312.3000,-1.49194,256.992,0.786261
312.2000,-0.424295,257.42,0.79141
312.1000,0.320458,256.905,0.785211
312.0000,3.28392,257.201,0.788768
311.9000,0.718778,256.938,0.785607
311.8000,5.32616,257.433,0.79156
311.7000,-0.701936,256.925,0.785457
311.6000,0.740394,256.7,0.782743
311.5000,1.84802,257.384,0.790974
311.4000,2.68116,256.803,0.783984
311.3000,1.19904,257.44,0.791641
311.2000,0.385952,257.748,0.795342
311.1000,1.58296,257.428,0.791505
311.0000,2.78437,257.996,0.798318
310.9000,-0.665449,257.244,0.789286
310.8000,1.06093,256.827,0.784271
310.7000,3.44141,256.992,0.786261
310.6000,0.93969,257.671,0.794417
310.5000,2.50452,257.672,0.79443
310.4000,5.78767,257.536,0.792798
310.3000,3.33583,257.078,0.787297
310.2000,1.85344,257.722,0.795029
310.1000,0.601488,256.947,0.785716
310.0000,-0.550412,256.742,0.783248
309.9000,1.86257,258.461,0.803884
309.8000,-0.545561,257.87,0.79681
309.7000,0.186872,258.266,0.80155
309.6000,2.66594,257.397,0.791124
309.5000,3.47734,257.585,0.793383
309.4000,1.93447,257.607,0.793655
309.3000,-0.888896,256.666,0.782334
309.2000,0.911243,257.468,0.791981
309.1000,-2.516,257.469,0.791995
309.0000,1.6423,257.043,0.786874
308.9000,1.73908,258.075,0.799269
308.8000,2.89955,258.023,0.798644
308.7000,1.07123,256.183,0.776516
308.6000,2.79335,258.005,0.798427
308.5000,-2.38593,257.76,0.795491
308.4000,1.24042,255.874,0.772784
308.3000,0.372082,257,0.786357
308.2000,-1.1292,258.121,0.799812
308.1000,-0.879128,256.684,0.782552
308.0000,-1.43878,256.712,0.782893
307.9000,3.68186,258.78,0.807708
307.8000,2.19438,257,0.786357
307.7000,1.7079,257.176,0.788469
307.6000,2.86176,257.318,0.790185
307.5000,0.00220451,257.121,0.787815
307.4000,2.29574,256.94,0.785634
307.3000,1.25049,257.166,0.788346
307.2000,-1.84657,257.036,0.786793
307.1000,2.48291,256.489,0.780204
307.0000,1.06133,257.531,0.792743
306.9000,1.72348,256.539,0.780805
306.8000,4.67557,257.211,0.788891
306.7000,0.949733,257.015,0.786534
306.6000,2.17602,256.848,0.78453
306.5000,2.30386,257.896,0.797122
306.4000,0.386648,256.219,0.776954
306.3000,-0.871199,256.906,0.785225
306.2000,-0.321678,256.215,0.776899
306.1000,2.35164,256.757,0.783425
306.0000,4.63988,256.252,0.77735
305.9000,2.93278,256.772,0.783616
305.8000,2.47662,256.83,0.784312
305.7000,1.82587,256.617,0.781747
305.6000,0.316514,255.866,0.772688
305.5000,1.82349,256.747,0.783316
305.4000,1.28479,256.976,0.78607
305.3000,-2.04049,256.319,0.778156
305.2000,0.0208372,256.145,0.776052
305.1000,2.18044,258.608,0.805648
305.0000,2.31071,256.274,0.777609
304.9000,0.597309,257.813,0.796117
304.8000,0.848203,256.202,0.776749
304.7000,2.09531,256.622,0.781801
304.6000,-2.65891,257.101,0.787569
304.5000,3.86301,256.738,0.783207
304.4000,-4.20812,256.422,0.779399
304.3000,2.3525,257.223,0.789041
304.2000,1.46073,256.874,0.784843
304.1000,1.16149,255.853,0.772537
304.0000,1.97817,256.726,0.783056
303.9000,0.32238,255.58,0.769239
303.8000,2.77903,256.852,0.78457
303.7000,0.605822,256.758,0.783439
303.6000,4.38207,256.809,0.784052
303.5000,0.437998,256.989,0.78622
303.4000,2.59045,257.03,0.786711
303.3000,3.13464,256.971,0.786002
303.2000,1.57745,256.977,0.786084
303.1000,2.77541,256.446,0.779685
303.0000,-0.100556,256.627,0.78187
302.9000,0.11481,256.121,0.775764
302.8000,0.591612,255.652,0.770101
302.7000,-0.0737131,256.321,0.778183
302.6000,0.574,256.311,0.77806
302.5000,2.11096,256.3,0.777924
302.4000,2.73397,256.216,0.776912
302.3000,0.578492,257.287,0.789803
302.2000,-0.398349,256.836,0.78438
302.1000,0.540839,256.667,0.782347
302.0000,0.418548,256.317,0.778129
301.9000,0.729084,257.188,0.788618
301.8000,-0.736443,256.185,0.776544
301.7000,0.932925,255.997,0.774274
301.6000,0.513384,256.468,0.779945
301.5000,1.9496,256.357,0.778607
301.4000,3.36889,256.196,0.776667
301.3000,-0.716505,255.87,0.772742
301.2000,1.03425,256.278,0.777664
301.1000,-0.545197,257.158,0.788251
301.0000,2.24646,256.247,0.777282
300.9000,3.33815,257.022,0.786615
300.8000,-1.30565,256.06,0.775026
300.7000,2.2369,256.827,0.784271
300.6000,2.0594,256.715,0.78292
300.5000,-2.24827,256.514,0.780505
300.4000,0.387555,256.205,0.776776
300.3000,2.93326,256.698,0.782715
300.2000,-0.014876,255.976,0.774015
300.1000,-0.398208,256.357,0.778607
300.0000,-2.47024,255.538,0.768732
299.9000,5.7313,256.248,0.777295
299.8000,-0.775452,256.447,0.779699
299.7000,4.11256,256.048,0.77489
299.6000,0.889744,256.108,0.775614
299.5000,2.31077,256.641,0.782033
299.4000,1.50517,256.716,0.782934
299.3000,3.49687,256.587,0.781378
299.2000,0.456063,256.601,0.781556
299.1000,-0.174084,257.053,0.786997
299.0000,0.859131,255.995,0.774247
298.9000,0.724826,256.502,0.780355
298.8000,-0.586496,256.53,0.780696
298.7000,-0.0526948,256.014,0.77448
298.6000,1.64088,256.243,0.77724
298.5000,1.03837,256.57,0.781174
298.4000,2.01825,256.455,0.779795
298.3000,-1.18744,256.439,0.779604
298.2000,2.15276,254.899,0.761
298.1000,-0.652154,255.548,0.768842
298.0000,3.60178,256.053,0.774944
297.9000,-0.664094,256.156,0.776188
297.8000,1.33419,255.835,0.772318
297.7000,1.45548,257.156,0.788237
297.6000,0.142481,255.891,0.772989
297.5000,1.89047,256.207,0.776803
297.4000,3.39799,255.165,0.76421
297.3000,-1.26115,255.85,0.772496
297.2000,3.81865,256.428,0.779467
297.1000,2.84486,256.607,0.781624
297.0000,3.01709,256.875,0.784857
296.9000,1.03791,256.75,0.783343
296.8000,2.69688,255.95,0.7737
296.7000,3.46754,255.431,0.767431
296.6000,0.0656122,256.055,0.774972
296.5000,0.134268,256.223,0.776994
296.4000,3.74611,256.547,0.780901
296.3000,-1.15679,256.349,0.778511
296.2000,0.52966,255.625,0.769773
296.1000,4.22383,255.227,0.764964
296.0000,2.41104,255.961,0.773837
295.9000,0.425083,256.034,0.774712
295.8000,-0.837147,256.542,0.780846
295.7000,3.19764,255.792,0.771798
295.6000,1.28079,256.352,0.778552
295.5000,2.05475,256.746,0.783302
295.4000,1.21741,256.588,0.781392
295.3000,2.44584,255.927,0.773426
295.2000,3.38139,255.707,0.770772
295.1000,1.39008,254.806,0.759875
295.0000,-0.864357,256.411,0.779262
294.9000,0.631865,255.691,0.77058
294.8000,0.434751,254.599,0.757362
294.7000,0.201563,254.886,0.760835
294.6000,2.47888,254.931,0.761384
294.5000,-0.220857,256.52,0.780573
294.4000,1.06502,255.933,0.773495
294.3000,2.38236,255.595,0.769417
294.2000,1.5492,255.694,0.770608
294.1000,2.24315,255.158,0.764128
294.0000,3.36741,255.833,0.772291
293.9000,1.51383,256.743,0.783261
293.8000,1.9724,255.963,0.773864
293.7000,0.784943,255.5,0.768266
293.6000,-0.496674,255.303,0.765882
293.5000,2.99604,257.235,0.789177
293.4000,4.72986,255.677,0.770402
293.3000,1.56945,255.559,0.768979
293.2000,-0.758304,255.977,0.774028
293.1000,-0.324895,254.787,0.759641
293.0000,0.522144,254.911,0.761138
292.9000,1.16159,256.409,0.779235
292.8000,1.38902,253.871,0.748519
292.7000,-0.307577,255.935,0.773522
292.6000,-1.80391,254.156,0.751987
292.5000,2.2507,256.856,0.784625
292.4000,1.3821,256.391,0.779016
292.3000,2.03612,256.754,0.783398
292.2000,1.17715,255.62,0.769718
292.1000,1.16014,254.868,0.760616
292.0000,-1.70535,254.882,0.760794
291.9000,-1.43736,255.334,0.766266
291.8000,0.124149,255.252,0.765266
291.7000,2.1722,254.495,0.756098
291.6000,1.52498,254.651,0.757994
291.5000,-1.21949,254.572,0.757032
291.4000,3.66896,255.049,0.762811
291.3000,2.06948,254.36,0.754462
291.2000,2.38941,254.225,0.752826
291.1000,-0.905403,254.742,0.759092
291.0000,2.13775,254.457,0.755644
290.9000,3.39764,255.418,0.76728
290.8000,0.443607,254.805,0.759861
290.7000,4.66947,255.294,0.765773
290.6000,2.41655,255.305,0.76591
290.5000,0.855078,254.649,0.757966
290.4000,0.3777,255.509,0.768376
290.3000,2.85939,254.82,0.76004
290.2000,2.50419,255.849,0.772482
290.1000,0.90593,255.338,0.766307
290.0000,0.00431656,255.485,0.768088
289.9000,1.75191,255.468,0.767883
289.8000,1.38335,256.131,0.775887
289.7000,4.95056,255.485,0.768088
289.6000,3.76601,255.486,0.768102
289.5000,0.202744,255.374,0.766746
289.4000,1.15537,255.972,0.773973
289.3000,1.74932,254.884,0.760808
289.2000,-2.1265,255.716,0.770882
289.1000,0.678236,255.291,0.765745
289.0000,2.18695,256.202,0.776749
288.9000,-0.302451,254.459,0.755658
288.8000,1.78275,255.453,0.767705
288.7000,-0.419084,255.979,0.774055
288.6000,3.72822,254.562,0.756908
288.5000,3.0387,255.27,0.765485
288.4000,-1.07819,255.585,0.769294
288.3000,5.05709,256.454,0.779781
288.2000,-1.55734,255.606,0.769554
288.1000,-0.152742,254.326,0.75405
288.0000,5.26272,255.317,0.766061
287.9000,2.32463,254.901,0.761014
287.8000,-0.27409,254.516,0.756359
287.7000,-0.303556,253.915,0.749056
287.6000,2.66867,255.313,0.766006
287.5000,2.88242,255.444,0.767595
287.4000,-1.36765,254.837,0.760245
287.3000,3.05383,255.603,0.769513
287.2000,0.362197,255.567,0.769074
287.1000,2.58326,255.259,0.765348
287.0000,-1.0162,255.066,0.763017
286.9000,3.05424,255.055,0.76288
286.8000,1.41444,255.993,0.77422
286.7000,1.85039,254.54,0.756647
286.6000,1.32447,255.799,0.771881
286.5000,2.86661,254.907,0.761096
286.4000,1.90131,254.508,0.756263
286.3000,1.32414,254.816,0.759985
286.2000,3.80094,255.253,0.765279
286.1000,-1.62561,255.86,0.772619
286.0000,0.655005,255.26,0.765362
285.9000,0.70289,255.1,0.763428
285.8000,3.75779,255.519,0.768499
285.7000,3.48711,255.325,0.766157
285.6000,1.56771,254.803,0.759834
285.5000,4.07837,254.545,0.756702
285.4000,-1.1467,255.406,0.767129
285.3000,1.61512,255.157,0.764114
285.2000,-0.161435,253.741,0.746949
285.1000,4.15595,254.646,0.757925
285.0000,3.62388,255.119,0.763662
284.9000,2.964,254.022,0.750363
284.8000,4.08905,254.958,0.761714
284.7000,-0.995806,254.89,0.76089
284.6000,1.06828,254.78,0.759559
284.5000,1.93132,254.298,0.753706
284.4000,1.03605,253.95,0.749482
284.3000,0.21265,254.664,0.758145
284.2000,1.31129,254.341,0.754229
284.1000,4.69356,253.905,0.748932
284.0000,-1.42372,255.375,0.76676
283.9000,0.615534,255.524,0.768554
283.8000,-1.99805,254.97,0.761851
283.7000,-2.26071,253.795,0.747596
283.6000,0.202555,254.693,0.758502
283.5000,0.140133,254.745,0.759134
283.4000,2.97987,254.925,0.761316
283.3000,0.465766,254.028,0.750432
283.2000,1.19433,254.743,0.759106
283.1000,7.22451,253.542,0.744523
283.0000,1.56547,255.231,0.765019
282.9000,-2.34638,254.929,0.761357
282.8000,0.0555045,253.426,0.743117
282.7000,2.21791,253.882,0.748656
282.6000,0.277105,254.659,0.75809
282.5000,2.39129,254.769,0.759422
282.4000,3.51114,255.167,0.764237
282.3000,1.08538,254.465,0.755741
282.2000,6.01423,254.358,0.754435
282.1000,0.84158,254.963,0.761769
282.0000,-0.144452,254.36,0.754462
281.9000,3.77202,255.142,0.763936
281.8000,3.56822,254.502,0.75618
281.7000,2.12533,254.261,0.753266
281.6000,-1.03846,255.135,0.763853
281.5000,2.02491,254.474,0.755851
281.4000,0.739358,254.405,0.755012
281.3000,4.08359,254.86,0.76052
281.2000,1.97291,254.544,0.756689
281.1000,2.41758,255.09,0.763305
281.0000,1.84219,255.162,0.764183
280.9000,0.324923,254.07,0.750941
280.8000,5.32055,254.699,0.75857
280.7000,2.07361,254.778,0.759531
280.6000,3.88591,254.225,0.752826
280.5000,-0.288922,255.021,0.762468
280.4000,-1.69825,255.51,0.76839
280.3000,2.69184,253.364,0.742359
280.2000,0.464838,255.868,0.772715
280.1000,0.292726,254.561,0.756895
280.0000,1.26018,254.852,0.760424
279.9000,2.93712,254.146,0.751863
279.8000,0.713858,253.926,0.749193
279.7000,1.69418,253.797,0.747624
279.6000,1.08813,255.226,0.76495
279.5000,3.43854,254.792,0.759696
279.4000,0.470756,255.753,0.771319
279.3000,2.78468,254.3,0.753734
279.2000,1.52511,254.495,0.756098
279.1000,1.01359,254.323,0.754009
279.0000,2.86103,254.625,0.757678
278.9000,2.84342,253.987,0.749937
278.8000,1.85184,254.562,0.756908
278.7000,1.68699,254.478,0.755892
278.6000,0.290178,254.61,0.757499
278.5000,1.64175,254.323,0.754009
278.4000,-1.30067,254.457,0.755644
278.3000,0.754615,254.506,0.756235
278.2000,2.28495,253.052,0.738564
278.1000,0.146135,254.686,0.758419
278.0000,4.50198,253.931,0.749248
277.9000,3.92211,253.349,0.742179
277.8000,-1.6472,254.546,0.756716
277.7000,0.343505,254.297,0.753692
277.6000,2.52924,254.011,0.750226
277.5000,2.52451,254.709,0.758694
277.4000,-0.485893,255.135,0.763853
277.3000,2.18616,254.495,0.756098
277.2000,4.15869,254.477,0.755878
277.1000,2.04573,255.044,0.762756
277.0000,1.85,254.45,0.755548
276.9000,0.265069,253.991,0.749978
276.8000,1.16675,253.984,0.749895
276.7000,2.8834,254.819,0.760026
276.6000,1.08317,254.887,0.760849
276.5000,3.96895,254.922,0.761275
276.4000,2.26688,253.791,0.747555
276.3000,4.17228,252.762,0.735028
276.2000,1.9331,254.806,0.759875
276.1000,1.61035,255.268,0.765458
276.0000,0.0530642,253.934,0.74929
275.9000,2.12067,255.018,0.762441
275.8000,2.64405,254.542,0.756675
275.7000,-2.71547,254.86,0.76052
275.6000,1.00837,254.153,0.751946
275.5000,6.53761,253.272,0.741242
275.4000,3.89688,254.017,0.750295
275.3000,2.58805,254.912,0.761151
275.2000,2.47756,253.971,0.749744
275.1000,0.992018,254.025,0.750391
275.0000,2.39124,253.551,0.744634
274.9000,0.8561,255.237,0.765087
274.8000,1.13894,255.864,0.77266
274.7000,-0.292606,253.798,0.747637
274.6000,0.582567,254.3,0.753734
274.5000,1.82352,254.223,0.752798
274.4000,0.646138,253.686,0.746274
274.3000,0.870332,253.125,0.739448
274.2000,-0.97466,253.996,0.750047
274.1000,-1.36873,253.2,0.740358
274.0000,1.23375,253.78,0.747417
273.9000,1.48405,253.704,0.746494
273.8000,1.21258,254.07,0.750941
273.7000,1.76098,253.322,0.741848
273.6000,2.83746,254.44,0.755438
273.5000,3.24316,254.054,0.750749
273.4000,0.18739,253.26,0.74109
273.3000,2.44373,253.528,0.744358
273.2000,-0.684963,253.468,0.743627
273.1000,-0.135862,254.393,0.754861
273.0000,1.42636,252.889,0.736575
272.9000,5.79421,254.916,0.761206
272.8000,1.41424,254.26,0.753252
272.7000,-0.182109,254.751,0.759202
272.6000,1.39886,253.66,0.745957
272.5000,1.42987,253.13,0.739503
272.4000,0.581453,253.835,0.748092
272.3000,-0.639045,253.379,0.742538
272.2000,-1.41004,254.061,0.750831
272.1000,2.41315,254.762,0.759339
272.0000,-1.79445,254.597,0.757334
271.9000,2.71342,253.965,0.749661
271.8000,2.05471,254.663,0.758131
271.7000,0.218342,254.179,0.752262
271.6000,1.01899,253.491,0.743903
271.5000,4.14235,253.12,0.739392
271.4000,0.801086,254.715,0.758763
271.3000,0.583363,254.786,0.759628
271.2000,2.03269,253.876,0.748587
271.1000,-1.28703,253.459,0.743517
271.0000,-0.896068,254.535,0.756579
270.9000,1.63649,254.613,0.757527
270.8000,2.20217,253.507,0.744096
270.7000,2.60632,254.356,0.754407
270.6000,3.99965,254.11,0.751423
270.5000,1.36833,253.781,0.747431
270.4000,0.697641,254.103,0.75134
270.3000,1.10318,254.559,0.756881
270.2000,-1.74166,253.722,0.746715
270.1000,-1.57568,254.435,0.75537
270.0000,1.47098,254.153,0.751946
269.9000,0.222275,253.692,0.746343
269.8000,-0.626819,254.654,0.758021
269.7000,2.31815,253.689,0.746315
269.6000,-3.19862,253.758,0.747155
269.5000,1.88061,253.188,0.74022
269.4000,-0.796641,254.435,0.75537
269.3000,6.05597,254.71,0.758708
269.2000,1.28363,254.148,0.751891
269.1000,-0.292682,254.536,0.756593
269.0000,-0.0931145,254.44,0.755438
268.9000,-1.6408,254.609,0.757486
268.8000,5.01027,254.289,0.753596
268.7000,0.628439,254.632,0.75776
268.6000,3.1942,253.151,0.739765
268.5000,0.413105,253.987,0.749937
268.4000,2.72086,254.816,0.759985
268.3000,-1.65918,254.604,0.757417
268.2000,0.565185,254.967,0.761824
268.1000,0.52635,253.544,0.744551
268.0000,1.28848,253.949,0.749469
267.9000,1.8846,254.179,0.752262
267.8000,2.91113,254.048,0.75068
267.7000,-0.67845,253.511,0.744151
267.6000,-0.925186,254.468,0.755768
267.5000,2.45032,254.359,0.754448
267.4000,0.0750696,254.481,0.755933
267.3000,2.49075,254.683,0.758378
267.2000,0.316426,254.11,0.751423
267.1000,0.212477,254.684,0.758392
267.0000,1.70835,254.292,0.753637
266.9000,-1.23873,254.048,0.75068
266.8000,0.430888,254.512,0.756304
266.7000,2.77771,254.635,0.757801
266.6000,1.37164,254.766,0.759381
266.5000,-1.26934,253.591,0.745116
266.4000,-1.79138,254.088,0.751162
266.3000,-1.30496,254.411,0.755081
266.2000,0.578721,254.776,0.759504
266.1000,-1.81159,254.499,0.756153
266.0000,0.650827,254.618,0.757595
265.9000,2.94945,254.443,0.755466
265.8000,2.87641,254.591,0.757266
265.7000,-1.7847,255.219,0.764868
265.6000,-0.715736,254.823,0.760081
265.5000,-0.457502,253.915,0.749056
265.4000,-0.976025,254.962,0.761755
265.3000,0.775993,255.024,0.76251
265.2000,1.36886,255.772,0.771552
265.1000,2.18412,253.878,0.748615
265.0000,1.37148,254.708,0.75868
264.9000,-0.733521,255.017,0.762427
264.8000,-1.397,254.7,0.758584
264.7000,1.43006,255.035,0.762647
264.6000,0.334631,254.965,0.761796
264.5000,1.33486,255.877,0.772824
264.4000,2.43813,255.96,0.773823
264.3000,-1.04306,254.529,0.75651
264.2000,-0.217706,254.956,0.761686
264.1000,3.33182,254.663,0.758131
264.0000,0.716975,255.01,0.762345
263.9000,0.874259,255.141,0.763922
263.8000,2.80084,254.29,0.75361
263.7000,0.543074,255.026,0.762537
263.6000,0.734217,254.572,0.757032
263.5000,0.641701,254.225,0.752826
263.4000,1.19744,255.826,0.772209
263.3000,0.313402,255.237,0.765087
263.2000,1.57517,254.678,0.758323
263.1000,-0.230123,255.702,0.770703
263.0000,1.22492,255.501,0.76828
262.9000,-1.1211,255.221,0.764896
262.8000,1.18173,254.736,0.759024
262.7000,2.5787,254.738,0.759051
262.6000,0.967187,255.398,0.767034
262.5000,1.27944,255.108,0.763525
262.4000,-1.66857,254.799,0.759779
262.3000,-0.2528,256.742,0.783248
262.2000,-0.554942,255.98,0.774069
262.1000,2.05543,254.979,0.761961
262.0000,0.598794,256.063,0.775067
261.9000,0.0243766,255.494,0.768198
261.8000,-1.24619,253.969,0.749717
261.7000,1.18212,256.029,0.774657
261.6000,-0.109802,256.29,0.777801
261.5000,3.10492,255.68,0.770444
261.4000,2.69865,255.588,0.769334
261.3000,-0.548109,255.978,0.774042
261.2000,0.657372,255.664,0.770252
261.1000,-0.961125,255.226,0.76495
261.0000,4.02362,256.003,0.774343
260.9000,-0.432459,255.355,0.766513
260.8000,-0.451651,256.855,0.784611
260.7000,-1.72528,255.97,0.773946
260.6000,2.10027,255.44,0.76754
260.5000,0.848162,255.102,0.763456
260.4000,-1.25428,255.706,0.770758
260.3000,-0.163685,256.383,0.778921
260.2000,-1.04431,255.727,0.771005
260.1000,1.72365,255.546,0.768828
260.0000,0.0376801,257.103,0.787597
259.9000,-1.22101,255.763,0.771443
259.8000,2.06218,256.121,0.775764
259.7000,-2.27624,255.528,0.768609
259.6000,1.08529,255.452,0.767691
259.5000,0.513968,256.12,0.775751
259.4000,0.200028,256.042,0.774807
259.3000,0.486291,256.123,0.775792
259.2000,0.0574161,255.535,0.768691
259.1000,1.41558,255.796,0.771839
259.0000,-0.472829,255.608,0.769567
258.9000,-1.77267,255.182,0.764416
258.8000,0.883526,256.78,0.783711
258.7000,1.48958,256.42,0.779371
258.6000,3.43759,257.576,0.793274
258.5000,0.289673,257.042,0.786861
258.4000,2.52163,256.374,0.778811
258.3000,-0.505682,257.595,0.793506
258.2000,3.17695,257.619,0.793791
258.1000,3.20584,258.844,0.808467
258.0000,-2.04309,257.432,0.791546
257.9000,-0.597477,255.451,0.767677
257.8000,-0.247043,256.653,0.782183
257.7000,0.623355,256.541,0.780832
257.6000,1.62128,257.183,0.78855
257.5000,-0.549983,256.787,0.783793
257.4000,1.15131,257.853,0.796606
257.3000,-0.460763,256.038,0.774767
257.2000,2.96502,257.06,0.787079
257.1000,0.660745,256.841,0.784448
257.0000,0.694316,256.566,0.781133
256.9000,4.6238,255.919,0.773331
256.8000,2.21217,256.686,0.782579
256.7000,2.15934,256.628,0.781883
256.6000,-1.66243,257.655,0.794226
256.5000,-2.6972,256.665,0.78232
256.4000,2.94106,256.673,0.782415
256.3000,-3.275,256.743,0.783261
256.2000,-0.23954,256.42,0.779371
256.1000,1.16605,256.557,0.781023
256.0000,-0.755034,256.559,0.781051
255.9000,1.47305,257.831,0.796334
255.8000,0.653664,256.634,0.781951
255.7000,0.693234,256.421,0.779385
255.6000,-1.4408,257.769,0.7956
255.5000,1.58879,256.623,0.781815
255.4000,-0.00389077,256.681,0.782511
255.3000,-1.21612,257.483,0.792158
255.2000,-1.83965,256.064,0.775081
255.1000,-0.227255,257.261,0.78949
255.0000,1.67264,257.718,0.794988
254.9000,2.15373,256.632,0.781924
254.8000,-0.364679,257.924,0.797449
254.7000,2.59102,257.424,0.791451
254.6000,3.64899,256.882,0.784939
254.5000,-0.392496,257.707,0.794852
254.4000,-0.637799,256.655,0.782197
254.3000,-0.134937,257.927,0.797489
254.2000,4.13648,257.682,0.794553
254.1000,1.45034,256.312,0.778074
254.0000,0.361347,257.329,0.790307
253.9000,1.58715,257.373,0.790838
253.8000,-2.87269,257.093,0.787474
253.7000,1.70017,257.001,0.78637
253.6000,4.89432,257.354,0.790607
253.5000,-0.153353,257.807,0.796049
253.4000,-1.01209,258.593,0.805471
253.3000,0.218317,258.677,0.806475
253.2000,1.73855,257.551,0.792975
253.1000,2.3007,258.646,0.806109
253.0000,2.151,258.712,0.806895
252.9000,0.803667,258.808,0.808047
252.8000,0.696643,258.493,0.804278
252.7000,0.318043,258.143,0.800084
252.6000,4.57558,257.692,0.794675
252.5000,1.64331,258.147,0.800125
252.4000,-0.945072,258.116,0.799758
252.3000,2.0775,258.235,0.801184
252.2000,2.51903,258.677,0.806475
252.1000,2.5208,258.382,0.802948
252.0000,-3.00221,256.74,0.78322
251.9000,-0.352828,258.624,0.805837
251.8000,0.811074,258.729,0.807098
251.7000,2.18487,259.39,0.814992
251.6000,-0.31139,258.967,0.809944
251.5000,1.59274,259.654,0.818142
251.4000,-0.187011,259.003,0.810377
251.3000,-1.75975,258.215,0.800939
251.2000,2.7789,257.79,0.795845
251.1000,2.6613,258.653,0.80619
251.0000,1.38223,257.98,0.798128
250.9000,2.52022,258.743,0.807261
250.8000,0.775225,258.796,0.807898
250.7000,-0.142215,258.616,0.805743
250.6000,0.501493,258.582,0.805336
250.5000,0.119095,258.757,0.807437
250.4000,2.01861,259.741,0.819183
250.3000,0.165791,258.663,0.806312
250.2000,0.998856,259.39,0.814992
250.1000,1.83717,257.877,0.796891
250.0000,4.3209,259.208,0.812827
249.9000,2.53089,258.85,0.808548
249.8000,-0.164781,258.59,0.805431
249.7000,-2.81798,258.126,0.79988
249.6000,0.344232,259.247,0.813288
249.5000,0.894246,259.023,0.810607
249.4000,1.43963,257.982,0.798155
249.3000,2.40575,259.414,0.815276
249.2000,-0.657832,258.82,0.808183
249.1000,-1.2261,258.112,0.799704
249.0000,2.31397,258.176,0.800478
248.9000,2.879,258.714,0.806922
248.8000,0.456278,258.211,0.800899
248.7000,-2.73289,259.181,0.812503
248.6000,0.193982,258.875,0.808847
248.5000,-0.0676306,258.825,0.80825
248.4000,-0.710631,258.654,0.806204
248.3000,3.61645,258.717,0.806949
248.2000,-0.537114,258.274,0.801645
248.1000,1.75734,258.225,0.801062
248.0000,1.10018,259.198,0.812706
247.9000,2.55703,258.806,0.80802
247.8000,0.897073,258.709,0.806854
247.7000,-1.46821,259.063,0.811095
247.6000,3.25676,258.324,0.802243
247.5000,2.4592,259.083,0.811325
247.4000,1.21924,260.142,0.823963
247.3000,2.67555,258.682,0.806529
247.2000,1.2482,258.821,0.808196
247.1000,-0.342741,260.083,0.823261
247.0000,0.715166,259.154,0.812178
246.9000,0.5341,258.554,0.804997
246.8000,2.27809,259.857,0.820561
246.7000,2.10491,257.468,0.791981
246.6000,-1.94372,259.375,0.814816
246.5000,1.2913,259.861,0.820615
246.4000,-2.7942,259.099,0.811514
246.3000,0.926765,259.428,0.815452
246.2000,2.35911,258.78,0.807708
246.1000,0.0787202,259.242,0.813233
246.0000,2.0263,258.898,0.809117
245.9000,-0.68852,258.574,0.805241
245.8000,0.63592,259.23,0.813085
245.7000,0.635917,259.083,0.811325
245.6000,1.09638,259.583,0.817305
245.5000,2.80142,259.385,0.814938
245.4000,1.48043,258.696,0.806705
245.3000,0.592909,259.035,0.810756
245.2000,0.0631845,258.84,0.808426
245.1000,0.974815,259.348,0.814492
245.0000,0.868586,259.349,0.814505
244.9000,1.7842,259.661,0.818223
244.8000,0.522067,258.901,0.809158
244.7000,4.45298,258.901,0.809158
244.6000,-1.72533,259.201,0.812733
244.5000,3.36063,257.987,0.79821
244.4000,0.278741,259.725,0.818994
244.3000,1.75262,258.68,0.806515
244.2000,6.14924,259.155,0.812191
244.1000,3.17607,259.234,0.813139
244.0000,1.78774,260.389,0.826903
243.9000,-0.83554,260.585,0.829235
243.8000,3.11619,259.799,0.819872
243.7000,0.0642161,258.256,0.801428
243.6000,-1.89331,258.874,0.808833
243.5000,0.841077,259.812,0.820034
243.4000,-0.384134,259.506,0.816385
243.3000,1.9271,260.685,0.83042
243.2000,1.962,260.738,0.831053
243.1000,-0.476452,260.147,0.824017
243.0000,-0.0665384,259.712,0.818832
242.9000,1.76804,259.742,0.819197
242.8000,1.87863,259.116,0.811718
242.7000,2.24067,260.705,0.830663
242.6000,1.48259,258.912,0.80928
242.5000,2.99073,260.68,0.830367
242.4000,2.28772,259.96,0.82179
242.3000,1.12076,259.938,0.821533
242.2000,0.761023,259.454,0.815763
242.1000,0.0793637,260.666,0.830192
242.0000,-0.622944,259.257,0.813409
241.9000,-0.103096,259.631,0.817872
241.8000,-2.00881,259.562,0.817048
241.7000,2.07209,260.238,0.825109
241.6000,1.96568,259.952,0.821695
241.5000,-0.382285,259.734,0.819102
241.4000,1.05664,260.286,0.825676
241.3000,0.741404,260.799,0.831781
241.2000,-0.960033,259.76,0.819413
241.1000,3.35035,260.447,0.827591
241.0000,1.41256,259.495,0.81625
240.9000,1.93257,260.416,0.827227
240.8000,0.882037,260.702,0.830623
240.7000,1.80453,260.225,0.824948
240.6000,1.38641,260.881,0.83275
240.5000,0.306231,259.843,0.820399
240.4000,3.80525,260.123,0.823733
240.3000,0.00780111,260.477,0.827955
240.2000,-1.71089,260.19,0.824529
240.1000,0.677717,260.004,0.822316
240.0000,2.12304,261.381,0.838682
239.9000,-0.592384,259.802,0.819912
239.8000,2.48657,260.405,0.827092
239.7000,1.88448,260.318,0.826054
239.6000,2.55413,260.728,0.830932
239.5000,2.95548,261.371,0.838574
239.4000,2.48145,260.584,0.829221
239.3000,3.84639,261.725,0.842766
239.2000,0.582105,260.766,0.83139
239.1000,1.27313,259.92,0.821317
239.0000,1.84847,260.735,0.831013
238.9000,0.713686,261.3,0.837728
238.8000,-1.73092,261.051,0.834769
238.7000,-2.35866,261.079,0.835105
238.6000,2.28944,261.893,0.844752
238.5000,-0.562747,260.774,0.831485
238.4000,2.01011,261.35,0.838319
238.3000,1.95126,263.243,0.860713
238.2000,-0.282058,261.043,0.834675
238.1000,0.546472,260.787,0.831633
238.0000,-0.658137,260.484,0.828036
237.9000,2.75806,260.917,0.833181
237.8000,-1.41708,262.604,0.85317
237.7000,1.6257,261.805,0.843719
237.6000,1.91988,261.54,0.840577
237.5000,-0.314712,261.685,0.842296
237.4000,4.21689,261.303,0.837768
237.3000,1.29179,261.462,0.83965
237.2000,2.07029,260.942,0.833477
237.1000,3.44566,261.425,0.839206
237.0000,-1.59209,262.107,0.847287
236.9000,0.941274,261.57,0.840926
236.8000,-1.21465,261.977,0.845745
236.7000,2.7752,262.371,0.850411
236.6000,2.12162,261.997,0.845987
236.5000,2.62013,263.258,0.860887
236.4000,0.790489,263.353,0.862009
236.3000,1.26947,263.003,0.857879
236.2000,0.659436,260.905,0.833033
236.1000,0.189277,261.713,0.842618
236.0000,-0.403948,262.686,0.854133
235.9000,-2.16256,262.599,0.853103
235.8000,0.931595,262.149,0.847783
235.7000,-0.879118,262.775,0.855191
235.6000,1.01595,262.61,0.853237
235.5000,1.24297,263.046,0.858388
235.4000,1.14602,261.483,0.839892
235.3000,-0.939616,262.968,0.857465
235.2000,0.524985,263.182,0.859992
235.1000,0.824159,263.478,0.863478
235.0000,0.0965209,263.515,0.863919
234.9000,4.39155,262.715,0.854481
234.8000,2.74269,263.602,0.864946
234.7000,2.31766,262.6,0.853116
234.6000,0.392068,263.114,0.85919
234.5000,2.5422,263.243,0.860713
234.4000,0.218323,262.944,0.857184
234.3000,2.53885,263.012,0.857986
234.2000,-2.11205,262.871,0.856315
234.1000,1.65682,263.568,0.864546
234.0000,2.62513,263.05,0.858427
233.9000,-1.02499,262.335,0.849982
233.8000,1.44294,263.542,0.864239
233.7000,2.66875,263.905,0.868508
233.6000,-0.743412,264.902,0.880223
233.5000,-1.12928,264.28,0.872919
233.4000,-0.766908,263.731,0.866454
233.3000,0.749571,264.544,0.876021
233.2000,0.595958,265.175,0.883425
233.1000,0.563807,264.329,0.873492
233.0000,-1.0616,265.047,0.881924
232.9000,3.01439,263.416,0.862743
232.8000,0.496358,264.758,0.878535
232.7000,0.883515,264.406,0.874397
232.6000,1.88584,265.193,0.883638
232.5000,-0.872981,264.18,0.871747
232.4000,-1.04129,264.427,0.87465
232.3000,1.60051,265.597,0.888363
232.2000,0.0542471,264.949,0.880768
232.1000,2.13955,264.677,0.877577
232.0000,0.759805,264.859,0.879718
231.9000,0.355583,265.347,0.885444
231.8000,-1.29892,264.626,0.876979
231.7000,-1.3241,265.819,0.890961
231.6000,1.28469,265.273,0.884567
231.5000,-2.70147,266.678,0.900994
231.4000,1.2902,264.741,0.878335
231.3000,2.76591,265.472,0.886903
231.2000,2.14535,265.726,0.889874
231.1000,0.339178,265.26,0.884421
231.0000,0.324537,265.284,0.8847
230.9000,-0.671726,266.29,0.896471
230.8000,-1.24364,265.728,0.889901
230.7000,-0.1278,265.172,0.883386
230.6000,1.31232,266.003,0.893121
230.5000,4.77199,265.84,0.891213
230.4000,0.0547574,265.618,0.888615
230.3000,4.27263,266.701,0.901272
230.2000,1.79853,266.033,0.893465
230.1000,1.55847,265.02,0.881605
230.0000,0.263218,265.926,0.89222
229.9000,-2.21953,265.172,0.883386
229.8000,5.62036,266.028,0.893412
229.7000,3.99724,266.013,0.893227
229.6000,-0.282232,265.402,0.886081
229.5000,1.32905,265.837,0.891173
229.4000,1.93355,265.982,0.892869
229.3000,-0.995092,266.16,0.894948
229.2000,2.06027,265.616,0.888588
229.1000,-1.32311,266.73,0.901602
229.0000,0.414259,265.332,0.885258
228.9000,4.81386,266.69,0.90114
228.8000,-3.40062,265.275,0.884594
228.7000,-0.975435,267.778,0.913808
228.6000,0.460191,267.192,0.906991
228.5000,2.643,267.804,0.914111
228.4000,1.56005,266.978,0.904496
228.3000,0.663888,267.283,0.908046
228.2000,5.64262,267.509,0.910684
228.1000,2.45873,267.142,0.90641
228.0000,0.176312,269.026,0.928297
227.9000,4.7661,268.066,0.917152
227.8000,-0.101483,267.279,0.908007
227.7000,-2.22464,268.262,0.919428
227.6000,-0.803174,268.408,0.921125
227.5000,0.107703,267.735,0.913307
227.4000,-1.76589,268.008,0.916481
227.3000,3.39792,268.619,0.923569
227.2000,-0.442472,269.532,0.934145
227.1000,2.39057,269.23,0.930658
227.0000,5.07586,267.967,0.916007
226.9000,-0.180376,268.066,0.917152
226.8000,1.27397,269.294,0.931392
226.7000,2.28976,268.162,0.918271
226.6000,2.16804,269.321,0.931707
226.5000,4.41311,267.616,0.911923
226.4000,0.400811,268.437,0.921467
226.3000,0.141927,269.16,0.929845
226.2000,1.07187,269.2,0.930304
226.1000,1.53665,269.549,0.934341
226.0000,-0.391614,269.254,0.930934
225.9000,-1.44736,269.147,0.929688
225.8000,5.26908,269.17,0.929963
225.7000,0.559819,268.85,0.926249
225.6000,-0.426702,270.327,0.943331
225.5000,-1.44673,270.084,0.94052
225.4000,-0.389741,269.496,0.933726
225.3000,3.41249,269.158,0.929819
225.2000,2.37534,268.745,0.925041
225.1000,0.800444,269.123,0.929412
225.0000,2.50732,270.216,0.94205
224.9000,4.30397,269.914,0.938558
224.8000,2.19557,270.348,0.943567
224.7000,-1.07669,269.799,0.937236
224.6000,0.297641,270.052,0.940154
224.5000,-1.34787,270.374,0.943867
224.4000,1.87359,270.462,0.944886
224.3000,2.75548,270.932,0.950304
224.2000,2.91044,270.745,0.948151
224.1000,0.570013,271.312,0.954672
224.0000,-4.39556,270.888,0.949796
223.9000,4.62821,272.507,0.968395
223.8000,2.99163,271.667,0.958749
223.7000,0.992198,270.717,0.947825
223.6000,-0.908619,271.39,0.955571
223.5000,-0.37866,270.712,0.947773
223.4000,1.38287,272.052,0.963172
223.3000,-1.72925,271.23,0.953734
223.2000,0.499128,270.794,0.948712
223.1000,3.57428,271.084,0.952052
223.0000,4.05088,272.244,0.965381
222.9000,2.51126,271.911,0.961559
222.8000,1.56271,272.411,0.967291
222.7000,1.45035,273.474,0.979453
222.6000,2.3716,271.817,0.960479
222.5000,1.45221,273.096,0.97514
222.4000,-4.31028,272.469,0.967953
222.3000,1.2641,272.968,0.973675
222.2000,2.14317,271.52,0.957069
222.1000,-0.551856,272.185,0.964706
222.0000,3.89358,272.321,0.966265
221.9000,0.324775,272.902,0.97291
221.8000,2.96882,271.322,0.95479
221.7000,2.04817,273.154,0.975801
221.6000,2.55555,273.184,0.976138
221.5000,0.849522,273.43,0.978948
221.4000,1.09071,272.442,0.967642
221.3000,-0.126606,273.773,0.982869
221.2000,5.03011,272.89,0.97278
221.1000,-1.04582,273.265,0.977071
221.0000,1.66599,273.485,0.979582
220.9000,1.46664,273.947,0.98486
220.8000,0.414634,275.041,0.997314
220.7000,-0.59706,273.031,0.974388
220.6000,4.03313,274.016,0.985649
220.5000,3.22122,273.195,0.976267
220.4000,2.43435,273.414,0.978767
220.3000,2.85531,272.608,0.96955
220.2000,1.45163,273.988,0.985326
220.1000,1.35398,273.46,0.979298
220.0000,-1.51565,274.527,0.991473
219.9000,3.04231,274.444,0.990518
219.8000,-0.5632,275.97,1.00786
219.7000,-0.491862,273.922,0.984576
219.6000,0.375884,274.857,0.995226
219.5000,-4.84297,273.884,0.984136
219.4000,2.19808,274.639,0.992737
219.3000,1.75598,274.285,0.988711
219.2000,0.89478,273.782,0.982973
219.1000,3.08183,273.981,0.985248
219.0000,0.199321,274.895,0.995651
218.9000,3.94692,274.138,0.987032
218.8000,0.624024,274.112,0.986734
218.7000,-0.372558,274.352,0.989472
218.6000,-1.24034,275.293,1.00019
218.5000,-0.265007,273.76,0.982727
218.4000,0.885917,275.564,1.00326
218.3000,4.58514,274.572,0.991976
218.2000,0.225126,274.89,0.9956
218.1000,1.55406,275.919,1.00729
218.0000,4.43148,275.312,1.00039
217.9000,1.01363,275.409,1.0015
217.8000,2.54513,274.057,0.986114
217.7000,0.217423,275.48,1.00231
217.6000,0.795082,275.768,1.00558
217.5000,-0.584655,274.93,0.996051
217.4000,0.729287,275.525,1.00281
217.3000,3.39054,275.858,1.00659
217.2000,3.01116,273.885,0.984149
217.1000,3.70362,275.5,1.00253
217.0000,3.53003,276.676,1.01586
216.9000,1.42023,276.328,1.01192
216.8000,2.08342,277.475,1.02489
216.7000,-0.500335,276.546,1.01438
216.6000,5.27123,276.64,1.01545
216.5000,-2.08612,276.734,1.01651
216.4000,-1.19538,275.895,1.00702
216.3000,4.06737,276.153,1.00994
216.2000,-1.69641,276.135,1.00974
216.1000,1.63538,276.924,1.01867
216.0000,-0.627557,277.008,1.01961
215.9000,3.00478,276.061,1.00889
215.8000,-2.76847,276.664,1.01573
215.7000,5.46279,276.417,1.01294
215.6000,-2.11912,277.596,1.02626
215.5000,2.90411,276.82,1.01749
215.4000,0.364945,277.955,1.03031
215.3000,-1.05858,276.928,1.01872
215.2000,3.45769,277.098,1.02064
215.1000,0.691311,277.147,1.02119
215.0000,0.902128,277.328,1.02324
214.9000,-2.2612,277.063,1.02024
214.8000,3.04175,277.905,1.02974
214.7000,1.18721,277.129,1.02098
214.6000,4.67233,277.042,1.02
214.5000,4.60973,277.459,1.02471
214.4000,-2.01863,277.7,1.02743
214.3000,2.25093,278.788,1.03968
214.2000,2.8097,276.773,1.01696
214.1000,2.23494,279.097,1.04316
214.0000,-0.27548,277.928,1.03
213.9000,1.24519,277.708,1.02752
213.8000,1.79912,278.225,1.03334
213.7000,4.07214,279.58,1.04858
213.6000,1.81575,278.993,1.04199
213.5000,2.69696,277.459,1.02471
213.4000,-3.85017,279.371,1.04624
213.3000,3.75346,278.194,1.033
213.2000,5.69908,278.576,1.0373
213.1000,-2.23757,277.697,1.02739
213.0000,2.75399,279.016,1.04224
212.9000,2.92996,279.301,1.04545
212.8000,0.0173756,278.525,1.03672
212.7000,7.02594,278.161,1.03263
212.6000,2.97056,280.098,1.05438
212.5000,1.76734,279.675,1.04964
212.4000,1.43239,278.968,1.04171
212.3000,4.38217,279.404,1.04661
212.2000,0.0955005,279.537,1.04809
212.1000,-0.258345,279.82,1.05127
212.0000,2.21157,279.459,1.04722
211.9000,2.41326,281.106,1.06566
211.8000,-3.37552,277.527,1.02548
211.7000,1.52829,280.269,1.0563
211.6000,0.780075,280.861,1.06292
211.5000,1.7579,280.8,1.06224
211.4000,3.43776,278.775,1.03954
211.3000,4.55896,279.025,1.04234
211.2000,2.68692,280.217,1.05571
211.1000,2.81924,279.451,1.04713
211.0000,5.82657,280.374,1.05748
210.9000,3.6976,280.583,1.05981
210.8000,4.20887,280.38,1.05754
210.7000,6.21534,280.48,1.05865
210.6000,-2.25829,280.816,1.06242
210.5000,3.7596,280.295,1.05659
210.4000,0.611514,281.266,1.06744
210.3000,3.10692,280.103,1.05444
210.2000,-2.74339,281.601,1.07118
210.1000,2.53305,283.329,1.0904
210.0000,-0.100716,280.802,1.06227
209.9000,-0.96072,280.903,1.06339
209.8000,2.8987,281.239,1.06714
209.7000,-3.73788,281.456,1.06957
209.6000,-0.268623,281.622,1.07141
209.5000,5.65847,282.291,1.07887
209.4000,2.77577,282.405,1.08013
209.3000,0.256307,281.882,1.07431
209.2000,3.89974,281.997,1.07559
209.1000,4.49544,282.059,1.07628
209.0000,3.08259,282.213,1.078
208.9000,-1.49115,282.075,1.07646
208.8000,4.08977,283.007,1.08683
208.7000,-3.14032,281.871,1.07419
208.6000,0.893416,282.621,1.08254
208.5000,0.586421,282.471,1.08087
208.4000,0.770554,282.389,1.07995
208.3000,-1.07798,282.194,1.07778
208.2000,1.0976,283.026,1.08703
208.1000,4.22954,282.862,1.08522
208.0000,4.68955,284.818,1.10688
207.9000,0.420572,284.102,1.09896
207.8000,4.89638,284.738,1.10599
207.7000,6.02592,284.003,1.09787
207.6000,2.73171,283.74,1.09496
207.5000,1.38533,284.77,1.10636
207.4000,3.69098,282.961,1.08631
207.3000,2.87332,284.665,1.10519
207.2000,0.212573,283.885,1.09657
207.1000,3.43843,284.427,1.10256
207.0000,0.708309,283.799,1.09561
206.9000,1.62862,286.97,1.13057
206.8000,0.34567,285.211,1.11122
206.7000,5.33871,283.343,1.09055
206.6000,-0.511572,285.777,1.11745
206.5000,-2.63707,285.113,1.11013
206.4000,3.18996,285.803,1.11774
206.3000,0.335925,285.894,1.11875
206.2000,0.54413,285.649,1.11604
206.1000,1.68426,286.144,1.1215
206.0000,1.60603,286.422,1.12456
205.9000,2.69032,285.053,1.10947
205.8000,0.698971,286.838,1.12913
205.7000,-2.04198,286.621,1.12674
205.6000,0.995468,285.46,1.11397
205.5000,5.68977,286.686,1.12746
205.4000,1.68899,286.468,1.12506
205.3000,1.60649,284.878,1.10754
205.2000,4.74791,286.885,1.12964
205.1000,1.44259,287.378,1.13505
205.0000,-2.1194,286.931,1.13015
204.9000,0.453348,287.507,1.13646
204.8000,1.82624,288.635,1.14881
204.7000,3.61338,287.9,1.14077
204.6000,-5.32332,287.893,1.1407
204.5000,-1.0136,286.63,1.12684
204.4000,3.67946,288.721,1.14975
204.3000,1.40355,290.063,1.16437
204.2000,5.32327,289.317,1.15626
204.1000,4.72971,288.805,1.15067
204.0000,-4.0922,289.622,1.15958
203.9000,4.58325,289.547,1.15876
203.8000,-1.8426,290.377,1.16779
203.7000,-2.078,291.264,1.17742
203.6000,4.09805,289.044,1.15328
203.5000,3.68568,289.329,1.15638
203.4000,2.42942,290.798,1.17237
203.3000,1.5448,289.793,1.16144
203.2000,0.822682,290.122,1.16502
203.1000,4.57568,289.248,1.1555
203.0000,-0.548457,290.784,1.17221
202.9000,-1.59296,290.829,1.1727
202.8000,-1.91951,291.445,1.17938
202.7000,2.2702,290.875,1.1732
202.6000,1.36036,292.519,1.191
202.5000,3.68051,289.776,1.16125
202.4000,0.630884,291.911,1.18443
202.3000,5.90806,292.851,1.19459
202.2000,7.0784,291.271,1.17749
202.1000,0.314984,291.749,1.18267
202.0000,-1.8166,292.722,1.1932
201.9000,1.18703,292.935,1.19549
201.8000,7.35948,293.182,1.19816
201.7000,6.10129,292.974,1.19591
201.6000,2.95479,293.017,1.19637
201.5000,0.686898,293.939,1.20631
201.4000,0.909016,293.791,1.20471
201.3000,6.26926,293.675,1.20347
201.2000,3.66364,293.598,1.20264
201.1000,2.04007,295.397,1.22197
201.0000,1.19702,294.196,1.20908
200.9000,5.30412,296.575,1.23456
200.8000,3.84559,294.223,1.20936
200.7000,-0.158228,296.395,1.23264
200.6000,-2.50872,294.203,1.20915
200.5000,0.267898,296.099,1.22948
200.4000,6.93925,296.613,1.23497
200.3000,-0.314171,295.588,1.22401
200.2000,-0.446985,295.317,1.22111
200.1000,-1.83463,295.908,1.22744
200.0000,3.89043,296.55,1.2343
199.9000,0.379808,295.792,1.22619
199.8000,2.27609,296.086,1.22934
199.7000,4.60351,296.515,1.23392
199.6000,2.91099,296.286,1.23147
199.5000,2.8592,297.029,1.23941
199.4000,-2.23547,297.871,1.24838
199.3000,6.87912,297.968,1.24942
199.2000,3.20003,297.388,1.24324
199.1000,2.77469,297.219,1.24144
199.0000,2.57964,298.311,1.25305
198.9000,4.26978,297.724,1.24681
198.8000,-2.24115,298.612,1.25626
198.7000,-0.887667,297.746,1.24705
198.6000,-0.674018,297.213,1.24137
198.5000,5.38321,298.483,1.25488
198.4000,-0.288639,300.136,1.27241
198.3000,0.671173,298.661,1.25677
198.2000,0.894424,300.012,1.2711
198.1000,4.86526,299.105,1.26149
198.0000,4.63623,298.341,1.25338
197.9000,-0.0782058,298.682,1.257
197.8000,4.40591,300.357,1.27474
197.7000,1.13262,299.375,1.26435
197.6000,4.82669,300.078,1.27179
197.5000,5.23027,299.844,1.26931
197.4000,-1.15897,300.846,1.27991
197.3000,11.844,301.058,1.28215
197.2000,5.35304,300.344,1.27461
197.1000,1.21972,301.385,1.28559
197.0000,-1.95162,300.768,1.27908
196.9000,4.46409,300.456,1.27578
196.8000,8.51067,301.313,1.28483
196.7000,1.50812,301.349,1.28522
196.6000,1.05497,300.794,1.27936
196.5000,6.54319,301.153,1.28315
196.4000,0.803956,302.197,1.29414
196.3000,5.66143,301.49,1.2867
196.2000,6.862,302.297,1.29518
196.1000,-0.950868,301.884,1.29085
196.0000,1.57944,302.544,1.29778
195.9000,11.5813,303.041,1.303
195.8000,-3.99846,303.587,1.30873
195.7000,4.0379,303.06,1.3032
195.6000,-2.24956,304.862,1.32205
195.5000,1.53476,304.216,1.31531
195.4000,1.08408,305.663,1.3304
195.3000,5.13097,305.183,1.3254
195.2000,4.35645,304.733,1.3207
195.1000,6.64356,306.036,1.33429
195.0000,2.61299,305.384,1.3275
194.9000,5.19271,304.91,1.32255
194.8000,2.41116,306.155,1.33552
194.7000,-3.42899,305.789,1.33171
194.6000,3.06516,306.872,1.34297
194.5000,4.44641,306.487,1.33897
194.4000,1.87348,306.672,1.34089
194.3000,3.86286,307.229,1.34668
194.2000,1.87561,308.115,1.35586
194.1000,3.56595,306.971,1.344
194.0000,3.08836,308.286,1.35762
193.9000,2.64895,309.41,1.36923
193.8000,-0.149524,309.534,1.3705
193.7000,-3.9381,310.68,1.3823
193.6000,3.50682,310.719,1.3827
193.5000,2.33812,310.754,1.38306
193.4000,0.912015,312.003,1.39586
193.3000,0.337072,310.911,1.38468
193.2000,2.33073,310.768,1.3832
193.1000,3.43517,312.759,1.4036
193.0000,4.40084,313.438,1.41053
192.9000,4.43083,313.883,1.41507
192.8000,3.08022,314.172,1.41801
192.7000,4.75067,314.541,1.42176
192.6000,6.68757,315.58,1.43231
192.5000,-2.53566,315.533,1.43184
192.4000,1.63554,316.571,1.44235
192.3000,-0.276099,317.152,1.44822
192.2000,4.03515,316.699,1.44364
192.1000,-0.55999,318.542,1.46223
192.0000,8.01389,319.773,1.4746
191.9000,-3.51657,317.815,1.45491
191.8000,3.50316,319.927,1.47614
191.7000,-7.58048,322.974,1.50657
191.6000,0.445958,322.083,1.4977
191.5000,-2.52578,322.063,1.4975
191.4000,1.02277,323.107,1.50789
191.3000,2.71753,322.954,1.50637
191.2000,7.43287,325.529,1.5319
191.1000,-0.843198,326.769,1.54413
191.0000,1.84692,326.983,1.54624
190.9000,-2.27971,326.986,1.54627
190.8000,-3.17435,329.914,1.57498
190.7000,3.95803,331.187,1.5874
190.6000,4.14751,332.135,1.59662
190.5000,1.60468,333.626,1.61108
190.4000,0.445693,333.742,1.6122
190.3000,-3.88989,334.946,1.62384
190.2000,6.57442,336.707,1.64079
190.1000,4.52899,337.329,1.64676
190.0000,-3.97123,337.493,1.64834

##### Extended Information
[Comments]
Sample name,bufferKCl_SSAM
Comment
User,ScharfMinor
Division
Company,Saint Mary's College

[Detailed Information]
Creation date,9/27/2022 2:08 PM

Data array type,Linear data array * 3
Horizontal axis,Wavelength [nm]
Vertical axis(1),CD [mdeg]
Vertical axis(2),HT [V]
Vertical axis(3),Abs
Start,320 nm
End,190 nm
Data interval,0.1 nm
Data points,1301    

[Measurement Information]
Instrument name,J-1500
Model name,J-1500
Serial No.,B051061638

Detector,PM-539
Detector S/N,B051061638
  Lock-in amp.,X mode
  HT volt,Auto

Accessory,PTC-517
Accessory S/N,B026561646
  Temperature,22.00 C
  Control sensor,Holder
  Monitor sensor,Holder

Measurement date,9/27/2022 2:08 PM

CD Overload detect,1152
Photometric mode,CD, HT, Abs
Measure range,320 - 190 nm
Data pitch,0.1 nm
CD scale,20 mdeg/0.05 dOD
FL scale,20 mdeg/0.05 dOD
D.I.T.,8 msec
Bandwidth,1.00 nm
Start mode,Immediately
Scanning mode,Continuous
Scanning speed,50 nm/min
Baseline correction,None
Shutter control,Auto
No. of cycle,1/1
N2 Flowmeter,Manual

Solvent,NaPO4 buffer

