TITLE,Buffer_JH_CW
DATA TYPE,
ORIGIN,JASCO
OWNER,
DATE,22/09/27
TIME,15:24:33
SPECTROMETER/DATA SYSTEM,
LOCALE,1033
RESOLUTION,
DELTAX,-0.1
XUNITS,NANOMETERS
YUNITS,CD [mdeg]
Y2UNITS,HT [V]
Y3UNITS,ABSORBANCE
FIRSTX,  320.0000
LASTX,  190.0000
NPOINTS,    1301
FIRSTY,     1.69356
MAXY,     6.20112
MINY,    -4.25732
XYDATA
320.0000,1.69356,207.04,0.130424
319.9000,-1.02202,206.945,0.129055
319.8000,-1.24134,207.248,0.133421
319.7000,2.38541,207.12,0.13158
319.6000,-0.32047,205.35,0.106048
319.5000,0.16246,206.061,0.116319
319.4000,1.74666,205.73,0.111539
319.3000,0.621753,205.503,0.108262
319.2000,-0.477594,207.45,0.136317
319.1000,2.55319,206.332,0.120226
319.0000,0.539091,206.49,0.122513
318.9000,0.797268,206.39,0.121075
318.8000,1.52923,205.563,0.109131
318.7000,1.64698,207.595,0.138399
318.6000,0.537896,205.001,0.100992
318.5000,1.06807,205.046,0.101633
318.4000,0.19092,207.434,0.13609
318.3000,2.63281,206.949,0.12912
318.2000,0.503312,206.622,0.124406
318.1000,2.45307,206.227,0.118722
318.0000,0.583382,205.583,0.109409
317.9000,2.00895,205.148,0.103111
317.8000,1.68547,205.951,0.114732
317.7000,1.36876,206.054,0.116221
317.6000,2.46494,204.921,0.0998258
317.5000,2.16129,207.127,0.131678
317.4000,0.179198,206.034,0.115926
317.3000,0.941606,206.633,0.12457
317.2000,0.569212,206.187,0.118134
317.1000,3.00889,206.66,0.124961
317.0000,2.67117,206.125,0.117251
316.9000,1.01756,206.274,0.119393
316.8000,1.93248,206.2,0.11833
316.7000,2.23492,206.784,0.12674
316.6000,0.134379,205.996,0.115386
316.5000,2.41625,206.766,0.126479
316.4000,2.28147,205.227,0.10426
316.3000,3.39319,206.577,0.12377
316.2000,2.07703,206.103,0.116924
316.1000,1.06931,205.699,0.111097
316.0000,1.61763,205.734,0.111605
315.9000,-0.692745,206.487,0.122464
315.8000,-0.197636,205.227,0.10426
315.7000,0.0413754,205.87,0.11357
315.6000,0.773587,205.739,0.11167
315.5000,0.399366,205.63,0.110098
315.4000,2.93955,206.087,0.116695
315.3000,-0.643503,206.426,0.121582
315.2000,0.954929,205.908,0.11411
315.1000,2.45614,204.625,0.0955345
315.0000,1.17205,205.978,0.115125
314.9000,0.0923006,205.768,0.112096
314.8000,-0.581781,206.136,0.117398
314.7000,-0.490289,205.342,0.105933
314.6000,0.798836,205.865,0.113488
314.5000,1.40719,205.404,0.106819
314.4000,0.431441,205.868,0.113537
314.3000,1.29919,205.584,0.109426
314.2000,0.997146,206.265,0.119262
314.1000,3.40458,206.085,0.116662
314.0000,0.114144,207.231,0.133176
313.9000,1.8283,206.036,0.115959
313.8000,2.95077,205.41,0.106917
313.7000,1.52575,206.046,0.116106
313.6000,0.456694,205.35,0.106048
313.5000,1.51275,205.288,0.105146
313.4000,0.582389,204.851,0.098807
313.3000,-0.166437,205.286,0.105113
313.2000,1.39701,205.172,0.103472
313.1000,0.308372,205.534,0.108704
313.0000,1.64694,206.328,0.120177
312.9000,0.945725,205.083,0.102175
312.8000,0.437481,205.702,0.11113
312.7000,1.63564,205.562,0.109114
312.6000,1.57055,205.419,0.107049
312.5000,0.411188,205.026,0.101354
312.4000,0.637701,205.664,0.110589
312.3000,0.167971,204.362,0.0917156
312.2000,0.753007,205.815,0.112767
312.1000,0.659415,206.182,0.118069
312.0000,1.38071,205.702,0.11113
311.9000,1.66398,205.262,0.104768
311.8000,0.942676,205.886,0.113799
311.7000,2.84887,204.249,0.0900683
311.6000,1.3402,205.168,0.103406
311.5000,-1.12322,205.059,0.10183
311.4000,3.19793,204.58,0.0948764
311.3000,0.602469,205.845,0.113209
311.2000,0.512347,204.945,0.100171
311.1000,1.99317,206.792,0.126854
311.0000,2.08468,205.805,0.11262
310.9000,1.55188,206.427,0.121598
310.8000,1.40649,205.93,0.114437
310.7000,0.824943,203.866,0.0844952
310.6000,0.926609,206.077,0.116548
310.5000,-0.0772133,206.401,0.121222
310.4000,2.36479,206.323,0.120095
310.3000,1.85467,205.567,0.10918
310.2000,2.75716,205.536,0.108737
310.1000,2.06405,205.595,0.10959
310.0000,2.31613,204.522,0.0940372
309.9000,2.33553,205.204,0.103931
309.8000,2.23888,204.88,0.0992342
309.7000,0.499115,205.276,0.104965
309.6000,0.959757,205.035,0.101485
309.5000,2.00653,205.858,0.113389
309.4000,0.862579,206.149,0.117594
309.3000,-0.0386589,204.35,0.0915345
309.2000,1.40108,206.273,0.119376
309.1000,1.07991,205.441,0.10736
309.0000,2.53397,205.33,0.105753
308.9000,1.89972,205.201,0.103882
308.8000,0.52757,205.006,0.101058
308.7000,1.94745,206.333,0.120242
308.6000,1.62173,206.446,0.121876
308.5000,1.1458,205.98,0.115157
308.4000,0.688465,205.935,0.114503
308.3000,-0.175236,205.919,0.114273
308.2000,1.28002,204.925,0.0998916
308.1000,3.68698,204.214,0.0895576
308.0000,1.51373,205.788,0.112374
307.9000,-0.096887,205.967,0.114961
307.8000,1.75136,206.412,0.121386
307.7000,1.84558,204.387,0.0920781
307.6000,1.47314,206.031,0.115893
307.5000,0.513972,206.347,0.120455
307.4000,2.70024,205.189,0.103718
307.3000,-0.882113,204.013,0.0866398
307.2000,2.56155,206.342,0.120373
307.1000,0.485047,205.801,0.112571
307.0000,1.47304,206.515,0.122872
306.9000,1.13301,205.043,0.1016
306.8000,1.61809,205.106,0.102503
306.7000,0.717199,205.44,0.107344
306.6000,1.01865,206.04,0.116024
306.5000,1.80283,204.925,0.0998916
306.4000,1.49852,205.732,0.111572
306.3000,0.160343,205.523,0.108541
306.2000,1.67364,206.626,0.124472
306.1000,2.20687,204.623,0.0955015
306.0000,-0.100702,205.896,0.113946
305.9000,1.68277,206.093,0.116777
305.8000,0.331449,205.472,0.107803
305.7000,0.268463,204.993,0.100877
305.6000,0.988836,204.812,0.098248
305.5000,0.275452,205.7,0.111113
305.4000,2.02119,205.806,0.112636
305.3000,2.79506,205.23,0.104309
305.2000,0.672152,205.456,0.107573
305.1000,0.601634,206.582,0.123835
305.0000,1.10765,206.88,0.128126
304.9000,1.40491,204.87,0.0990863
304.8000,1.49302,206.359,0.120618
304.7000,0.763861,205.214,0.104079
304.6000,2.41688,205.725,0.111474
304.5000,-0.297796,204.979,0.100664
304.4000,1.28056,207.03,0.130277
304.3000,1.39924,204.833,0.0985437
304.2000,2.38195,205.344,0.10595
304.1000,1.02319,205.442,0.107377
304.0000,2.48246,205.669,0.110655
303.9000,0.65665,207.198,0.132704
303.8000,-0.609019,203.897,0.0849406
303.7000,-0.292441,205.807,0.112653
303.6000,1.22447,206.076,0.116531
303.5000,1.02151,205.453,0.107541
303.4000,1.16455,205.14,0.102996
303.3000,0.589873,206.046,0.116106
303.2000,1.52508,205.363,0.106229
303.1000,2.69773,205.826,0.112931
303.0000,1.14039,204.643,0.0957977
302.9000,-0.152577,205.731,0.111556
302.8000,1.69245,203.447,0.0783844
302.7000,0.228359,205.672,0.110704
302.6000,1.66276,205.707,0.111212
302.5000,1.21861,204.92,0.0998094
302.4000,1.23711,204.71,0.0967682
302.3000,-0.820097,206.167,0.117856
302.2000,0.986464,205.06,0.101846
302.1000,0.898241,204.164,0.0888324
302.0000,1.55658,204.546,0.0943828
301.9000,1.53411,205.033,0.101452
301.8000,-0.0141374,204.658,0.0960117
301.7000,1.24961,205.432,0.107229
301.6000,-0.311808,204.557,0.0945473
301.5000,0.918534,205.315,0.10554
301.4000,1.8211,204.76,0.0974918
301.3000,2.27177,204.878,0.0992012
301.2000,0.986819,204.946,0.100187
301.1000,2.00348,205.354,0.106097
301.0000,1.80031,204.806,0.0981658
300.9000,1.6765,205.596,0.109606
300.8000,0.37249,205.162,0.103324
300.7000,1.57531,203.492,0.0790455
300.6000,1.79114,204.859,0.0989219
300.5000,1.34493,204.801,0.0980836
300.4000,1.68016,204.463,0.0931811
300.3000,0.190493,205.46,0.107639
300.2000,1.42125,205.063,0.101879
300.1000,0.0389213,205.145,0.103078
300.0000,0.542521,205.979,0.115141
299.9000,0.877899,205.78,0.11226
299.8000,1.43934,204.436,0.0927859
299.7000,1.39873,204.103,0.0879425
299.6000,-0.231866,204.309,0.0909416
299.5000,2.56945,205.035,0.101485
299.4000,0.662747,205.252,0.104621
299.3000,1.25745,205.851,0.113291
299.2000,0.805032,204.711,0.0967846
299.1000,0.047561,203.744,0.0827124
299.0000,1.61304,206.361,0.120651
298.9000,0.471328,205.29,0.105179
298.8000,0.614192,206.702,0.125565
298.7000,0.354647,205.552,0.108967
298.6000,1.32362,204.715,0.096834
298.5000,0.296768,203.763,0.0829933
298.4000,1.29911,204.018,0.0867058
298.3000,0.708253,205.127,0.102815
298.2000,1.05218,205.005,0.101042
298.1000,1.39595,204.936,0.10004
298.0000,1.56413,204.012,0.0866234
297.9000,0.716914,204.054,0.0872334
297.8000,2.23738,203.873,0.0845942
297.7000,1.51283,205.032,0.101436
297.6000,1.215,203.992,0.0863264
297.5000,0.810779,204.533,0.0942018
297.4000,1.61133,204.857,0.0989055
297.3000,1.05436,203.125,0.0736868
297.2000,1.65267,204.928,0.0999243
297.1000,1.73027,204.229,0.0897719
297.0000,1.05447,204.516,0.0939549
296.9000,1.12668,203.986,0.0862439
296.8000,0.14034,204.387,0.0920781
296.7000,1.71058,205.334,0.105818
296.6000,3.55887,204.333,0.0912874
296.5000,0.957764,205.781,0.112276
296.4000,1.17302,204.903,0.0995629
296.3000,0.678305,205.178,0.103554
296.2000,1.66827,205.251,0.104604
296.1000,2.22119,204.844,0.0987081
296.0000,1.31064,203.854,0.0843138
295.9000,0.834254,204.945,0.100171
295.8000,1.50782,204.522,0.0940372
295.7000,0.56825,204.448,0.0929673
295.6000,1.76201,204.884,0.0992833
295.5000,0.167495,205.129,0.102848
295.4000,1.75779,204.368,0.0917979
295.3000,0.795481,203.831,0.0839837
295.2000,-0.0854446,203.021,0.0721639
295.1000,2.3417,204.157,0.0887336
295.0000,1.8093,205.251,0.104604
294.9000,1.82775,204.558,0.0945637
294.8000,1.78426,204.62,0.0954523
294.7000,1.56194,204.664,0.0960939
294.6000,0.937423,204.715,0.096834
294.5000,0.910553,204.609,0.0953042
294.4000,-0.0951976,205.086,0.102224
294.3000,-0.163478,204.961,0.100401
294.2000,0.784748,204.607,0.0952714
294.1000,1.00353,204.903,0.0995629
294.0000,0.0350961,204.028,0.086854
293.9000,1.36865,204.278,0.0904969
293.8000,0.614938,204.453,0.0930329
293.7000,1.71781,203.931,0.0854356
293.6000,1.46579,203.946,0.0856666
293.5000,1.17968,203.466,0.0786652
293.4000,1.27996,205.84,0.113128
293.3000,3.24936,204.024,0.0867883
293.2000,1.24777,204.14,0.0884863
293.1000,2.37369,202.936,0.0709218
293.0000,0.851697,204.36,0.0916828
292.9000,0.801414,203.406,0.0777893
292.8000,1.29278,205.502,0.108246
292.7000,0.818208,203.294,0.0761522
292.6000,1.80575,203.506,0.0792437
292.5000,2.0973,204.15,0.0886347
292.4000,-0.491186,205.153,0.103193
292.3000,0.406993,205.427,0.107163
292.2000,-0.282503,204.092,0.0877777
292.1000,1.48351,204.606,0.0952547
292.0000,0.0771394,202.7,0.0674747
291.9000,-0.116892,202.97,0.0714187
291.8000,2.63532,204.29,0.0906617
291.7000,0.232732,204.297,0.0907605
291.6000,1.18975,204.393,0.0921604
291.5000,-0.0425602,203.006,0.0719485
291.4000,0.934239,205.024,0.101321
291.3000,1.45245,204.266,0.0903155
291.2000,1.7891,204.701,0.0966365
291.1000,0.833698,203.621,0.0809291
291.0000,0.411658,205.521,0.108524
290.9000,2.15737,203.016,0.0720976
290.8000,2.09764,203.488,0.0789793
290.7000,0.174922,206.149,0.117594
290.6000,-0.216513,205.015,0.101189
290.5000,2.34549,204.235,0.0898707
290.4000,0.888749,204.597,0.0951232
290.3000,0.940179,205.436,0.107295
290.2000,-0.36169,203.219,0.0750604
290.1000,2.34926,204.471,0.0932965
290.0000,3.31507,204.212,0.0895248
289.9000,-0.220295,204.054,0.0872334
289.8000,0.441776,203.709,0.0822007
289.7000,2.30087,203.661,0.0815072
289.6000,1.04404,204.66,0.0960444
289.5000,0.500972,203.34,0.0768302
289.4000,0.985924,204.051,0.0871838
289.3000,1.2214,203.933,0.0854688
289.2000,0.765078,204.251,0.0901015
289.1000,-0.365596,203.46,0.0785826
289.0000,1.45326,203.78,0.0832409
288.9000,0.712242,205.092,0.102306
288.8000,1.85211,204.507,0.0938231
288.7000,-1.3897,204.095,0.0878269
288.6000,1.50555,205.847,0.113226
288.5000,0.690842,203.709,0.0822007
288.4000,0.50371,205.421,0.107065
288.3000,1.4252,204.688,0.0964393
288.2000,3.18909,204.505,0.0937903
288.1000,-0.225258,204.201,0.0893764
288.0000,1.29479,202.486,0.0643397
287.9000,1.18297,204.845,0.0987248
287.8000,1.61703,202.68,0.0671762
287.7000,1.1434,204.167,0.088882
287.6000,1.54945,204.234,0.0898543
287.5000,2.31803,203.934,0.0854852
287.4000,3.99872,205.835,0.113062
287.3000,-0.58829,203.797,0.0834885
287.2000,1.18539,204.564,0.094646
287.1000,2.11132,203.692,0.081953
287.0000,-0.403155,204.154,0.0886843
286.9000,2.05146,204.785,0.0978534
286.8000,1.25024,204.712,0.096801
286.7000,-0.712322,203.737,0.0826135
286.6000,1.0256,204.193,0.0892612
286.5000,0.405688,204.15,0.0886347
286.4000,2.25114,202.816,0.0691654
286.3000,0.659872,205.534,0.108704
286.2000,-0.0765195,204.136,0.0884203
286.1000,-0.974047,203.934,0.0854852
286.0000,0.246846,203.942,0.0856005
285.9000,1.15291,204.599,0.095156
285.8000,0.751702,203.92,0.085287
285.7000,0.291244,203.957,0.0858151
285.6000,1.60831,204.706,0.0967024
285.5000,-0.260896,203.874,0.0846106
285.4000,-0.0865594,203.477,0.0788305
285.3000,1.77959,204.217,0.0896072
285.2000,0.880286,202.8,0.0689336
285.1000,1.05668,204.378,0.0919462
285.0000,0.18201,204.301,0.0908264
284.9000,0.765955,203.854,0.0843138
284.8000,0.461077,203.833,0.0840166
284.7000,2.43839,204.238,0.0899036
284.6000,1.73474,203.147,0.0740013
284.5000,-0.339075,203.798,0.083505
284.4000,-1.3435,204.377,0.0919298
284.3000,0.506012,204.09,0.0877609
284.2000,1.62324,203.789,0.0833728
284.1000,0.667123,205.204,0.103931
284.0000,0.441434,204.486,0.0935103
283.9000,0.437415,203.771,0.0831087
283.8000,-0.46009,203.574,0.0802351
283.7000,0.147272,203.882,0.0847263
283.6000,1.15853,204.38,0.0919793
283.5000,1.11785,204.141,0.0885027
283.4000,-0.425562,204.501,0.0937244
283.3000,-0.264808,203.895,0.0849242
283.2000,0.676714,204.554,0.0944978
283.1000,0.227287,203.941,0.0855841
283.0000,0.728777,204.149,0.0886183
282.9000,1.5129,204.504,0.0937736
282.8000,0.636929,204.064,0.0873819
282.7000,1.82007,204.81,0.098215
282.6000,-0.0883005,204.465,0.0932142
282.5000,1.9957,204.498,0.0936913
282.4000,0.91993,205.6,0.109655
282.3000,1.48523,204.174,0.0889808
282.2000,1.17797,204.506,0.0938067
282.1000,2.37739,204.785,0.0978534
282.0000,0.313428,205.006,0.101058
281.9000,0.820016,205.086,0.102224
281.8000,1.53769,204.277,0.0904802
281.7000,1.7704,203.665,0.081573
281.6000,1.68001,204.546,0.0943828
281.5000,0.776948,202.807,0.069033
281.4000,0.656966,203.688,0.0819033
281.3000,1.72085,204.448,0.0929673
281.2000,0.738147,203.643,0.0812427
281.1000,1.15799,204.05,0.0871674
281.0000,2.00736,202.515,0.0647711
280.9000,-1.40299,203.135,0.0738358
280.8000,1.84348,204.908,0.0996451
280.7000,0.579441,205.166,0.103373
280.6000,1.70067,203.627,0.0810117
280.5000,0.636932,204.365,0.0917487
280.4000,-0.187227,202.393,0.0629789
280.3000,0.755341,203.992,0.0863264
280.2000,1.19739,204.058,0.087283
280.1000,0.953676,203.878,0.0846767
280.0000,0.705567,203.803,0.0835711
279.9000,-0.195435,204.191,0.089228
279.8000,1.76308,204.349,0.0915181
279.7000,1.4745,204.221,0.0896564
279.6000,0.649599,204.24,0.0899367
279.5000,-0.242724,203.805,0.0836039
279.4000,-0.213532,204.292,0.0906945
279.3000,0.361144,203.958,0.0858316
279.2000,0.264755,203.549,0.0798718
279.1000,-0.349993,204.717,0.0968668
279.0000,0.329378,204.844,0.0987081
278.9000,1.83811,205.036,0.101501
278.8000,1.20664,204.601,0.0951891
278.7000,2.5161,204.544,0.0943497
278.6000,0.691361,204.462,0.0931647
278.5000,-0.0373334,204.116,0.0881402
278.4000,1.09954,203.929,0.0854191
278.3000,1.10648,203.401,0.0777231
278.2000,0.889358,204.731,0.097064
278.1000,1.66487,203.837,0.0840662
278.0000,1.47668,203.204,0.0748452
277.9000,1.50362,203.837,0.0840662
277.8000,-0.110924,204.171,0.0889315
277.7000,0.00439712,205.121,0.102733
277.6000,0.600946,204.861,0.0989546
277.5000,-0.096632,204.084,0.087662
277.4000,0.517839,203.935,0.0855016
277.3000,0.483241,205.135,0.10293
277.2000,1.34985,204.692,0.0965051
277.1000,2.27807,205.398,0.106737
277.0000,1.53352,204.854,0.0988561
276.9000,1.27891,205.387,0.106573
276.8000,1.32993,204.104,0.0879589
276.7000,1.75036,204.277,0.0904802
276.6000,0.188343,204.118,0.0881566
276.5000,1.22882,204.547,0.0943992
276.4000,1.07953,204.657,0.095995
276.3000,-0.0567749,204.232,0.0898212
276.2000,1.48958,203.92,0.085287
276.1000,0.543855,206.156,0.117692
276.0000,0.705911,203.562,0.0800699
275.9000,1.37313,204.675,0.0962584
275.8000,0.122382,204.25,0.0900851
275.7000,1.37294,203.859,0.0843963
275.6000,1.13177,204.457,0.0930988
275.5000,0.18058,205.285,0.105097
275.4000,1.57366,204.353,0.091584
275.3000,0.747418,203.584,0.0803839
275.2000,0.973356,205.629,0.110081
275.1000,1.41225,205.706,0.111195
275.0000,1.00751,204.448,0.0929673
274.9000,0.261194,204.891,0.0993986
274.8000,1.51323,204.888,0.0993491
274.7000,1.70143,206.155,0.117676
274.6000,0.984454,203.664,0.0815566
274.5000,2.24072,204.894,0.0994313
274.4000,-0.3211,204.242,0.0899695
274.3000,0.524975,203.746,0.0827457
274.2000,0.91377,204.698,0.0965874
274.1000,-0.372547,205.874,0.113619
274.0000,0.0876475,204.515,0.0939382
273.9000,1.77441,203.363,0.0771609
273.8000,-0.013609,204.13,0.0883379
273.7000,0.627342,204.382,0.0919958
273.6000,1.68284,205.188,0.103702
273.5000,1.10278,204.037,0.0869861
273.4000,2.63355,205.238,0.104424
273.3000,0.697072,204.559,0.0945801
273.2000,-0.869371,204.939,0.100089
273.1000,1.13298,203.745,0.0827289
273.0000,0.0925562,204.488,0.0935434
272.9000,0.47049,204.505,0.0937903
272.8000,1.13671,204.993,0.100877
272.7000,0.495656,206.371,0.120798
272.6000,2.44172,204.039,0.0870189
272.5000,0.739588,205.748,0.111801
272.4000,1.88362,205.067,0.101945
272.3000,0.30147,204.508,0.0938395
272.2000,1.61503,205.376,0.106425
272.1000,-0.0195638,203.983,0.0861943
272.0000,0.457072,206.214,0.118526
271.9000,1.47536,205.027,0.10137
271.8000,0.0554001,204.683,0.0963734
271.7000,1.35124,204.525,0.0940864
271.6000,1.00235,204.312,0.0909912
271.5000,0.00420655,204.816,0.0982971
271.4000,0.872002,204.954,0.100302
271.3000,1.39546,203.837,0.0840662
271.2000,0.214878,204.537,0.094251
271.1000,1.5873,205.305,0.105392
271.0000,-0.831253,205.568,0.109196
270.9000,1.49314,206.043,0.116057
270.8000,-0.772248,205.24,0.104456
270.7000,0.752342,205.112,0.102602
270.6000,1.51316,205.736,0.111621
270.5000,0.945992,205.129,0.102848
270.4000,0.0728443,204.388,0.0920945
270.3000,1.00499,204.743,0.0972452
270.2000,1.57734,206.004,0.115501
270.1000,0.875855,204.622,0.0954851
270.0000,0.30172,205.368,0.106311
269.9000,-0.266303,205.921,0.114306
269.8000,1.50291,206.014,0.115648
269.7000,1.29664,204.854,0.0988561
269.6000,1.75806,206.702,0.125565
269.5000,1.92339,205.261,0.104752
269.4000,0.232077,205.083,0.102175
269.3000,1.01154,204.792,0.097952
269.2000,0.352948,204.116,0.0881402
269.1000,0.203065,205.636,0.110179
269.0000,1.39503,204.82,0.098363
268.9000,-0.184848,206.049,0.116155
268.8000,0.515545,205.651,0.110393
268.7000,1.44791,205.432,0.107229
268.6000,1.15318,205.915,0.114208
268.5000,1.04126,204.688,0.0964393
268.4000,1.17254,206.183,0.118085
268.3000,0.519817,205.303,0.105359
268.2000,1.13422,206.473,0.122268
268.1000,-0.660853,206.3,0.119768
268.0000,0.671045,205.268,0.10485
267.9000,0.857892,206.274,0.119393
267.8000,0.450747,205.552,0.108967
267.7000,1.36412,206.185,0.118117
267.6000,0.754674,205.47,0.107786
267.5000,1.30961,205.804,0.112604
267.4000,-0.554659,204.997,0.100926
267.3000,1.47498,205.366,0.106278
267.2000,1.05401,205.1,0.102421
267.1000,-0.0832258,206.239,0.118886
267.0000,-1.07095,206.295,0.119703
266.9000,0.151881,205.711,0.111261
266.8000,0.307379,205.766,0.112063
266.7000,-0.295918,204.985,0.100762
266.6000,0.611585,205.459,0.107623
266.5000,-0.652512,205.237,0.104407
266.4000,3.07235,206.964,0.129332
266.3000,0.899087,206.414,0.121419
266.2000,1.31981,205.751,0.111851
266.1000,0.851376,206.957,0.129234
266.0000,0.312279,206.418,0.121467
265.9000,0.248888,204.725,0.0969818
265.8000,0.152258,206.009,0.115566
265.7000,-0.281517,206.411,0.121369
265.6000,1.36892,205.836,0.113079
265.5000,1.36191,205.655,0.110458
265.4000,-0.474526,206.631,0.124537
265.3000,1.34446,205.527,0.108606
265.2000,0.0774914,205.947,0.114682
265.1000,0.110745,206.616,0.124325
265.0000,1.29998,206.029,0.115861
264.9000,-1.15877,205.868,0.113537
264.8000,0.430556,205.741,0.111703
264.7000,0.246314,206.485,0.122431
264.6000,1.17405,206.963,0.129315
264.5000,2.14943,206.503,0.122692
264.4000,0.832625,207.009,0.129984
264.3000,0.0775901,205.557,0.109032
264.2000,1.0893,206.953,0.129169
264.1000,1.31071,206.582,0.123835
264.0000,0.735738,207.524,0.137374
263.9000,-0.167142,206.328,0.120177
263.8000,1.53,207.124,0.131629
263.7000,1.09351,205.979,0.115141
263.6000,2.11054,206.542,0.123264
263.5000,0.590851,206.158,0.117725
263.4000,2.87637,206.851,0.127702
263.3000,-0.480861,206.686,0.125337
263.2000,0.877005,206.162,0.117774
263.1000,1.93424,206.881,0.128142
263.0000,-0.593609,206.916,0.128647
262.9000,-1.25298,206.407,0.12132
262.8000,0.28152,206.1,0.116891
262.7000,1.65555,206.781,0.126707
262.6000,-1.91495,207.377,0.135276
262.5000,-1.04527,207.375,0.135243
262.4000,0.672331,206.873,0.128028
262.3000,0.0400869,207.095,0.131222
262.2000,-0.549465,207.5,0.137033
262.1000,1.15048,207.206,0.132818
262.0000,2.00888,207.956,0.143581
261.9000,-0.106658,207.201,0.132737
261.8000,-0.0637775,207.385,0.13539
261.7000,-1.0281,206.658,0.124929
261.6000,1.59564,207.232,0.133193
261.5000,0.14039,207.59,0.138334
261.4000,1.89816,206.77,0.126544
261.3000,-0.704548,207.062,0.13075
261.2000,0.493099,207.094,0.131206
261.1000,-0.412241,206.883,0.128174
261.0000,1.586,207.308,0.134283
260.9000,0.722797,207.664,0.13939
260.8000,-0.41129,207.937,0.143305
260.7000,2.3133,206.822,0.127294
260.6000,0.892332,206.967,0.129381
260.5000,2.12763,206.797,0.126935
260.4000,0.796113,207.941,0.143354
260.3000,-0.306546,207.592,0.13835
260.2000,0.947057,207.459,0.136447
260.1000,0.580436,207.877,0.142445
260.0000,2.37658,207.713,0.140089
259.9000,0.0226414,207.891,0.14264
259.8000,1.38173,207.82,0.141633
259.7000,3.95292,208.867,0.15661
259.6000,-0.936608,207.684,0.139683
259.5000,1.02451,207.349,0.134869
259.4000,1.22363,207.335,0.134674
259.3000,-0.163267,207.689,0.139748
259.2000,-0.337013,208.276,0.148156
259.1000,2.08893,207.537,0.13757
259.0000,0.574676,207.558,0.137862
258.9000,-0.451503,208.661,0.153665
258.8000,2.46635,208.38,0.149648
258.7000,1.80229,207.917,0.143013
258.6000,0.00114085,206.115,0.117104
258.5000,1.60999,208.42,0.150215
258.4000,0.31891,207.773,0.14095
258.3000,-0.67066,209.494,0.165545
258.2000,0.532663,208.129,0.146048
258.1000,1.25962,208.033,0.144685
258.0000,2.14856,208.316,0.148724
257.9000,0.682601,207.711,0.140057
257.8000,0.932656,208.377,0.149599
257.7000,-0.1807,207.876,0.142429
257.6000,0.532132,207.902,0.142802
257.5000,1.47009,208.689,0.15407
257.4000,0.693501,208.617,0.153034
257.3000,0.266735,208.066,0.145156
257.2000,1.54987,208.458,0.150766
257.1000,1.86203,209.535,0.166126
257.0000,0.252084,208.685,0.154005
256.9000,1.38952,207.512,0.137212
256.8000,1.05927,209.187,0.161169
256.7000,0.5882,209.278,0.162461
256.6000,1.11328,209.051,0.15923
256.5000,1.91451,208.243,0.147686
256.4000,0.292533,208.661,0.153665
256.3000,0.856471,208.784,0.155413
256.2000,0.309398,208.917,0.157322
256.1000,2.13215,208.237,0.147605
256.0000,-0.229684,209.442,0.164802
255.9000,0.166664,209.927,0.171704
255.8000,0.651668,208.046,0.144864
255.7000,2.86144,209.138,0.160474
255.6000,-0.34962,208.778,0.155332
255.5000,2.19022,208.5,0.151366
255.4000,2.53159,208.684,0.153989
255.3000,1.19162,210.472,0.179444
255.2000,-0.671862,209.424,0.164544
255.1000,-0.591499,208.874,0.156707
255.0000,-1.04889,208.701,0.154232
254.9000,-0.55274,209.756,0.16927
254.8000,1.56873,209.308,0.162897
254.7000,1.09102,209.416,0.164431
254.6000,-1.1647,209.171,0.160943
254.5000,-0.830344,209.08,0.15965
254.4000,1.64513,208.943,0.157694
254.3000,0.0452723,209.623,0.167384
254.2000,0.803717,209.802,0.169931
254.1000,0.0429868,209.671,0.168061
254.0000,1.56914,208.566,0.152305
253.9000,0.054722,208.917,0.157322
253.8000,-1.38806,211.05,0.187633
253.7000,0.743366,210.849,0.184793
253.6000,0.933953,209.486,0.165432
253.5000,0.666981,209.834,0.170382
253.4000,-0.0360798,210.451,0.179154
253.3000,1.66517,209.914,0.171526
253.2000,0.510993,209.61,0.16719
253.1000,0.359895,209.596,0.166997
253.0000,0.485467,210.356,0.177804
252.9000,0.478965,210.309,0.177128
252.8000,0.731079,210.86,0.184953
252.7000,-0.392171,210.403,0.178463
252.6000,0.594803,210.215,0.175793
252.5000,0.178644,210.145,0.174811
252.4000,1.2378,210.939,0.18606
252.3000,3.01281,209.377,0.163882
252.2000,1.42737,209.1,0.159925
252.1000,-0.0732207,210.551,0.180569
252.0000,0.67328,210.601,0.181276
251.9000,2.72495,210.649,0.181951
251.8000,0.695167,209.888,0.171156
251.7000,1.65158,210.144,0.174795
251.6000,0.846647,210.274,0.17663
251.5000,1.45716,211.087,0.188162
251.4000,0.1575,210.645,0.181902
251.3000,1.91475,209.604,0.16711
251.2000,1.42928,210.121,0.174457
251.1000,-0.757006,210.702,0.182705
251.0000,0.609518,210.67,0.182256
250.9000,-0.521249,210.85,0.184809
250.8000,-1.43304,210.714,0.182882
250.7000,-0.425056,210.625,0.181613
250.6000,2.35427,210.527,0.180232
250.5000,1.65137,211.05,0.187633
250.4000,0.575093,210.337,0.17753
250.3000,1.72622,210.487,0.179653
250.2000,0.20874,210.629,0.181678
250.1000,0.788054,210.625,0.181613
250.0000,-0.559552,210.831,0.184536
249.9000,-0.794088,210.967,0.186462
249.8000,1.24898,210.958,0.186333
249.7000,0.624914,210.79,0.183958
249.6000,2.17223,211.331,0.191608
249.5000,-1.12565,210.684,0.182448
249.4000,1.89079,211.129,0.188755
249.3000,-0.796676,211.024,0.187264
249.2000,-0.374545,210.89,0.185371
249.1000,0.894778,211.965,0.200569
249.0000,2.41311,210.489,0.179685
248.9000,1.28902,211.584,0.195195
248.8000,0.301278,210.938,0.186044
248.7000,-0.885188,210.816,0.184327
248.6000,0.858845,211.549,0.194699
248.5000,-0.717046,211.485,0.193786
248.4000,-0.120939,209.952,0.172058
248.3000,0.999416,211.544,0.194619
248.2000,1.94384,211.275,0.190823
248.1000,0.563965,211.538,0.194539
248.0000,0.337224,211.637,0.195931
247.9000,0.312178,211.398,0.192553
247.8000,-0.714956,211.782,0.197979
247.7000,-0.801868,210.879,0.18521
247.6000,0.0880569,211.089,0.188194
247.5000,0.849917,211.398,0.192553
247.4000,1.53037,211.632,0.195867
247.3000,1.1963,212.014,0.201256
247.2000,0.927234,211.599,0.195403
247.1000,0.657249,211.54,0.194571
247.0000,-0.981275,212.061,0.201927
246.9000,1.11428,211.932,0.200105
246.8000,-0.148363,212.516,0.208327
246.7000,0.373736,212.177,0.203556
246.6000,0.691459,211.708,0.196939
246.5000,0.103222,212.54,0.208662
246.4000,2.41378,212.211,0.204035
246.3000,2.24829,212.4,0.2067
246.2000,-1.10718,212.271,0.204881
246.1000,0.309504,211.733,0.197291
246.0000,2.2313,212.313,0.205472
245.9000,-0.50883,212.558,0.208917
245.8000,0.926403,212.329,0.205695
245.7000,0.950024,212.26,0.204721
245.6000,-1.67396,212.824,0.212662
245.5000,-0.614231,212.904,0.213793
245.4000,-1.287,212.112,0.202646
245.3000,3.66466,212.699,0.21091
245.2000,-0.654017,212.117,0.202709
245.1000,0.0945982,212.674,0.210559
245.0000,1.99269,212.758,0.211738
244.9000,1.17353,212.898,0.213698
244.8000,1.55205,212.784,0.212105
244.7000,0.197782,212.494,0.208024
244.6000,1.82952,212.82,0.212599
244.5000,-0.0889096,212.983,0.214892
244.4000,-0.0794121,212.938,0.214271
244.3000,-0.318116,212.48,0.207817
244.2000,-1.00433,213.035,0.215624
244.1000,1.23287,213.004,0.215194
244.0000,0.803124,213.036,0.21564
243.9000,0.981977,213.57,0.223128
243.8000,-0.0793393,213.387,0.22057
243.7000,-0.174985,212.81,0.212471
243.6000,2.59106,213.643,0.22416
243.5000,0.29732,213.159,0.217374
243.4000,1.40789,213.352,0.220077
243.3000,0.574574,213.186,0.21774
243.2000,2.10824,213.573,0.223176
243.1000,-0.099746,213.249,0.218631
243.0000,0.200924,213.963,0.228635
242.9000,1.52705,213.056,0.215926
242.8000,0.504819,214,0.229159
242.7000,2.09058,213.616,0.223779
242.6000,0.997149,214.417,0.234989
242.5000,-0.284181,213.596,0.223493
242.4000,0.178836,214.09,0.230411
242.3000,0.94673,213.767,0.225891
242.2000,-1.28457,214.364,0.234245
242.1000,-1.00406,213.851,0.227065
242.0000,-0.520713,213.939,0.228302
241.9000,0.384881,214.416,0.234973
241.8000,1.96364,214.226,0.232312
241.7000,2.0825,213.98,0.228873
241.6000,1.59275,213.984,0.228937
241.5000,-0.809996,214.26,0.232788
241.4000,0.314275,215.319,0.247568
241.3000,0.242711,214.354,0.234102
241.2000,1.19592,214.323,0.233675
241.1000,1.09673,215.061,0.24397
241.0000,0.36584,214.765,0.239846
240.9000,1.08722,214.689,0.238786
240.8000,0.413345,215.111,0.244665
240.7000,-0.212477,214.907,0.241822
240.6000,2.29379,214.784,0.240114
240.5000,0.219784,214.724,0.239276
240.4000,3.19085,215.164,0.245406
240.3000,-0.00426265,214.492,0.236033
240.2000,0.773947,215.039,0.24367
240.1000,1.13492,215.324,0.247632
240.0000,3.14458,215.351,0.24801
239.9000,1.98308,215.293,0.247206
239.8000,0.190973,215.499,0.250076
239.7000,1.13354,215.248,0.246574
239.6000,0.487535,215.924,0.255983
239.5000,1.30991,215.915,0.255857
239.4000,-0.369275,215.339,0.247852
239.3000,0.700275,216.628,0.265744
239.2000,-0.193995,216.018,0.257289
239.1000,1.76626,215.998,0.257006
239.0000,1.87387,215.945,0.256267
238.9000,0.336888,216.423,0.262902
238.8000,2.42229,215.782,0.254015
238.7000,0.310743,216.462,0.263452
238.6000,0.179304,215.657,0.252267
238.5000,-1.0878,216.043,0.257635
238.4000,0.389575,216.433,0.263043
238.3000,1.25803,216.842,0.26871
238.2000,-1.32942,216.791,0.268004
238.1000,-0.121474,216.553,0.264708
238.0000,-0.336078,216.672,0.266357
237.9000,0.786555,216.39,0.262446
237.8000,1.05722,217.125,0.272629
237.7000,-0.231379,216.826,0.26849
237.6000,0.99489,216.699,0.266733
237.5000,1.30966,217.045,0.271517
237.4000,3.10214,216.812,0.268302
237.3000,1.3996,216.682,0.266498
237.2000,2.70576,216.466,0.263499
237.1000,0.557206,217.964,0.284205
237.0000,0.893013,217.793,0.281846
236.9000,1.13313,217.143,0.27288
236.8000,1.72451,217.723,0.280893
236.7000,1.10295,217.202,0.273695
236.6000,1.90875,217.428,0.27681
236.5000,-0.667648,218.048,0.285361
236.4000,0.999839,217.408,0.276544
236.3000,-0.243692,217.391,0.276309
236.2000,1.57498,217.32,0.275323
236.1000,0.290192,217.166,0.273193
236.0000,1.42504,218.853,0.296445
235.9000,0.0852224,218.563,0.292458
235.8000,2.074,219.142,0.300412
235.7000,1.13383,217.166,0.273193
235.6000,0.529775,218.129,0.286485
235.5000,-0.0879355,219.434,0.304422
235.4000,2.08671,218.332,0.289278
235.3000,1.01109,218.647,0.293611
235.2000,2.13439,218.59,0.292832
235.1000,-0.126238,218.083,0.285845
235.0000,0.217983,218.244,0.288061
234.9000,1.30058,218.917,0.297316
234.8000,1.232,218.162,0.286937
234.7000,0.180842,219.89,0.31066
234.6000,1.09315,219.378,0.303645
234.5000,0.320107,220.637,0.320864
234.4000,0.431085,218.342,0.289418
234.3000,1.05267,219.432,0.30439
234.2000,1.43795,219.051,0.299168
234.1000,1.91477,218.317,0.289075
234.0000,0.35689,219.796,0.309373
233.9000,1.55543,219.562,0.306176
233.8000,1.1554,218.943,0.297674
233.7000,1.47682,219.864,0.310304
233.6000,2.2536,219.458,0.304748
233.5000,2.40554,220.035,0.312644
233.4000,3.1,220.927,0.32482
233.3000,0.566961,220.564,0.319874
233.2000,0.79941,220.405,0.317708
233.1000,1.9389,220.922,0.324758
233.0000,1.90541,220.104,0.313589
232.9000,1.19392,219.692,0.307946
232.8000,1.63343,220.228,0.315278
232.7000,-1.98978,220.539,0.319534
232.6000,2.49272,219.375,0.303614
232.5000,2.3448,221.246,0.329173
232.4000,1.21741,219.947,0.311435
232.3000,0.82567,221.78,0.336432
232.2000,1.69756,222.34,0.34403
232.1000,0.391868,222.167,0.341694
232.0000,-0.258159,221.056,0.32658
231.9000,3.51274,221.781,0.336448
231.8000,1.17144,221.185,0.32834
231.7000,2.70103,221.761,0.33617
231.6000,1.63903,221.453,0.331995
231.5000,2.07625,221.6,0.333983
231.4000,1.69944,221.895,0.338002
231.3000,2.56401,221.392,0.331163
231.2000,1.85896,221.991,0.339295
231.1000,0.900492,221.673,0.334985
231.0000,0.927533,222.72,0.349189
230.9000,1.76499,221.667,0.334892
230.8000,-1.17772,222.489,0.346058
230.7000,0.158842,223.521,0.36002
230.6000,2.51057,222.272,0.343108
230.5000,0.735603,222.29,0.343354
230.4000,2.01962,222.272,0.343108
230.3000,1.97651,222.729,0.349312
230.2000,0.908056,221.893,0.337971
230.1000,-1.40089,222.204,0.342186
230.0000,0.12754,222.462,0.345689
229.9000,2.00679,222.752,0.349618
229.8000,1.6961,221.982,0.339172
229.7000,0.283269,223.511,0.359882
229.6000,1.40795,222.992,0.352869
229.5000,1.93529,222.595,0.347486
229.4000,1.8105,223.093,0.354233
229.3000,0.00749299,222.711,0.349066
229.2000,1.86037,222.878,0.351321
229.1000,0.483677,223.645,0.361687
229.0000,2.34457,222.635,0.348038
228.9000,2.53478,223.172,0.355306
228.8000,2.20422,223.441,0.358934
228.7000,1.62397,224.154,0.368546
228.6000,0.754231,223.527,0.360097
228.5000,0.385676,224.56,0.374021
228.4000,1.97803,223.73,0.362834
228.3000,3.47159,223.91,0.365264
228.2000,-0.0180559,223.568,0.360647
228.1000,0.800399,222.979,0.352685
228.0000,1.19907,225.076,0.380949
227.9000,0.681898,224.347,0.371155
227.8000,1.66006,225.083,0.38104
227.7000,-0.306844,225.242,0.383184
227.6000,3.77189,225.01,0.380066
227.5000,0.774519,224.59,0.374417
227.4000,0.216062,224.694,0.375819
227.3000,0.276767,225.397,0.38525
227.2000,2.07217,226.822,0.404313
227.1000,2.9386,225.032,0.380355
227.0000,2.78718,225.956,0.392748
226.9000,0.476293,226.037,0.393824
226.8000,1.09029,226.845,0.404615
226.7000,-0.567212,225.493,0.386541
226.6000,0.160852,227.451,0.412691
226.5000,0.587159,226.189,0.395855
226.4000,2.466,225.312,0.384111
226.3000,0.0262149,227.242,0.409916
226.2000,0.637297,226.662,0.402181
226.1000,1.85316,226.339,0.397869
226.0000,1.47969,227.276,0.410368
225.9000,-0.842861,226.355,0.398081
225.8000,1.47134,226.295,0.397278
225.7000,2.64639,227.013,0.406866
225.6000,2.14636,227.205,0.409417
225.5000,0.378193,226.228,0.396385
225.4000,2.02807,226.2,0.396006
225.3000,0.351046,226.832,0.404449
225.2000,-0.914817,227.055,0.407425
225.1000,0.477226,228.326,0.424314
225.0000,-0.662393,227.778,0.417047
224.9000,-0.277034,228.582,0.427709
224.8000,2.55514,228.441,0.425847
224.7000,1.67629,228.037,0.420479
224.6000,0.567217,227.744,0.416595
224.5000,0.726285,229.013,0.433427
224.4000,0.429843,227.391,0.411892
224.3000,-0.0855326,228.111,0.421472
224.2000,1.09891,227.506,0.41343
224.1000,0.840284,228.158,0.422089
224.0000,2.97788,228.854,0.431312
223.9000,1.31063,227.872,0.418296
223.8000,-0.622785,228.927,0.432287
223.7000,1.21623,228.301,0.423983
223.6000,0.676878,228.988,0.433097
223.5000,3.34457,228.658,0.428715
223.4000,1.31516,229.38,0.438281
223.3000,2.36977,229.488,0.439704
223.2000,2.00673,229.308,0.437323
223.1000,1.52489,229.497,0.439824
223.0000,3.43327,230.272,0.450047
222.9000,1.52463,230.152,0.448465
222.8000,3.11755,229.938,0.445642
222.7000,-1.94386,229.768,0.443399
222.6000,1.86903,229.869,0.44473
222.5000,-0.233507,230.316,0.45063
222.4000,1.5372,230.586,0.45418
222.3000,0.503875,230.63,0.454761
222.2000,1.81803,230.829,0.457369
222.1000,2.25915,229.929,0.445522
222.0000,2.29842,230.73,0.456073
221.9000,2.14045,230.834,0.457443
221.8000,1.08176,231.672,0.468436
221.7000,0.73261,230.976,0.459305
221.6000,2.266,231.153,0.461627
221.5000,1.77882,230.723,0.455983
221.4000,-0.0816862,231.214,0.46243
221.3000,-0.00805322,231.947,0.472043
221.2000,0.8195,230.746,0.456281
221.1000,1.65563,229.74,0.443025
221.0000,0.768446,231.502,0.466207
220.9000,1.57188,230.805,0.457056
220.8000,2.06414,231.976,0.472429
220.7000,-0.528068,233.26,0.489199
220.6000,1.38407,231.294,0.463486
220.5000,0.777051,231.985,0.472547
220.4000,2.94448,232.462,0.478787
220.3000,1.40411,232.095,0.473986
220.2000,1.82133,232.341,0.477203
220.1000,2.28151,231.707,0.468896
220.0000,2.31977,231.957,0.472176
219.9000,0.910768,232.977,0.485505
219.8000,1.30009,234.126,0.500465
219.7000,-0.110698,233.77,0.495839
219.6000,1.41487,233.303,0.48976
219.5000,0.0562325,231.982,0.472503
219.4000,2.90038,233.318,0.489952
219.3000,0.111783,233.095,0.487042
219.2000,2.64537,233.054,0.48651
219.1000,1.58978,233.116,0.487323
219.0000,0.556146,233.523,0.492624
218.9000,2.13681,233.993,0.498742
218.8000,1.16022,233.376,0.490705
218.7000,4.0721,233.648,0.494247
218.6000,1.6838,233.973,0.498477
218.5000,3.19824,234.981,0.511564
218.4000,-0.336428,234.716,0.508128
218.3000,0.22808,234.106,0.500215
218.2000,2.87067,234.496,0.505276
218.1000,1.30533,235.003,0.511843
218.0000,3.14187,234.372,0.503658
217.9000,0.949285,234.701,0.507937
217.8000,0.658492,235.501,0.518296
217.7000,0.78716,234.482,0.505085
217.6000,1.71314,234.826,0.509553
217.5000,3.34246,235.613,0.519746
217.4000,-0.118768,235.965,0.524284
217.3000,2.83155,236.144,0.526594
217.2000,0.792845,235.528,0.518647
217.1000,3.31757,237.102,0.538941
217.0000,0.984359,236.381,0.529648
216.9000,2.17811,234.835,0.50967
216.8000,2.7258,235.906,0.523523
216.7000,1.7778,236.033,0.525161
216.6000,-0.14903,235.864,0.522981
216.5000,-0.126109,235.988,0.524591
216.4000,2.77971,236.054,0.525439
216.3000,0.737435,236.676,0.533459
216.2000,1.28474,235.935,0.523903
216.1000,0.285301,236.396,0.529853
216.0000,2.32821,237.381,0.542524
215.9000,0.654967,236.914,0.536522
215.8000,0.885419,236.954,0.537032
215.7000,3.03924,237.409,0.542888
215.6000,-0.599859,236.871,0.535968
215.5000,2.09375,236.964,0.537163
215.4000,1.73481,237.67,0.546234
215.3000,3.19579,237.597,0.545303
215.2000,3.12845,237.907,0.549272
215.1000,1.88416,237.708,0.546728
215.0000,3.69791,237.902,0.549214
214.9000,1.03188,237.731,0.547019
214.8000,0.271524,238.006,0.55055
214.7000,2.24208,237.982,0.550231
214.6000,2.07022,238.621,0.558414
214.5000,1.29721,238.312,0.55447
214.4000,2.24892,238.677,0.559138
214.3000,3.65969,238.063,0.551276
214.2000,0.416265,238.741,0.55995
214.1000,1.79008,238.514,0.557051
214.0000,0.377307,238.453,0.556268
213.9000,3.827,239.142,0.565075
213.8000,2.06858,238.878,0.561703
213.7000,-1.21052,239.563,0.570453
213.6000,-0.15763,238.869,0.561587
213.5000,1.50917,238.647,0.558747
213.4000,1.84874,240.809,0.586296
213.3000,0.41956,240.345,0.580408
213.2000,3.24374,238.5,0.556877
213.1000,0.430617,240.015,0.576213
213.0000,1.23421,239.349,0.567722
212.9000,0.64904,240.407,0.5812
212.8000,0.280334,241.094,0.589919
212.7000,3.98011,239.591,0.5708
212.6000,-0.0145,239.978,0.575737
212.5000,-0.925707,239.979,0.575751
212.4000,1.41924,240.137,0.577756
212.3000,0.0143034,240.568,0.583245
212.2000,-0.491518,240.666,0.584483
212.1000,4.38615,241.701,0.597613
212.0000,2.22787,241.626,0.596653
211.9000,2.24726,240.235,0.57901
211.8000,0.40993,240.806,0.586267
211.7000,2.29874,240.463,0.581906
211.6000,0.874801,241.062,0.589516
211.5000,2.12764,241.688,0.597441
211.4000,1.20158,241.529,0.595433
211.3000,2.49484,242.655,0.609669
211.2000,-1.10012,241.458,0.594529
211.1000,0.597921,241.708,0.597699
211.0000,0.604517,242.067,0.602243
210.9000,0.358778,242.419,0.60668
210.8000,1.51907,242.1,0.602658
210.7000,0.909518,243.749,0.623437
210.6000,1.77717,244.168,0.628702
210.5000,-0.312453,241.266,0.592102
210.4000,-0.349848,241.628,0.596681
210.3000,4.09484,242.916,0.612955
210.2000,1.86782,243.237,0.616994
210.1000,-2.07679,243.935,0.625771
210.0000,2.58531,243.918,0.625558
209.9000,2.51716,243.331,0.618178
209.8000,1.96238,242.376,0.606136
209.7000,1.19391,243.594,0.621485
209.6000,1.95291,243.072,0.614925
209.5000,2.54568,244.141,0.628361
209.4000,1.97981,244.23,0.629484
209.3000,3.99121,244.046,0.627166
209.2000,1.37067,243.612,0.621713
209.1000,0.00896976,244.855,0.63731
209.0000,1.72361,243.922,0.625615
208.9000,2.07524,245.48,0.645133
208.8000,1.3102,246.531,0.658235
208.7000,1.48749,244.798,0.636601
208.6000,0.099328,245.494,0.645303
208.5000,-0.154294,246.08,0.652615
208.4000,2.23611,246.418,0.656838
208.3000,2.85783,246.039,0.652107
208.2000,0.6941,245.337,0.643349
208.1000,0.302291,245.402,0.644156
208.0000,1.67865,245.799,0.649109
207.9000,-1.26701,246.431,0.656993
207.8000,-0.199928,246.501,0.657867
207.7000,2.88625,246.797,0.661548
207.6000,2.47561,247.115,0.665507
207.5000,1.39626,246.618,0.659321
207.4000,3.37313,247.744,0.673313
207.3000,-0.363055,247.742,0.673285
207.2000,3.61553,247.108,0.665423
207.1000,-0.309188,247.536,0.670727
207.0000,1.50385,247.783,0.673791
206.9000,1.07191,247.672,0.672414
206.8000,2.75364,248.142,0.678242
206.7000,0.586495,248.759,0.685881
206.6000,-2.07265,249.205,0.691381
206.5000,1.39093,248.049,0.677091
206.4000,1.92258,248.312,0.680346
206.3000,-0.0162692,249.248,0.691912
206.2000,1.34124,248.255,0.679645
206.1000,0.613972,249.677,0.697207
206.0000,2.02485,249.234,0.691744
205.9000,-0.614082,248.656,0.684607
205.8000,0.153976,249.266,0.692135
205.7000,0.322736,251.235,0.716353
205.6000,1.79233,250.153,0.703065
205.5000,1.52553,249.942,0.700472
205.4000,0.912827,249.211,0.691464
205.3000,-2.86295,250.06,0.701922
205.2000,2.58052,250.985,0.713282
205.1000,-0.495238,251.738,0.722514
205.0000,2.14107,251.004,0.713518
204.9000,1.2177,252.236,0.728597
204.8000,-0.14724,252.421,0.730866
204.7000,0.668723,252.326,0.729704
204.6000,2.52618,250.443,0.706632
204.5000,-2.63513,251.16,0.715436
204.4000,4.13908,252.824,0.735774
204.3000,3.13672,252.433,0.731004
204.2000,2.14406,252.867,0.736299
204.1000,0.858159,253.005,0.737984
204.0000,4.69186,253.303,0.741614
203.9000,3.74609,253.347,0.742152
203.8000,0.122421,252.654,0.733701
203.7000,-0.412465,253.629,0.745585
203.6000,-0.408939,255.793,0.771812
203.5000,-0.706845,253.791,0.747555
203.4000,0.469619,255.049,0.762811
203.3000,0.464169,255.401,0.767075
203.2000,2.44914,254.335,0.75416
203.1000,4.61163,255.152,0.764059
203.0000,-0.935561,255.049,0.762811
202.9000,4.56983,255.144,0.763963
202.8000,6.20112,255.276,0.765553
202.7000,3.32947,256.292,0.777828
202.6000,3.2215,255.49,0.768143
202.5000,1.04834,255.538,0.768732
202.4000,0.643293,255.923,0.773372
202.3000,-1.14202,257.154,0.78821
202.2000,2.38316,256.497,0.7803
202.1000,0.320075,256.861,0.78468
202.0000,0.0948935,257.592,0.793465
201.9000,1.43135,257.709,0.794879
201.8000,0.320072,258.693,0.806664
201.7000,3.41928,257.81,0.796089
201.6000,5.30859,258.591,0.805444
201.5000,1.4143,258.659,0.806258
201.4000,3.2374,258.939,0.809605
201.3000,3.84151,258.943,0.809659
201.2000,2.8575,259.804,0.81994
201.1000,0.158666,259.823,0.820156
201.0000,3.98177,259.646,0.818048
200.9000,1.27019,259.92,0.821317
200.8000,0.186109,260.244,0.825177
200.7000,-0.876161,259.895,0.82102
200.6000,1.83022,261.096,0.835307
200.5000,1.78272,261.265,0.837311
200.4000,1.70029,260.738,0.831053
200.3000,-0.166692,261.771,0.843316
200.2000,3.21797,260.61,0.829531
200.1000,3.8726,261.352,0.838346
200.0000,-1.24254,262.131,0.847569
199.9000,1.33434,262.801,0.855499
199.8000,0.248454,263.405,0.862623
199.7000,0.490772,263.255,0.860847
199.6000,0.43602,263.34,0.861849
199.5000,1.82935,262.676,0.854013
199.4000,0.702619,263.395,0.862503
199.3000,-0.0897246,262.118,0.847422
199.2000,2.21664,263.822,0.867535
199.1000,1.77481,263.434,0.862957
199.0000,1.82026,263.954,0.869081
198.9000,0.825726,264.101,0.870814
198.8000,3.45344,264.779,0.878774
198.7000,-0.191081,264.507,0.875582
198.6000,1.19523,265.327,0.885204
198.5000,1.1951,267.04,0.905222
198.4000,1.5096,265.467,0.88685
198.3000,3.4472,266.364,0.897331
198.2000,-1.01084,265.799,0.890736
198.1000,-1.01881,266.186,0.895253
198.0000,3.18898,268.024,0.916665
197.9000,1.21749,266.72,0.901483
197.8000,3.2363,266.61,0.900201
197.7000,3.29359,267.342,0.908732
197.6000,-0.675259,268.824,0.925947
197.5000,3.92198,267.254,0.907717
197.4000,0.453629,266.852,0.90303
197.3000,-0.00393347,268.816,0.925855
197.2000,3.45569,268.159,0.918231
197.1000,4.23647,268.752,0.92512
197.0000,1.90162,269.118,0.92936
196.9000,-0.00388147,269.236,0.930723
196.8000,2.74188,269.36,0.932153
196.7000,-0.00373261,269.79,0.937131
196.6000,2.90585,269.232,0.930671
196.5000,2.44958,270.251,0.942456
196.4000,3.11882,269.772,0.936921
196.3000,3.58301,270.839,0.949234
196.2000,0.673952,271.231,0.953747
196.1000,1.88156,271.617,0.958176
196.0000,-0.679162,272.006,0.962652
195.9000,0.0515904,271.899,0.961416
195.8000,3.06709,274.159,0.987277
195.7000,0.605299,273.068,0.974816
195.6000,1.40025,272.114,0.963887
195.5000,1.6476,273.587,0.980747
195.4000,0.170354,273.145,0.975697
195.3000,-1.85161,274.678,0.993189
195.2000,-0.609698,274.373,0.989718
195.1000,2.89233,274.798,0.994556
195.0000,-2.78174,275.405,1.00145
194.9000,2.62309,275.099,0.997971
194.8000,-0.0992346,275.4,1.0014
194.7000,3.12141,275.377,1.00114
194.6000,3.81498,276.943,1.01888
194.5000,1.59631,276.408,1.01283
194.4000,-1.56937,276.864,1.01799
194.3000,0.76534,277.479,1.02494
194.2000,0.777306,279.363,1.04615
194.1000,-0.234384,277.665,1.02704
194.0000,-2.25422,280.347,1.05717
193.9000,0.797974,279.289,1.04531
193.8000,2.4521,279.484,1.0475
193.7000,4.09073,281.192,1.06662
193.6000,2.12468,280.952,1.06394
193.5000,2.09819,282.217,1.07804
193.4000,2.46808,284.412,1.1024
193.3000,2.6782,284.591,1.10438
193.2000,-2.61901,283.693,1.09443
193.1000,3.97078,284.051,1.0984
193.0000,3.04374,285.749,1.11715
192.9000,5.79704,285.848,1.11824
192.8000,0.185667,285.576,1.11524
192.7000,3.13394,287.236,1.13349
192.6000,1.6765,286.614,1.12667
192.5000,2.59713,286.599,1.1265
192.4000,3.4205,289.538,1.15866
192.3000,-0.759371,288.956,1.15231
192.2000,-0.46783,290.514,1.16928
192.1000,1.88534,290.773,1.1721
192.0000,0.0906414,291.394,1.17883
191.9000,6.18058,292.913,1.19525
191.8000,5.54348,292.258,1.18818
191.7000,0.754015,292.942,1.19557
191.6000,0.946341,295.017,1.21789
191.5000,-2.87637,296.294,1.23156
191.4000,0.172843,295.933,1.22771
191.3000,0.921746,297.972,1.24945
191.2000,2.44995,298.325,1.25321
191.1000,4.28715,300.04,1.27139
191.0000,1.28921,301.68,1.2887
190.9000,0.803092,303.288,1.30559
190.8000,4.66092,304.362,1.31683
190.7000,-3.44209,305.366,1.32731
190.6000,-4.25732,306.367,1.33773
190.5000,1.16459,307.519,1.34968
190.4000,2.45467,308.182,1.35655
190.3000,2.25798,309.705,1.37227
190.2000,0.443036,311.747,1.39324
190.1000,-0.368601,312.795,1.40396
190.0000,-1.33499,313.669,1.41289

##### Extended Information
[Comments]
Sample name,Buffer_JH_CW
Comment
User,ScharfMinor
Division
Company,Saint Mary's College

[Detailed Information]
Creation date,9/27/2022 3:24 PM

Data array type,Linear data array * 3
Horizontal axis,Wavelength [nm]
Vertical axis(1),CD [mdeg]
Vertical axis(2),HT [V]
Vertical axis(3),Abs
Start,320 nm
End,190 nm
Data interval,0.1 nm
Data points,1301    

[Measurement Information]
Instrument name,J-1500
Model name,J-1500
Serial No.,B051061638

Detector,PM-539
Detector S/N,B051061638
  Lock-in amp.,X mode
  HT volt,Auto

Accessory,PTC-517
Accessory S/N,B026561646
  Temperature,22.07 C
  Control sensor,Holder
  Monitor sensor,Holder

Measurement date,9/27/2022 3:24 PM

CD Overload detect,1279
Photometric mode,CD, HT, Abs
Measure range,320 - 190 nm
Data pitch,0.1 nm
CD scale,20 mdeg/0.05 dOD
FL scale,20 mdeg/0.05 dOD
D.I.T.,8 msec
Bandwidth,2.00 nm
Start mode,Immediately
Scanning mode,Continuous
Scanning speed,100 nm/min
Baseline correction,None
Shutter control,Auto
No. of cycle,1/1
N2 Flowmeter,Manual

Solvent,NaPO4 buffer

