TITLE,buffer
DATA TYPE,
ORIGIN,JASCO
OWNER,
DATE,22/09/27
TIME,13:21:40
SPECTROMETER/DATA SYSTEM,
LOCALE,1033
RESOLUTION,
DELTAX,-0.1
XUNITS,NANOMETERS
YUNITS,CD [mdeg]
Y2UNITS,HT [V]
Y3UNITS,ABSORBANCE
FIRSTX,  320.0000
LASTX,  190.0000
NPOINTS,    1301
FIRSTY,    -0.85096
MAXY,     9.53320
MINY,    -8.98400
XYDATA
320.0000,-0.850964,256.268,0.777541
319.9000,0.431486,256.778,0.783684
319.8000,0.0892308,256.668,0.782361
319.7000,-0.0751178,256.869,0.784775
319.6000,2.11126,256.344,0.778456
319.5000,-1.68577,256.845,0.784489
319.4000,-2.36952,256.679,0.782497
319.3000,0.464766,256.397,0.779098
319.2000,3.65571,256.887,0.784993
319.1000,-0.232998,256.316,0.778115
319.0000,1.63833,256.458,0.779836
318.9000,-0.617206,257.411,0.791301
318.8000,2.24635,256.52,0.780573
318.7000,0.748262,256.183,0.776516
318.6000,1.94965,256.801,0.783957
318.5000,0.924955,256.863,0.784707
318.4000,0.230835,256.283,0.777719
318.3000,-1.31523,256.689,0.782606
318.2000,0.677956,256.873,0.78483
318.1000,2.10063,256.766,0.783534
318.0000,0.343239,256.123,0.775792
317.9000,-0.519071,256.32,0.77817
317.8000,2.14044,256.881,0.784925
317.7000,1.29814,256.555,0.780996
317.6000,1.42568,256.463,0.77989
317.5000,2.76653,256.614,0.781706
317.4000,2.25171,257.006,0.786425
317.3000,2.83865,256.424,0.779426
317.2000,-0.0686189,256.713,0.782906
317.1000,-0.215256,256.273,0.777596
317.0000,-1.73375,256.757,0.783425
316.9000,1.63414,257.201,0.788768
316.8000,0.167108,256.055,0.774972
316.7000,3.01804,256.827,0.784271
316.6000,-0.499455,256.192,0.776626
316.5000,3.60574,256.861,0.78468
316.4000,5.82303,256.516,0.780532
316.3000,3.13532,256.352,0.778552
316.2000,-0.0565109,256.694,0.782675
316.1000,3.21742,256.605,0.781597
316.0000,0.6352,256.821,0.784202
315.9000,0.835638,256.316,0.778115
315.8000,0.990899,256.021,0.774562
315.7000,1.24371,256.438,0.77959
315.6000,0.127648,255.814,0.772058
315.5000,1.89459,256.579,0.781283
315.4000,-0.380635,256.173,0.776393
315.3000,0.768407,256.395,0.779071
315.2000,-0.458607,256.41,0.779248
315.1000,3.11292,256.114,0.775682
315.0000,-0.215691,256.029,0.774657
314.9000,2.60891,255.713,0.77084
314.8000,1.27513,256.492,0.780245
314.7000,2.38364,256.541,0.780832
314.6000,-1.71482,256.31,0.778047
314.5000,-0.67715,256.258,0.777418
314.4000,-0.328104,256.289,0.777787
314.3000,0.507141,255.722,0.77095
314.2000,2.18276,256.404,0.77918
314.1000,3.78602,255.75,0.771292
314.0000,0.984328,256.044,0.774835
313.9000,0.822666,256.179,0.776462
313.8000,1.41243,256.081,0.775286
313.7000,1.00549,256.171,0.776366
313.6000,0.28964,256.451,0.77974
313.5000,0.952841,256.086,0.775341
313.4000,-0.054834,256.34,0.778402
313.3000,0.504023,255.977,0.774028
313.2000,1.4563,255.923,0.773372
313.1000,1.32204,256.277,0.77765
313.0000,-0.723484,255.238,0.765101
312.9000,1.85262,255.713,0.77084
312.8000,2.8804,256.291,0.777814
312.7000,1.27766,256.26,0.777445
312.6000,1.10078,255.072,0.763086
312.5000,-0.357518,256.021,0.774562
312.4000,1.82967,255.915,0.773276
312.3000,3.9703,255.892,0.773002
312.2000,2.10558,256.333,0.77832
312.1000,1.49002,257.082,0.787338
312.0000,-2.09159,255.21,0.764759
311.9000,1.47548,256.235,0.777145
311.8000,1.53558,256.429,0.779481
311.7000,-0.0333646,255.634,0.769882
311.6000,0.725754,256.302,0.777951
311.5000,0.327695,256.317,0.778129
311.4000,2.85738,256.427,0.779453
311.3000,0.490042,255.255,0.765307
311.2000,-1.60634,256.667,0.782347
311.1000,1.71735,256.681,0.782511
311.0000,1.84022,255.857,0.772578
310.9000,1.4943,256.465,0.779917
310.8000,-0.86017,255.851,0.77251
310.7000,-1.99501,255.557,0.768951
310.6000,1.41074,255.669,0.770307
310.5000,0.786287,255.397,0.76702
310.4000,2.83081,256.743,0.783261
310.3000,4.69994,255.764,0.771456
310.2000,1.7783,255.896,0.773057
310.1000,-1.02892,255.862,0.772647
310.0000,1.53243,256.052,0.774931
309.9000,-0.256974,255.791,0.771785
309.8000,1.96574,255.797,0.771853
309.7000,0.353233,256.381,0.778907
309.6000,2.02077,255.753,0.771319
309.5000,0.328105,255.935,0.773522
309.4000,0.362565,255.456,0.767732
309.3000,-1.29996,255.791,0.771785
309.2000,3.62658,256.053,0.774944
309.1000,-0.699941,256.491,0.780232
309.0000,0.535334,255.937,0.773549
308.9000,2.82822,255.84,0.772373
308.8000,0.253028,255.367,0.766663
308.7000,0.964874,255.697,0.770649
308.6000,-2.40007,255.337,0.766294
308.5000,2.84309,255.711,0.770813
308.4000,0.535407,256.199,0.776707
308.3000,1.54474,256.403,0.779166
308.2000,-0.088298,256.546,0.780887
308.1000,-0.910964,255.901,0.773112
308.0000,-1.92075,255.778,0.771621
307.9000,3.38894,256.357,0.778607
307.8000,0.944976,256.079,0.775259
307.7000,-0.938487,256.008,0.774397
307.6000,5.42358,255.33,0.766211
307.5000,1.68742,256.388,0.778989
307.4000,3.17717,256.09,0.775395
307.3000,-4.14611,254.836,0.760232
307.2000,1.22488,255.029,0.762564
307.1000,0.646986,255.6,0.769471
307.0000,1.1386,256.151,0.776134
306.9000,2.58253,257.007,0.786438
306.8000,0.190279,255.484,0.768075
306.7000,2.25266,255.174,0.76432
306.6000,3.48364,255.455,0.767719
306.5000,1.61492,255.977,0.774028
306.4000,1.78712,256.584,0.781351
306.3000,2.9092,256.324,0.77821
306.2000,1.66271,255.693,0.770594
306.1000,3.54869,255.278,0.765581
306.0000,2.54894,254.908,0.76111
305.9000,4.8589,255.977,0.774028
305.8000,0.939637,255.772,0.771552
305.7000,1.72638,255.68,0.770444
305.6000,2.40862,255.518,0.768486
305.5000,-3.47294,256.015,0.774493
305.4000,0.783379,255.344,0.766376
305.3000,0.0620658,255.183,0.76443
305.2000,1.17321,255.932,0.773481
305.1000,0.325693,255.937,0.773549
305.0000,2.45725,255.816,0.772086
304.9000,-3.07651,255.087,0.763278
304.8000,3.7457,255.526,0.768581
304.7000,1.9842,256.287,0.777773
304.6000,1.8439,255.255,0.765307
304.5000,0.432881,255.945,0.773645
304.4000,-1.18583,255.566,0.769061
304.3000,-0.30319,255.537,0.768718
304.2000,0.39753,255.361,0.766581
304.1000,2.49543,255.18,0.764402
304.0000,1.09816,255.009,0.762331
303.9000,0.403737,255.31,0.765965
303.8000,1.86068,255.38,0.766814
303.7000,1.51451,255.036,0.76266
303.6000,0.690232,255.137,0.763881
303.5000,1.82616,255.664,0.770252
303.4000,5.20025,256.023,0.774589
303.3000,1.46889,255.087,0.763278
303.2000,1.65441,254.927,0.76133
303.1000,2.10759,254.94,0.761494
303.0000,0.104481,255.244,0.76517
302.9000,2.53242,255.329,0.766198
302.8000,-3.49329,255.291,0.765745
302.7000,2.47108,255.542,0.768773
302.6000,0.289045,255.477,0.767993
302.5000,-0.549136,255.413,0.767212
302.4000,-1.61851,255.378,0.766787
302.3000,-0.0957837,255.255,0.765307
302.2000,1.10435,255.311,0.765978
302.1000,3.9773,255.262,0.765389
302.0000,-2.21591,255.192,0.764539
301.9000,1.19878,254.65,0.75798
301.8000,1.51222,254.356,0.754407
301.7000,1.30152,254.595,0.757307
301.6000,-0.148729,254.77,0.759435
301.5000,2.08971,255.204,0.76469
301.4000,-0.627872,254.92,0.761247
301.3000,1.29191,255.135,0.763853
301.2000,2.4062,254.778,0.759531
301.1000,0.648464,254.75,0.759188
301.0000,-1.56074,254.923,0.761288
300.9000,2.67984,254.803,0.759834
300.8000,2.441,254.946,0.761563
300.7000,3.59228,254.768,0.759408
300.6000,1.29017,255.133,0.763826
300.5000,-0.0959966,254.276,0.753445
300.4000,1.97342,255.097,0.763387
300.3000,-0.584767,254.861,0.760534
300.2000,2.73754,255.456,0.767732
300.1000,-0.234584,255.081,0.763195
300.0000,3.11263,254.996,0.762167
299.9000,0.529812,254.797,0.759765
299.8000,1.17552,255.73,0.771046
299.7000,-0.0482677,254.377,0.754669
299.6000,0.351917,255.274,0.76554
299.5000,-0.00767009,254.172,0.752179
299.4000,3.16221,255.271,0.765499
299.3000,1.61107,254.776,0.759504
299.2000,-1.07794,255.274,0.76554
299.1000,-2.73569,255.126,0.763744
299.0000,2.19263,254.498,0.756139
298.9000,1.24699,254.339,0.754201
298.8000,1.04014,254.675,0.758282
298.7000,4.40631,254.859,0.760506
298.6000,1.62267,254.879,0.760753
298.5000,-0.850015,255.127,0.763758
298.4000,2.13251,255.058,0.762921
298.3000,2.09368,254.41,0.755067
298.2000,1.02307,255.284,0.76565
298.1000,1.43343,254.772,0.759463
298.0000,1.47043,254.708,0.75868
297.9000,0.77212,254.616,0.757568
297.8000,2.04445,254.714,0.758749
297.7000,3.29269,254.691,0.758474
297.6000,1.25597,254.8,0.759792
297.5000,2.17825,254.511,0.75629
297.4000,0.00435387,254.35,0.754339
297.3000,3.45468,254.548,0.756744
297.2000,2.62266,254.64,0.757856
297.1000,4.00634,254.58,0.757128
297.0000,4.33788,254.24,0.753005
296.9000,0.0903092,254.586,0.757197
296.8000,0.955657,254.252,0.753156
296.7000,2.01892,255.024,0.76251
296.6000,0.892014,254.238,0.752977
296.5000,1.09631,254.377,0.754669
296.4000,1.13899,254.154,0.751959
296.3000,1.79475,254.482,0.755947
296.2000,-0.670321,254.813,0.759957
296.1000,1.7354,254.974,0.761906
296.0000,2.82835,254.582,0.757156
295.9000,4.13568,254.346,0.754297
295.8000,-0.452617,254.843,0.760314
295.7000,2.29754,254.477,0.755878
295.6000,3.28169,255.2,0.764635
295.5000,0.911676,254.401,0.754957
295.4000,0.110905,254.973,0.761892
295.3000,3.63482,254.115,0.751492
295.2000,4.13523,254.735,0.75901
295.1000,3.45417,255.075,0.763127
295.0000,-0.206164,254.478,0.755892
294.9000,-1.73673,253.872,0.748532
294.8000,3.99949,254.315,0.753912
294.7000,1.3818,254.094,0.75123
294.6000,-0.679836,254.197,0.752482
294.5000,0.799569,254.518,0.756373
294.4000,2.4413,254.174,0.752207
294.3000,0.747696,254.616,0.757568
294.2000,2.8283,254.215,0.752702
294.1000,1.71626,255.078,0.763168
294.0000,-0.434006,253.963,0.749648
293.9000,-1.53056,253.319,0.741807
293.8000,4.23413,254.769,0.759422
293.7000,3.13871,254.545,0.756702
293.6000,0.627312,253.675,0.746136
293.5000,2.18504,253.569,0.744854
293.4000,3.85667,253.918,0.749097
293.3000,-0.123188,253.554,0.744675
293.2000,1.92901,253.728,0.746783
293.1000,0.607996,254.166,0.752111
293.0000,2.57291,253.871,0.748519
292.9000,-1.06197,254.225,0.752826
292.8000,-0.095919,254.078,0.751038
292.7000,-2.17558,254.474,0.755851
292.6000,3.59936,252.986,0.737749
292.5000,0.369093,254.247,0.753087
292.4000,1.73824,253.508,0.74411
292.3000,-0.786872,254.493,0.75607
292.2000,0.593355,253.514,0.744179
292.1000,0.461083,254.605,0.757431
292.0000,0.51344,254.555,0.756826
291.9000,-0.000818353,253.651,0.745846
291.8000,1.57194,253.932,0.749262
291.7000,1.26201,252.779,0.735235
291.6000,0.554429,253.426,0.743117
291.5000,2.06143,254.121,0.75156
291.4000,1.26197,253.648,0.745819
291.3000,-0.964184,253.154,0.739806
291.2000,1.77317,252.907,0.736796
291.1000,2.53334,253.208,0.740455
291.0000,-0.00763083,252.888,0.736562
290.9000,-0.083058,253.003,0.737957
290.8000,2.19448,253.789,0.747527
290.7000,2.32009,253.618,0.745447
290.6000,0.483976,253.739,0.746921
290.5000,2.14106,253.563,0.744785
290.4000,0.412401,254.269,0.753362
290.3000,0.417334,252.931,0.737086
290.2000,-1.01483,254.297,0.753692
290.1000,0.31688,253.459,0.743517
290.0000,3.47675,253.312,0.741724
289.9000,-1.0603,254.204,0.752565
289.8000,4.79468,253.571,0.744882
289.7000,-1.02875,253.546,0.744579
289.6000,-1.1592,253.754,0.7471
289.5000,1.24398,253.556,0.744689
289.4000,0.908324,253.732,0.746839
289.3000,0.014105,254.119,0.751533
289.2000,-1.23522,253.69,0.746329
289.1000,2.82066,254.284,0.753541
289.0000,3.62689,253.83,0.748023
288.9000,0.073117,253.813,0.747816
288.8000,-1.44921,252.921,0.736962
288.7000,0.681054,253.839,0.748133
288.6000,1.28711,254.22,0.752757
288.5000,1.65442,254.099,0.751299
288.4000,-0.198487,253.839,0.748133
288.3000,0.860205,253.506,0.744082
288.2000,0.506572,253.267,0.741173
288.1000,0.928546,253.2,0.740358
288.0000,-0.663957,253.029,0.738274
287.9000,1.48865,253.25,0.740966
287.8000,-0.638266,253.621,0.745488
287.7000,1.57825,253.664,0.746012
287.6000,3.43719,253.922,0.749138
287.5000,2.57136,254.186,0.752345
287.4000,2.05047,253.232,0.740745
287.3000,1.53354,254.677,0.75831
287.2000,3.10613,253.917,0.749083
287.1000,0.285109,253.568,0.744841
287.0000,0.116219,253.493,0.743931
286.9000,2.50055,253.1,0.739144
286.8000,2.08285,253.524,0.744303
286.7000,2.01028,253.032,0.738315
286.6000,1.09896,254.089,0.751175
286.5000,0.809359,253.387,0.742635
286.4000,2.86435,254.66,0.758104
286.3000,1.0319,253.259,0.741076
286.2000,-1.01292,253.372,0.742455
286.1000,2.22441,253.746,0.747004
286.0000,-1.26262,253.644,0.745764
285.9000,2.57483,253.384,0.742607
285.8000,-0.161152,253.79,0.747541
285.7000,0.0131045,253.26,0.74109
285.6000,2.46842,253.361,0.742317
285.5000,1.59701,253.569,0.744854
285.4000,2.10347,253.115,0.739323
285.3000,2.39073,252.358,0.730091
285.2000,0.0654622,253.364,0.742359
285.1000,4.19752,254.115,0.751492
285.0000,-1.85811,253.679,0.746191
284.9000,3.46779,253.373,0.742469
284.8000,3.21054,253.332,0.741973
284.7000,-3.07042,253.474,0.743696
284.6000,2.25433,253.405,0.742855
284.5000,0.117875,253.476,0.743724
284.4000,1.65417,253.178,0.740096
284.3000,1.14959,253.239,0.740841
284.2000,0.185754,252.935,0.737128
284.1000,1.07543,253.541,0.74451
284.0000,0.224474,253.891,0.748767
283.9000,1.64192,253.281,0.741352
283.8000,-1.16976,253.854,0.748312
283.7000,1.22292,252.943,0.737225
283.6000,2.55482,252.934,0.737114
283.5000,1.28328,252.958,0.737418
283.4000,2.37652,253.372,0.742455
283.3000,-0.0843939,253.852,0.748298
283.2000,1.04284,252.85,0.736092
283.1000,2.70591,253.165,0.739931
283.0000,-0.545079,253.322,0.741848
282.9000,-0.196549,253.411,0.742924
282.8000,-2.18486,253.859,0.748381
282.7000,-0.421153,252.724,0.734558
282.6000,2.60672,252.289,0.729247
282.5000,-1.99878,253.193,0.740276
282.4000,-1.25158,254.087,0.751148
282.3000,2.82968,252.822,0.73576
282.2000,2.95999,252.952,0.737335
282.1000,-0.280939,253.13,0.739503
282.0000,-0.724935,252.626,0.733369
281.9000,0.00711928,253.164,0.739917
281.8000,0.439437,253.625,0.74553
281.7000,1.39405,253.407,0.742883
281.6000,1.52238,253.176,0.740069
281.5000,2.85001,253.111,0.739282
281.4000,0.743999,253.284,0.74138
281.3000,0.482185,252.929,0.737059
281.2000,1.46896,253.042,0.73844
281.1000,2.05807,253.043,0.738454
281.0000,0.960446,252.846,0.73605
280.9000,1.76462,253.048,0.738509
280.8000,4.49064,253.054,0.738578
280.7000,2.07144,253.091,0.739034
280.6000,3.76861,252.786,0.735318
280.5000,3.51788,252.903,0.736741
280.4000,1.94751,252.642,0.733563
280.3000,-1.18983,252.564,0.732609
280.2000,0.791226,253.115,0.739323
280.1000,-2.08037,252.686,0.734102
280.0000,2.82551,252.757,0.734959
279.9000,1.16964,252.751,0.73489
279.8000,-0.0545594,252.674,0.73395
279.7000,4.24737,253.448,0.743379
279.6000,0.112659,253.193,0.740276
279.5000,0.655564,252.97,0.737556
279.4000,-2.43985,252.34,0.72987
279.3000,1.46191,252.759,0.734987
279.2000,3.56934,253.234,0.740772
279.1000,1.43738,252.145,0.727489
279.0000,1.16754,252.952,0.737335
278.9000,2.04351,253.101,0.739158
278.8000,-0.0748998,252.895,0.736645
278.7000,2.36345,252.703,0.734309
278.6000,3.486,253.485,0.743834
278.5000,-1.45625,253.396,0.742745
278.4000,0.0389328,253.224,0.740648
278.3000,0.847373,253.258,0.741062
278.2000,-0.728718,253.265,0.741159
278.1000,0.934896,253.252,0.740993
278.0000,-0.512629,252.151,0.727558
277.9000,-1.96007,252.583,0.732844
277.8000,3.38072,252.35,0.729994
277.7000,-0.961021,251.962,0.725259
277.6000,0.144845,252.486,0.731655
277.5000,1.09243,252.206,0.728236
277.4000,0.995048,252.847,0.736064
277.3000,2.63891,252.799,0.73547
277.2000,-0.40133,252.289,0.729247
277.1000,2.60264,253.401,0.742814
277.0000,1.07674,252.801,0.735498
276.9000,1.01448,252.958,0.737418
276.8000,0.887566,252.595,0.732982
276.7000,-0.860033,253.184,0.740165
276.6000,-0.446378,252.146,0.727503
276.5000,0.991268,252.645,0.733591
276.4000,-0.373334,252.851,0.736106
276.3000,3.70287,252.526,0.732139
276.2000,-2.57587,252.148,0.72753
276.1000,0.625042,252.067,0.726533
276.0000,0.93425,253.226,0.740676
275.9000,2.96723,252.477,0.731544
275.8000,1.63352,253.539,0.744482
275.7000,1.90707,252.541,0.732332
275.6000,2.17706,252.697,0.734226
275.5000,5.09648,252.472,0.731488
275.4000,2.43148,251.227,0.716256
275.3000,0.20815,252.609,0.733162
275.2000,0.273278,253.075,0.73884
275.1000,2.23588,253.239,0.740841
275.0000,2.07391,252.351,0.730008
274.9000,3.09293,252.743,0.734793
274.8000,-1.97916,252.587,0.732886
274.7000,-0.421855,252.821,0.735747
274.6000,0.991887,253.845,0.748202
274.5000,-2.22669,253.159,0.739862
274.4000,2.2485,252.438,0.731073
274.3000,-1.53732,251.612,0.720975
274.2000,-0.0225897,252.386,0.730437
274.1000,1.80059,252.362,0.730147
274.0000,0.266722,252.212,0.728306
273.9000,0.661977,252.518,0.732042
273.8000,4.61325,252.726,0.734586
273.7000,3.74444,252.063,0.726492
273.6000,0.483171,252.41,0.730728
273.5000,0.684366,252.705,0.734323
273.4000,1.92843,252.495,0.731765
273.3000,-1.28787,252.555,0.732498
273.2000,2.31291,251.788,0.723125
273.1000,-0.370045,253.443,0.743324
273.0000,-0.239725,252.688,0.734116
272.9000,2.96261,252.323,0.729662
272.8000,-1.94521,252.944,0.737239
272.7000,0.324184,251.788,0.723125
272.6000,1.66561,253.421,0.743048
272.5000,2.18917,253.711,0.746577
272.4000,4.85624,252.027,0.726049
272.3000,0.728582,252.197,0.728126
272.2000,-0.300822,252.3,0.729385
272.1000,-2.13931,250.9,0.71224
272.0000,1.69699,253.352,0.742207
271.9000,2.77174,253.265,0.741159
271.8000,-2.2021,254.082,0.751093
271.7000,-1.00824,253.479,0.743752
271.6000,-0.738183,252.672,0.733922
271.5000,0.106778,252.529,0.73218
271.4000,1.0258,252.883,0.736493
271.3000,0.791979,252.313,0.729538
271.2000,2.56886,251.913,0.724649
271.1000,2.447,252.106,0.727018
271.0000,-0.429642,252.304,0.729427
270.9000,1.74509,252.189,0.728029
270.8000,-1.13064,252.875,0.736396
270.7000,3.69965,252.342,0.729897
270.6000,1.33144,252.895,0.736645
270.5000,1.43603,252.676,0.733977
270.4000,0.460651,252.333,0.729787
270.3000,-0.416561,252.834,0.735898
270.2000,-2.63685,253.312,0.741724
270.1000,0.460724,251.793,0.72318
270.0000,-0.473255,251.649,0.721419
269.9000,2.41727,252.353,0.730036
269.8000,2.20341,252.778,0.735221
269.7000,1.88114,252.801,0.735498
269.6000,1.33847,252.253,0.728804
269.5000,0.747251,252.339,0.729856
269.4000,0.851792,252.955,0.737377
269.3000,3.75478,252.438,0.731073
269.2000,-2.3659,252.544,0.73236
269.1000,2.63516,252.53,0.732194
269.0000,-0.735859,252.204,0.728209
268.9000,0.972095,252.75,0.734876
268.8000,-0.249718,253.221,0.740621
268.7000,3.96828,252.625,0.733355
268.6000,0.81747,251.609,0.720933
268.5000,-1.79947,253.082,0.738923
268.4000,-2.91046,252.351,0.730008
268.3000,0.761615,252.145,0.727489
268.2000,-2.39506,253.757,0.747141
268.1000,0.0920869,252.376,0.730313
268.0000,0.19555,252.931,0.737086
267.9000,1.71445,253.118,0.739365
267.8000,-0.566687,253.49,0.743889
267.7000,2.14946,251.727,0.722376
267.6000,3.85655,253.355,0.742248
267.5000,-0.464547,252.423,0.73088
267.4000,4.47493,252.26,0.728901
267.3000,0.250039,253.031,0.738302
267.2000,3.37336,253.254,0.741021
267.1000,0.827082,252.526,0.732139
267.0000,0.191502,252.202,0.728181
266.9000,-0.627953,252.497,0.731793
266.8000,-1.39677,252.631,0.733425
266.7000,-0.526045,252.091,0.726824
266.6000,-2.07199,253.577,0.744951
266.5000,1.46228,252.4,0.730603
266.4000,-0.200972,251.965,0.725287
266.3000,-1.57457,252.911,0.736838
266.2000,0.0794764,252.163,0.72771
266.1000,-1.39438,252.461,0.73135
266.0000,0.287109,253.03,0.738288
265.9000,-0.527873,252.604,0.733093
265.8000,-0.180057,252.291,0.729275
265.7000,1.08822,252.226,0.728486
265.6000,-0.296766,253.051,0.73855
265.5000,-0.140556,253.382,0.742579
265.4000,0.496393,254.182,0.752303
265.3000,0.381131,253.396,0.742745
265.2000,1.63025,252.893,0.736617
265.1000,3.1559,253.655,0.745902
265.0000,-1.13641,253.483,0.743807
264.9000,1.23745,251.737,0.722501
264.8000,-0.476688,253.069,0.738771
264.7000,1.78646,253.145,0.739696
264.6000,2.27447,253.479,0.743752
264.5000,2.54962,254.31,0.753857
264.4000,2.77697,253.224,0.740648
264.3000,-3.14003,251.936,0.72494
264.2000,1.49644,252.977,0.737639
264.1000,-0.313076,253.241,0.740855
264.0000,0.19568,253.144,0.739682
263.9000,-1.95071,253.567,0.744827
263.8000,2.67733,253.826,0.747982
263.7000,-0.457083,253.284,0.74138
263.6000,2.22593,253.277,0.741297
263.5000,-1.6584,253.356,0.742262
263.4000,0.937728,253.97,0.74973
263.3000,1.06411,253.699,0.746439
263.2000,2.59928,252.978,0.737653
263.1000,1.69651,253.622,0.745502
263.0000,0.482674,252.732,0.734655
262.9000,2.0594,253.109,0.739254
262.8000,0.344568,253.689,0.746315
262.7000,0.935014,252.868,0.736313
262.6000,1.4579,252.926,0.737017
262.5000,-0.112456,254.054,0.750749
262.4000,1.96124,253.499,0.744
262.3000,0.341725,253.577,0.744951
262.2000,1.69653,253.369,0.742414
262.1000,1.55233,253.544,0.744551
262.0000,2.4392,254.378,0.754682
261.9000,-0.259338,253.256,0.741048
261.8000,0.677,254.172,0.752179
261.7000,1.09654,253.993,0.750006
261.6000,1.37003,254.48,0.755919
261.5000,-0.530746,253.884,0.748684
261.4000,1.86471,254.226,0.75284
261.3000,-1.17613,253.976,0.749799
261.2000,-0.444032,254.293,0.753651
261.1000,3.38289,253.983,0.749882
261.0000,-0.340931,253.353,0.742221
260.9000,0.10058,253.996,0.750047
260.8000,2.87487,254.069,0.750928
260.7000,-0.786349,253.536,0.744455
260.6000,-0.446811,253.509,0.744124
260.5000,1.36927,254.012,0.750239
260.4000,-3.41934,253.773,0.747334
260.3000,3.62349,254.022,0.750363
260.2000,0.673197,253.834,0.748078
260.1000,3.78017,254.144,0.751836
260.0000,-0.255069,253.791,0.747555
259.9000,0.866755,254.237,0.752964
259.8000,1.83564,254.513,0.756318
259.7000,0.883178,254.71,0.758708
259.6000,-2.29209,254.811,0.75993
259.5000,-1.1345,253.881,0.748643
259.4000,-0.860027,253.866,0.748464
259.3000,2.82399,253.773,0.747334
259.2000,0.785391,254.18,0.752276
259.1000,0.395168,254.944,0.761536
259.0000,2.05901,254.423,0.755232
258.9000,2.86803,254.35,0.754339
258.8000,1.31055,253.941,0.749372
258.7000,0.511496,254.263,0.75328
258.6000,0.676286,254.627,0.757705
258.5000,1.68445,254.944,0.761536
258.4000,2.91344,254.863,0.760561
258.3000,0.26187,254.325,0.754036
258.2000,-1.81071,254.375,0.754641
258.1000,0.282158,254.336,0.754173
258.0000,1.28242,253.893,0.748794
257.9000,0.468216,254.232,0.752909
257.8000,-1.53602,254.946,0.761563
257.7000,1.51016,255.106,0.763497
257.6000,-0.856649,255.231,0.765019
257.5000,3.96252,254.826,0.760108
257.4000,-0.777632,255.114,0.763593
257.3000,-1.904,254.663,0.758131
257.2000,0.534784,254.884,0.760808
257.1000,0.00457675,255.098,0.763401
257.0000,1.66582,255.14,0.763908
256.9000,2.02578,254.831,0.760177
256.8000,1.49952,255.374,0.766746
256.7000,-2.19103,254.284,0.753541
256.6000,-1.02795,255.368,0.766677
256.5000,1.70246,255.013,0.762372
256.4000,0.743252,255.774,0.771579
256.3000,2.39624,255.069,0.763058
256.2000,0.541686,255.157,0.764114
256.1000,0.584619,255.214,0.764813
256.0000,0.32638,255.56,0.768992
255.9000,-0.964297,255.461,0.767801
255.8000,1.8152,255.065,0.763003
255.7000,2.13949,255.546,0.768828
255.6000,3.33463,254.199,0.75251
255.5000,-0.4111,255.94,0.773577
255.4000,-0.661344,255.682,0.770471
255.3000,-0.821821,255.581,0.769252
255.2000,1.39382,255.108,0.763525
255.1000,0.726937,255.115,0.763607
255.0000,0.184371,255.273,0.765526
254.9000,1.60259,255.621,0.769732
254.8000,-0.167308,255.418,0.76728
254.7000,1.1384,256.083,0.775313
254.6000,-2.00037,255.551,0.768883
254.5000,-0.73772,255.339,0.766321
254.4000,1.85553,256.037,0.774753
254.3000,2.21131,255.71,0.770799
254.2000,-0.352451,255.409,0.767171
254.1000,-0.542655,255.483,0.768061
254.0000,-2.10165,255.317,0.766061
253.9000,0.40017,255.961,0.773837
253.8000,0.670535,256.151,0.776134
253.7000,2.16791,255.903,0.773139
253.6000,1.59713,255.827,0.772223
253.5000,-1.48254,255.697,0.770649
253.4000,0.118232,255.824,0.772182
253.3000,-1.33661,255.699,0.770676
253.2000,0.823171,255.989,0.774179
253.1000,-1.90108,255.866,0.772688
253.0000,1.94605,255.869,0.772729
252.9000,0.921837,255.909,0.773208
252.8000,4.60825,255.699,0.770676
252.7000,2.35683,255.543,0.768787
252.6000,1.90779,255.723,0.770964
252.5000,-2.60541,256.215,0.776899
252.4000,2.68929,255.859,0.772606
252.3000,3.34148,255.835,0.772318
252.2000,0.852244,255.733,0.771087
252.1000,-2.47665,255.941,0.773591
252.0000,4.22974,256.265,0.7775
251.9000,2.74715,255.734,0.7711
251.8000,1.00313,256.377,0.778853
251.7000,-0.265954,256.174,0.776407
251.6000,-2.15301,256.338,0.778388
251.5000,2.77871,255.93,0.773467
251.4000,0.0875599,255.814,0.772058
251.3000,-0.64759,256.985,0.786179
251.2000,0.718763,256.192,0.776626
251.1000,2.47693,256.157,0.776202
251.0000,0.581259,256.272,0.777582
250.9000,-0.325538,256.145,0.776052
250.8000,-2.74434,255.322,0.766115
250.7000,2.97463,256.005,0.77437
250.6000,5.15555,256.343,0.778443
250.5000,-0.194923,256.126,0.775833
250.4000,-0.167479,255.696,0.770635
250.3000,-0.504997,256.903,0.785184
250.2000,1.65429,256.757,0.783425
250.1000,3.5062,256.647,0.782101
250.0000,-1.29982,256.729,0.783098
249.9000,-1.87447,257.221,0.789014
249.8000,2.00767,256.565,0.781119
249.7000,-0.221193,256.672,0.782402
249.6000,1.41713,256.244,0.777254
249.5000,0.188437,256.311,0.77806
249.4000,1.00297,256.647,0.782101
249.3000,3.76264,256.163,0.77627
249.2000,4.08535,255.797,0.771853
249.1000,-1.18301,255.705,0.770745
249.0000,-0.22757,256.352,0.778552
248.9000,-0.602961,256.519,0.780559
248.8000,0.351883,255.9,0.773098
248.7000,2.34464,256.29,0.777801
248.6000,-1.36634,256.097,0.775477
248.5000,1.15429,256.838,0.784407
248.4000,0.486728,256.666,0.782334
248.3000,0.731349,256.232,0.777104
248.2000,3.624,256.545,0.780873
248.1000,2.19794,256.341,0.778415
248.0000,0.688736,255.878,0.772838
247.9000,0.89171,255.882,0.772879
247.8000,0.645953,255.793,0.771812
247.7000,1.75624,256.202,0.776749
247.6000,1.51034,256.445,0.779672
247.5000,-0.150867,256.775,0.783643
247.4000,2.1854,256.043,0.774821
247.3000,1.36273,256.124,0.775806
247.2000,-0.826434,256.685,0.782565
247.1000,1.8395,256.266,0.777514
247.0000,-1.33294,257.058,0.787052
246.9000,-1.33527,257.18,0.788523
246.8000,-2.24958,256.498,0.780313
246.7000,0.546672,257.474,0.792049
246.6000,1.2694,256.453,0.779767
246.5000,1.93489,256.532,0.780723
246.4000,0.420521,256.826,0.784257
246.3000,-1.84701,256.461,0.779863
246.2000,2.73699,256.836,0.78438
246.1000,3.84509,256.672,0.782402
246.0000,0.249085,257.64,0.79405
245.9000,2.31871,257.002,0.786384
245.8000,-0.303212,255.976,0.774015
245.7000,1.80934,257.079,0.787311
245.6000,1.38943,256.447,0.779699
245.5000,-1.61019,257.223,0.789041
245.4000,1.67198,257.36,0.790688
245.3000,4.613,257.105,0.787624
245.2000,1.25333,256.526,0.780655
245.1000,-0.645164,256.723,0.783016
245.0000,0.209983,256.626,0.781856
244.9000,3.21081,256.939,0.78562
244.8000,0.379938,256.803,0.783984
244.7000,0.524459,257.193,0.788673
244.6000,1.82716,257.09,0.787433
244.5000,2.46304,257.164,0.788332
244.4000,-0.288538,256.88,0.784911
244.3000,-1.27666,256.958,0.785852
244.2000,2.79584,257.037,0.786806
244.1000,0.364575,257.701,0.794784
244.0000,2.30674,256.83,0.784312
243.9000,0.788297,257.269,0.789585
243.8000,2.47289,257.051,0.78697
243.7000,-0.0781284,256.777,0.78367
243.6000,-0.646805,256.76,0.783466
243.5000,4.18565,257.35,0.790566
243.4000,3.37197,257.29,0.789844
243.3000,2.50169,257.24,0.789245
243.2000,-1.61928,257.335,0.790389
243.1000,0.583928,256.892,0.785062
243.0000,-0.10805,257.035,0.786779
242.9000,2.14459,256.242,0.777227
242.8000,0.779087,256.939,0.78562
242.7000,0.275799,257.526,0.792675
242.6000,1.8842,256.853,0.784584
242.5000,2.91434,257.354,0.790607
242.4000,0.991433,256.784,0.783752
242.3000,-0.32487,257.047,0.786915
242.2000,2.92233,256.432,0.779521
242.1000,0.0623723,257.731,0.795138
242.0000,3.60989,257.826,0.79628
241.9000,1.3351,257.581,0.793342
241.8000,1.07114,256.153,0.776147
241.7000,0.801136,257.675,0.794471
241.6000,1.67022,257.409,0.791274
241.5000,1.6842,257.445,0.791709
241.4000,1.74502,256.879,0.784898
241.3000,3.27776,258.086,0.799391
241.2000,1.85994,258.023,0.798644
241.1000,2.42943,258.021,0.798617
241.0000,0.590466,257.483,0.792158
240.9000,2.97594,258.078,0.799296
240.8000,-1.04421,257.453,0.791805
240.7000,-0.426902,258.032,0.798753
240.6000,-0.784583,258.014,0.798536
240.5000,2.26943,257.733,0.795165
240.4000,1.22049,257.89,0.797041
240.3000,1.24366,257.747,0.795328
240.2000,3.63944,257.61,0.793682
240.1000,1.29138,258.387,0.803002
240.0000,-2.72617,258.35,0.802555
239.9000,4.62746,258.72,0.80699
239.8000,-1.42814,258.539,0.80482
239.7000,-0.54869,258.182,0.800546
239.6000,1.57533,258.218,0.80098
239.5000,4.65939,258.31,0.80208
239.4000,2.09519,258.66,0.806271
239.3000,-0.330178,258.121,0.799812
239.2000,-0.0807037,258.08,0.799323
239.1000,0.511066,258.334,0.802365
239.0000,-0.100087,258.539,0.80482
238.9000,2.714,259.118,0.811745
238.8000,-1.30896,258.043,0.798875
238.7000,-0.774813,259.068,0.811149
238.6000,-0.0744715,258.821,0.808196
238.5000,0.335744,259.342,0.814424
238.4000,-0.707811,258.554,0.804997
238.3000,0.776545,259.721,0.81894
238.2000,1.22339,259.167,0.812327
238.1000,-0.668887,258.692,0.806651
238.0000,-1.86896,259.161,0.812259
237.9000,2.77913,259.077,0.811257
237.8000,0.160274,259.038,0.810797
237.7000,-1.8284,259.56,0.81702
237.6000,-0.0498777,259.101,0.811541
237.5000,1.39306,259.39,0.814992
237.4000,-0.249835,258.938,0.809592
237.3000,0.204205,259.974,0.821965
237.2000,-1.96029,260.298,0.825824
237.1000,2.57265,259.819,0.820115
237.0000,0.0718458,259.364,0.814681
236.9000,-1.68659,259.148,0.81211
236.8000,0.719795,259.597,0.817467
236.7000,-0.0322689,259.453,0.81575
236.6000,0.143768,260.576,0.829127
236.5000,-0.891212,260.006,0.822343
236.4000,3.90357,260.046,0.822816
236.3000,0.242214,260.095,0.823396
236.2000,0.636303,260.01,0.822384
236.1000,0.0911743,260.115,0.823639
236.0000,0.816258,260.212,0.824799
235.9000,-1.54451,259.427,0.815439
235.8000,2.06228,260.032,0.822654
235.7000,2.29904,260.896,0.832925
235.6000,1.30907,260.135,0.823882
235.5000,-1.18911,260.999,0.83415
235.4000,0.864476,260.32,0.826081
235.3000,0.0851186,260.072,0.823126
235.2000,-0.437648,260.753,0.831229
235.1000,3.83282,260.625,0.829706
235.0000,0.422606,259.683,0.818494
234.9000,-1.32246,260.286,0.825676
234.8000,0.30163,260.227,0.824975
234.7000,0.245738,260.313,0.826
234.6000,1.44276,260.233,0.825042
234.5000,-0.393172,261.273,0.837405
234.4000,1.89045,261.2,0.836544
234.3000,0.622073,260.752,0.831215
234.2000,1.35718,261.233,0.836934
234.1000,-4.53016,261.88,0.844605
234.0000,3.04816,261.527,0.840416
233.9000,-0.693543,261.049,0.834742
233.8000,2.37397,261.025,0.834459
233.7000,0.847179,260.993,0.834082
233.6000,1.67059,261.537,0.840536
233.5000,-0.740577,261.574,0.84098
233.4000,1.61782,261.306,0.837795
233.3000,2.2703,261.663,0.842027
233.2000,1.41543,261.839,0.844122
233.1000,-0.00508569,262.153,0.847837
233.0000,1.81698,262.524,0.852219
232.9000,1.74961,261.765,0.843236
232.8000,-0.15244,262.563,0.852688
232.7000,-0.426251,261.855,0.844309
232.6000,-0.190586,262.454,0.851388
232.5000,3.03854,262.069,0.846845
232.4000,-0.392234,262.204,0.84844
232.3000,-0.571116,262.117,0.847408
232.2000,1.69322,262.722,0.854562
232.1000,-0.255056,262.535,0.852353
232.0000,1.95209,262.319,0.849794
231.9000,0.381382,262.314,0.849741
231.8000,1.43922,262.694,0.854227
231.7000,-2.25133,263.154,0.859657
231.6000,0.863465,262.971,0.857505
231.5000,1.49119,264.312,0.873292
231.4000,-0.103744,264.09,0.870681
231.3000,1.16384,262.542,0.852433
231.2000,2.09772,263.155,0.859671
231.1000,2.2532,263.401,0.86257
231.0000,0.590203,263.438,0.863011
230.9000,1.452,263.846,0.867815
230.8000,1.5431,262.812,0.855619
230.7000,3.10307,263.238,0.860646
230.6000,4.68828,264.538,0.875954
230.5000,1.23132,263.666,0.865694
230.4000,5.14935,263.606,0.864986
230.3000,-0.53909,263.201,0.860219
230.2000,2.28109,263.174,0.859898
230.1000,-0.357304,262.613,0.853277
230.0000,-0.899436,263.456,0.863224
229.9000,5.12035,263.591,0.864813
229.8000,2.91105,264.205,0.87204
229.7000,-0.721398,263.457,0.863237
229.6000,5.72669,263.388,0.862423
229.5000,1.1683,263.568,0.864546
229.4000,3.53105,263.23,0.860553
229.3000,0.759899,264.151,0.8714
229.2000,4.31252,263.474,0.863438
229.1000,3.71402,263.512,0.863878
229.0000,1.1425,264.144,0.871321
228.9000,0.924254,264.245,0.872506
228.8000,1.17477,264.467,0.875116
228.7000,0.134971,264.495,0.875449
228.6000,5.34061,264.303,0.873185
228.5000,2.0995,264.54,0.875967
228.4000,1.26443,264.234,0.872373
228.3000,-0.0634204,264.865,0.879785
228.2000,0.0393305,265.251,0.884315
228.1000,-2.7988,265.086,0.882376
228.0000,0.238945,264.943,0.880702
227.9000,2.97497,265.787,0.89059
227.8000,2.63784,265.124,0.882828
227.7000,-0.48047,265.966,0.892684
227.6000,2.11489,265.726,0.889874
227.5000,0.155608,266.113,0.894406
227.4000,-0.355055,266.087,0.894101
227.3000,-2.32272,265.779,0.890497
227.2000,1.48159,266.266,0.896193
227.1000,0.0436886,266.158,0.894922
227.0000,2.42784,265.869,0.891544
226.9000,-1.82242,266.317,0.896788
226.8000,3.86623,266.066,0.89385
226.7000,2.96509,266.175,0.895121
226.6000,-1.81061,266.356,0.897238
226.5000,1.68116,266.322,0.896841
226.4000,-1.83057,266.463,0.898495
226.3000,1.66974,266.801,0.902435
226.2000,-1.09996,266.1,0.894247
226.1000,1.33287,266.151,0.894843
226.0000,7.8786,267.262,0.907809
225.9000,-3.68164,266.553,0.89954
225.8000,1.15328,266.198,0.895399
225.7000,-1.39297,267.373,0.909102
225.6000,-2.3949,266.67,0.900902
225.5000,3.58,267.621,0.911989
225.4000,-0.124301,266.654,0.900717
225.3000,0.509068,266.81,0.902541
225.2000,-0.0539839,267.237,0.907519
225.1000,-0.534319,267.708,0.912991
225.0000,2.93266,267.007,0.904839
224.9000,2.4809,268.033,0.91677
224.8000,2.02299,268.305,0.919928
224.7000,1.12063,267.495,0.910513
224.6000,2.94015,268.254,0.919336
224.5000,2.08975,268.44,0.921493
224.4000,2.35415,268.429,0.921375
224.3000,0.434815,268.062,0.917113
224.2000,1.37714,267.814,0.914229
224.1000,0.89268,269.456,0.933267
224.0000,0.400437,268.007,0.916468
223.9000,0.32582,269.234,0.930697
223.8000,-1.49307,268.813,0.925829
223.7000,-0.424359,268.54,0.922663
223.6000,-1.26255,269.131,0.929504
223.5000,-0.174906,268.629,0.923688
223.4000,0.596773,269,0.927995
223.3000,-1.05605,268.857,0.926328
223.2000,2.66765,269.041,0.928467
223.1000,1.82301,269.079,0.9289
223.0000,-0.531914,269.454,0.933241
222.9000,0.760096,269.224,0.930579
222.8000,1.55932,269.602,0.934957
222.7000,-0.371935,269.341,0.931943
222.6000,2.26384,269.269,0.931104
222.5000,-0.155643,269.369,0.932258
222.4000,3.00333,269.328,0.931786
222.3000,-3.09957,270.034,0.939945
222.2000,3.88422,269.906,0.938466
222.1000,1.5345,269.408,0.932716
222.0000,2.54898,270.306,0.943083
221.9000,3.23223,269.649,0.935494
221.8000,-3.07147,270.154,0.941331
221.7000,0.894149,270.289,0.942887
221.6000,3.5613,270.805,0.948843
221.5000,3.26859,270.29,0.9429
221.4000,3.04067,270.01,0.93967
221.3000,-1.87542,270.344,0.943527
221.2000,-1.056,270.132,0.941083
221.1000,-0.908873,270.814,0.948947
221.0000,2.9454,270.99,0.95097
220.9000,3.28592,270.681,0.947407
220.8000,3.72904,270.515,0.9455
220.7000,-1.36846,270.711,0.94776
220.6000,3.52996,270.667,0.94725
220.5000,0.102278,270.689,0.947499
220.4000,2.51532,271.121,0.952482
220.3000,1.98832,271.061,0.951791
220.2000,2.07099,270.957,0.950591
220.1000,-1.3665,270.047,0.940102
220.0000,1.26205,271.106,0.9523
219.9000,1.91137,271.43,0.956027
219.8000,3.25819,271.395,0.955623
219.7000,1.82424,271.523,0.957095
219.6000,3.13108,271.135,0.952639
219.5000,-1.38452,271.467,0.956457
219.4000,-3.27777,271.364,0.955272
219.3000,3.53503,271.575,0.957694
219.2000,3.71652,271.497,0.956796
219.1000,2.67717,271.537,0.957265
219.0000,2.44293,271.891,0.961325
218.9000,1.41722,271.775,0.959998
218.8000,5.76309,271.873,0.961117
218.7000,0.212645,271.305,0.954594
218.6000,-0.00119518,271.74,0.959595
218.5000,1.17203,271.912,0.961572
218.4000,2.58861,272.03,0.962925
218.3000,1.88299,271.625,0.958267
218.2000,-2.69603,272.28,0.965784
218.1000,-1.57496,272.655,0.970082
218.0000,-2.90725,271.779,0.960037
217.9000,-0.714837,272.71,0.970718
217.8000,0.917574,272.818,0.971951
217.7000,-0.21538,273.098,0.975153
217.6000,0.639208,272.397,0.967135
217.5000,-2.47055,272.608,0.96955
217.4000,1.46014,272.442,0.967642
217.3000,6.09635,272.415,0.967343
217.2000,-0.837578,272.939,0.973338
217.1000,0.738026,273.419,0.978832
217.0000,-1.04999,273.124,0.975451
216.9000,0.228592,272.805,0.971808
216.8000,8.35156,273.396,0.97856
216.7000,1.66997,272.763,0.971328
216.6000,3.26118,273.269,0.977109
216.5000,1.94012,274.087,0.98645
216.4000,-1.78052,274.305,0.988943
216.3000,3.89337,273.365,0.97821
216.2000,0.98853,273.461,0.979311
216.1000,3.42304,273.483,0.979557
216.0000,-0.120985,273.831,0.983529
215.9000,3.42575,274.348,0.989434
215.8000,1.41934,273.677,0.98177
215.7000,-0.898064,273.57,0.980553
215.6000,1.96318,273.967,0.98508
215.5000,-0.563279,273.63,0.981239
215.4000,0.152783,274.486,0.990995
215.3000,4.94504,274.175,0.987458
215.2000,0.644396,273.857,0.983826
215.1000,-1.02677,274.118,0.986812
215.0000,-1.2454,274.45,0.990595
214.9000,-1.99201,273.703,0.982067
214.8000,0.347122,273.836,0.983593
214.7000,2.71624,274.891,0.995613
214.6000,-0.721533,274.305,0.988943
214.5000,-1.98907,274.307,0.988956
214.4000,-0.402827,274.23,0.988078
214.3000,-1.38733,274.376,0.989744
214.2000,2.36732,273.706,0.982106
214.1000,0.810204,275.161,0.998679
214.0000,-3.11969,274.541,0.991628
213.9000,5.5154,274.509,0.991266
213.8000,2.92789,274.431,0.990376
213.7000,1.96121,274.455,0.990647
213.6000,2.64005,274.627,0.992608
213.5000,3.85934,275.136,0.998396
213.4000,2.71342,275.204,0.999169
213.3000,1.69367,275.58,1.00344
213.2000,6.58406,275.091,0.997881
213.1000,-2.93045,274.614,0.992454
213.0000,-1.34274,275.431,1.00174
212.9000,1.29573,274.571,0.991963
212.8000,6.75964,275.618,1.00387
212.7000,0.479489,275.971,1.00788
212.6000,3.54936,275.641,1.00414
212.5000,0.818753,275.428,1.00172
212.4000,-0.956303,276.048,1.00875
212.3000,3.57475,275.358,1.00092
212.2000,-3.71019,275.576,1.00339
212.1000,3.24336,276.529,1.01419
212.0000,0.141899,276.397,1.0127
211.9000,0.615531,275.569,1.00331
211.8000,1.0848,276.262,1.01118
211.7000,1.69608,276.16,1.01002
211.6000,4.41625,276.525,1.01415
211.5000,1.43796,275.837,1.00636
211.4000,4.58895,276.202,1.0105
211.3000,3.96329,276.751,1.01671
211.2000,-1.20976,275.79,1.00582
211.1000,3.78554,276.627,1.01531
211.0000,0.950445,276.982,1.01932
210.9000,1.86151,275.525,1.00281
210.8000,3.50304,277.214,1.02194
210.7000,3.86619,277.538,1.0256
210.6000,4.7548,277.709,1.02753
210.5000,3.453,277.059,1.02019
210.4000,2.37545,277.747,1.02796
210.3000,-1.0365,276.772,1.01695
210.2000,-1.96516,276.789,1.01714
210.1000,0.431345,277.16,1.02133
210.0000,2.53023,277.689,1.0273
209.9000,2.05089,277.169,1.02143
209.8000,0.928118,277.71,1.02755
209.7000,1.0121,277.57,1.02596
209.6000,3.64409,277.886,1.02953
209.5000,-4.80631,277.879,1.02945
209.4000,1.99406,277.639,1.02674
209.3000,2.59978,278.343,1.03467
209.2000,-0.0969821,278.391,1.03522
209.1000,5.43204,278.166,1.03268
209.0000,3.87357,278.179,1.03283
208.9000,2.60027,278.855,1.04043
208.8000,2.48596,279.178,1.04406
208.7000,0.581177,279.173,1.04401
208.6000,-0.0146566,278.618,1.03777
208.5000,1.18405,278.941,1.0414
208.4000,-5.57669,278.028,1.03112
208.3000,5.73064,278.21,1.03318
208.2000,0.738394,279.129,1.04351
208.1000,2.60507,279.397,1.04653
208.0000,4.57456,280.213,1.05567
207.9000,1.50686,279.89,1.05206
207.8000,0.449808,279.423,1.04682
207.7000,0.554091,278.762,1.03939
207.6000,3.46627,280.1,1.05441
207.5000,0.252397,279.672,1.04961
207.4000,0.579149,279.899,1.05216
207.3000,-1.28441,280.186,1.05537
207.2000,2.94814,279.957,1.05281
207.1000,-1.7574,280.444,1.05826
207.0000,-0.823117,280.014,1.05344
206.9000,-0.630591,280.278,1.0564
206.8000,2.90094,280.877,1.0631
206.7000,-0.320305,280.779,1.062
206.6000,4.77609,280.877,1.0631
206.5000,2.59903,280.61,1.06011
206.4000,1.45175,281.222,1.06695
206.3000,-0.666895,281.228,1.06702
206.2000,3.6674,281.143,1.06608
206.1000,1.4937,280.884,1.06318
206.0000,4.17465,281.8,1.07339
205.9000,-4.03501,281.538,1.07048
205.8000,0.0749123,281.941,1.07497
205.7000,-0.565324,281.226,1.067
205.6000,-0.487979,281.154,1.06619
205.5000,-1.56723,281.888,1.07438
205.4000,2.27073,282.695,1.08335
205.3000,2.1363,281.814,1.07356
205.2000,6.4557,282.861,1.08521
205.1000,2.66644,282.842,1.08499
205.0000,1.43545,282.806,1.08459
204.9000,6.83917,283.347,1.0906
204.8000,4.62084,282.969,1.0864
204.7000,0.0530492,282.851,1.08509
204.6000,-1.08149,283.534,1.09267
204.5000,1.34554,283.463,1.09188
204.4000,3.97313,284.106,1.09901
204.3000,0.778462,283.183,1.08878
204.2000,3.24591,283.627,1.0937
204.1000,-0.608459,284.51,1.10348
204.0000,4.12848,283.418,1.09138
203.9000,4.48885,284.024,1.0981
203.8000,0.233561,284.212,1.10018
203.7000,3.17994,283.149,1.0884
203.6000,0.169955,284.306,1.10122
203.5000,1.92145,285.335,1.11258
203.4000,-1.16092,284.46,1.10292
203.3000,0.75909,285.902,1.11884
203.2000,2.86264,285.156,1.11061
203.1000,3.44669,285.779,1.11748
203.0000,-0.693557,285.819,1.11792
202.9000,6.6377,285.355,1.11281
202.8000,2.21829,286.042,1.12037
202.7000,3.32584,285.719,1.11682
202.6000,0.705579,285.731,1.11695
202.5000,1.02912,286.786,1.12856
202.4000,2.27821,286.714,1.12776
202.3000,3.02955,286.795,1.12866
202.2000,5.67665,286.3,1.12322
202.1000,1.35851,286.354,1.12381
202.0000,2.86714,287.022,1.13115
201.9000,1.55747,287.106,1.13207
201.8000,4.72241,288.217,1.14424
201.7000,-2.66048,288.06,1.14252
201.6000,0.607492,287.372,1.13499
201.5000,0.634772,288.343,1.14562
201.4000,1.6609,288.215,1.14422
201.3000,5.02388,288.336,1.14554
201.2000,1.14415,288.805,1.15067
201.1000,0.121715,288.69,1.14941
201.0000,-2.23038,288.743,1.14999
200.9000,-0.379123,289.944,1.16308
200.8000,3.0008,288.434,1.14661
200.7000,1.62374,289.54,1.15868
200.6000,-2.62253,289.317,1.15626
200.5000,3.70503,289.409,1.15726
200.4000,2.60744,290.112,1.1649
200.3000,-2.28533,289.481,1.15803
200.2000,3.77587,290.622,1.17045
200.1000,5.82342,290.346,1.16746
200.0000,8.2645,290.418,1.16823
199.9000,1.31239,291.295,1.17775
199.8000,4.05311,291.35,1.17835
199.7000,-3.16676,291.233,1.17709
199.6000,2.30102,291.147,1.17615
199.5000,2.82012,291.576,1.18079
199.4000,0.0034612,291.015,1.17471
199.3000,6.54113,290.823,1.17264
199.2000,1.04537,292.558,1.19142
199.1000,3.12814,291.41,1.179
199.0000,2.60621,291.751,1.1827
198.9000,3.29777,291.576,1.18079
198.8000,2.03233,292.628,1.19218
198.7000,0.933303,292.523,1.19104
198.6000,2.72109,292.561,1.19146
198.5000,0.0137246,293.157,1.19789
198.4000,-1.2486,293.563,1.20226
198.3000,0.174326,292.999,1.19618
198.2000,1.27453,293.325,1.1997
198.1000,4.75853,293.675,1.20347
198.0000,-5.72158,293.871,1.20558
197.9000,-0.309344,293.824,1.20507
197.8000,5.9935,293.741,1.20418
197.7000,4.2986,293.659,1.2033
197.6000,3.28931,294.082,1.20785
197.5000,1.94045,293.31,1.19954
197.4000,0.654275,294.825,1.21583
197.3000,2.05571,293.979,1.20674
197.2000,4.14201,294.515,1.2125
197.1000,-2.39141,295.045,1.21819
197.0000,5.48133,295.584,1.22397
196.9000,2.44733,295.019,1.21791
196.8000,9.30298,295.231,1.22018
196.7000,-2.01471,295.922,1.22759
196.6000,1.74548,296.072,1.22919
196.5000,-0.704002,295.708,1.22529
196.4000,-0.76084,296.151,1.23003
196.3000,2.15735,296.96,1.23867
196.2000,1.4191,296.958,1.23865
196.1000,-0.56457,297.273,1.24201
196.0000,4.51376,297.426,1.24364
195.9000,1.58097,297.926,1.24897
195.8000,-0.819305,298.16,1.25145
195.7000,-2.80054,298.805,1.2583
195.6000,2.20717,298.469,1.25474
195.5000,-1.83097,299.069,1.2611
195.4000,3.3904,298.705,1.25724
195.3000,1.16756,299.565,1.26636
195.2000,3.87012,299.836,1.26923
195.1000,-1.26507,299.054,1.26095
195.0000,0.88161,300.026,1.27124
194.9000,-0.296726,299.547,1.26617
194.8000,0.255392,301.319,1.28489
194.7000,-1.10775,300.841,1.27985
194.6000,4.71634,301.034,1.28189
194.5000,3.06081,301.661,1.2885
194.4000,0.172919,301.397,1.28572
194.3000,6.04764,302.522,1.29755
194.2000,0.708617,302.875,1.30125
194.1000,4.78504,302.529,1.29763
194.0000,-3.04593,303.643,1.30931
193.9000,0.882842,304.399,1.31721
193.8000,1.09869,304.664,1.31998
193.7000,5.86597,305.728,1.33108
193.6000,-3.7139,306.155,1.33552
193.5000,6.67306,306.346,1.33751
193.4000,2.12199,306.367,1.33773
193.3000,5.83291,307.118,1.34553
193.2000,2.89598,307.354,1.34797
193.1000,2.65077,308.004,1.35471
193.0000,-0.362612,308.952,1.36451
192.9000,3.22472,308.968,1.36467
192.8000,3.05401,309.33,1.3684
192.7000,-2.70851,310.692,1.38242
192.6000,-7.03663,310.924,1.3848
192.5000,-0.687396,312.167,1.39754
192.4000,8.55255,312.881,1.40484
192.3000,-4.91014,313.589,1.41207
192.2000,4.0907,314.414,1.42047
192.1000,-2.47261,315.832,1.43487
192.0000,-8.984,316.573,1.44237
191.9000,7.12465,316.442,1.44104
191.8000,1.31204,317.435,1.45107
191.7000,-0.444923,317.773,1.45449
191.6000,0.23555,318.923,1.46607
191.5000,-3.45264,318.977,1.4666
191.4000,0.061308,320.698,1.48386
191.3000,1.91086,322.047,1.49734
191.2000,3.25965,322.136,1.49822
191.1000,9.5332,323.706,1.51384
191.0000,-0.452659,325.397,1.53059
190.9000,-0.0697126,326.573,1.5422
190.8000,3.96254,328.508,1.56122
190.7000,-0.932851,329.09,1.56693
190.6000,0.10644,331.497,1.59042
190.5000,-5.30267,332.604,1.60118
190.4000,3.86621,333.755,1.61234
190.3000,7.03845,334.861,1.62302
190.2000,-0.649443,336.496,1.63877
190.1000,-0.718552,337.109,1.64466
190.0000,1.09944,338.951,1.66229

##### Extended Information
[Comments]
Sample name,buffer
Comment
User,ManningTrnkus
Division
Company,Saint Mary's College

[Detailed Information]
Creation date,9/27/2022 1:21 PM

Data array type,Linear data array * 3
Horizontal axis,Wavelength [nm]
Vertical axis(1),CD [mdeg]
Vertical axis(2),HT [V]
Vertical axis(3),Abs
Start,320 nm
End,190 nm
Data interval,0.1 nm
Data points,1301    

[Measurement Information]
Instrument name,J-1500
Model name,J-1500
Serial No.,B051061638

Detector,PM-539
Detector S/N,B051061638
  Lock-in amp.,X mode
  HT volt,Auto

Accessory,PTC-517
Accessory S/N,B026561646
  Temperature,21.73 C
  Control sensor,Holder
  Monitor sensor,Holder

Measurement date,9/27/2022 1:21 PM

CD Overload detect,1157
Photometric mode,CD, HT, Abs
Measure range,320 - 190 nm
Data pitch,0.1 nm
CD scale,20 mdeg/0.05 dOD
FL scale,20 mdeg/0.05 dOD
D.I.T.,8 msec
Bandwidth,1.00 nm
Start mode,Immediately
Scanning mode,Continuous
Scanning speed,50 nm/min
Baseline correction,None
Shutter control,Auto
No. of cycle,1/1
N2 Flowmeter,Manual

Solvent,NaPO4 buffer

