TITLE,bufferKCl_SSAM
DATA TYPE,
ORIGIN,JASCO
OWNER,
DATE,22/09/27
TIME,14:05:31
SPECTROMETER/DATA SYSTEM,
LOCALE,1033
RESOLUTION,
DELTAX,-0.1
XUNITS,NANOMETERS
YUNITS,CD [mdeg]
Y2UNITS,HT [V]
Y3UNITS,ABSORBANCE
FIRSTX,  320.0000
LASTX,  190.0000
NPOINTS,    1301
FIRSTY,     3.77664
MAXY,     7.72071
MINY,    -6.40585
XYDATA
320.0000,3.77664,256.735,0.783166
319.9000,-0.909614,257.517,0.792567
319.8000,2.59819,257.805,0.796021
319.7000,0.876738,257.565,0.793152
319.6000,1.37987,257.376,0.790879
319.5000,2.46081,257.657,0.794254
319.4000,3.5625,257.641,0.794063
319.3000,1.8939,258.126,0.79988
319.2000,1.54089,257.425,0.791464
319.1000,2.44971,257.984,0.798169
319.0000,1.90111,258.285,0.801781
318.9000,2.31114,257.122,0.787828
318.8000,1.65783,257.518,0.79258
318.7000,0.38535,257.646,0.794118
318.6000,1.27542,257.66,0.794281
318.5000,3.9284,257.817,0.796171
318.4000,-0.623049,257.677,0.794485
318.3000,1.26993,257.626,0.793873
318.2000,-1.32105,257.737,0.795206
318.1000,1.28471,257.483,0.792158
318.0000,-2.85223,256.575,0.781242
317.9000,0.0922731,257.752,0.795396
317.8000,2.85842,257.831,0.796334
317.7000,4.50203,258.13,0.799921
317.6000,0.0676625,258.113,0.799717
317.5000,5.46216,257.661,0.794294
317.4000,1.55428,257.66,0.794281
317.3000,-0.510727,257.843,0.796483
317.2000,2.50082,257.279,0.789708
317.1000,5.43044,258.062,0.799106
317.0000,3.70746,258.658,0.806244
316.9000,1.75956,258.285,0.801781
316.8000,3.16781,257.059,0.787065
316.7000,1.79547,257.654,0.794213
316.6000,-1.84631,258.572,0.805214
316.5000,2.19118,257.604,0.793614
316.4000,-0.371252,257.538,0.792825
316.3000,-0.421224,257.382,0.790947
316.2000,-1.23874,258.245,0.801306
316.1000,1.88201,256.392,0.77903
316.0000,4.87919,258.038,0.798821
315.9000,0.852976,257.729,0.79511
315.8000,0.859908,256.951,0.78577
315.7000,-1.15599,257.424,0.791451
315.6000,-0.19042,257.237,0.789204
315.5000,1.81275,257.709,0.794879
315.4000,2.39203,257.684,0.79458
315.3000,2.81441,257.303,0.789994
315.2000,2.43344,256.897,0.785116
315.1000,4.806,256.924,0.785443
315.0000,0.663188,257.65,0.794172
314.9000,2.2936,258.099,0.799554
314.8000,1.24542,257.902,0.79719
314.7000,0.175556,257.173,0.788441
314.6000,2.03138,256.668,0.782361
314.5000,3.00117,257.033,0.786752
314.4000,0.178321,257.679,0.794512
314.3000,0.237778,257.503,0.792403
314.2000,1.77482,256.913,0.785307
314.1000,0.371759,257.205,0.788823
314.0000,4.11586,256.141,0.776011
313.9000,0.38122,257.493,0.792281
313.8000,5.90377,256.776,0.783657
313.7000,1.45133,255.906,0.773166
313.6000,0.232091,257.571,0.79322
313.5000,1.76438,256.398,0.779112
313.4000,3.00546,256.755,0.783411
313.3000,1.55747,258.141,0.800057
313.2000,-0.0716985,257.695,0.794702
313.1000,0.646542,257.538,0.792825
313.0000,1.58799,256.875,0.784857
312.9000,-2.22387,257.084,0.787365
312.8000,2.76695,256.775,0.783643
312.7000,4.00679,256.985,0.786179
312.6000,-1.20904,257.616,0.793764
312.5000,2.583,257.172,0.788428
312.4000,5.02775,257.393,0.791083
312.3000,-1.05297,256.988,0.786206
312.2000,-1.51613,257.366,0.790756
312.1000,1.57203,257.297,0.789926
312.0000,3.62282,256.376,0.778839
311.9000,-0.485354,257.918,0.797381
311.8000,0.810734,256.89,0.785034
311.7000,2.13866,256.386,0.778962
311.6000,2.31627,256.793,0.783861
311.5000,2.53534,257.124,0.787842
311.4000,0.743834,257.082,0.787338
311.3000,4.17049,257.28,0.789722
311.2000,2.08701,257.405,0.791219
311.1000,2.50404,257.854,0.796619
311.0000,-2.26026,257.526,0.792675
310.9000,3.30779,256.634,0.781951
310.8000,2.10024,257.28,0.789722
310.7000,2.84398,258.013,0.798522
310.6000,1.74579,257.732,0.795151
310.5000,-1.04797,256.413,0.779289
310.4000,2.01544,256.732,0.783125
310.3000,4.97836,257.673,0.794444
310.2000,2.44048,257.092,0.78746
310.1000,-0.0516976,257.483,0.792158
310.0000,0.859169,257.02,0.786602
309.9000,-0.33364,256.82,0.784189
309.8000,0.188448,257.164,0.788332
309.7000,0.799218,258.151,0.800179
309.6000,-0.945088,257.382,0.790947
309.5000,1.60995,257.483,0.792158
309.4000,4.12983,256.817,0.784148
309.3000,1.24033,257.494,0.792295
309.2000,0.11076,256.924,0.785443
309.1000,4.25485,256.967,0.785961
309.0000,3.10314,256.996,0.786302
308.9000,-1.23319,256.86,0.784666
308.8000,1.74483,257.613,0.793723
308.7000,-0.465589,258.277,0.801686
308.6000,3.02814,257.559,0.79307
308.5000,4.60112,256.472,0.779999
308.4000,3.64392,256.668,0.782361
308.3000,-0.577073,256.397,0.779098
308.2000,2.06749,257.325,0.790266
308.1000,-2.16488,257.512,0.792512
308.0000,-0.857482,256.754,0.783398
307.9000,2.53434,256.741,0.783234
307.8000,0.615032,256.898,0.78513
307.7000,-1.32058,256.502,0.780355
307.6000,3.67886,257.001,0.78637
307.5000,-0.845724,256.619,0.781774
307.4000,-1.48913,255.603,0.769513
307.3000,0.534907,255.864,0.77266
307.2000,1.36911,257.186,0.788591
307.1000,3.66467,256.693,0.782661
307.0000,3.07325,256.601,0.781556
306.9000,-0.253969,256.221,0.776967
306.8000,1.96266,255.476,0.767979
306.7000,1.1764,256.211,0.776858
306.6000,1.87847,256.725,0.783043
306.5000,3.22835,257.458,0.791859
306.4000,-0.547534,255.152,0.764059
306.3000,-1.34291,256.863,0.784707
306.2000,1.71819,257.138,0.788019
306.1000,3.8397,256.963,0.785907
306.0000,1.20641,256.958,0.785852
305.9000,1.29647,257.405,0.791219
305.8000,2.83635,256.594,0.781474
305.7000,2.99628,256.529,0.780682
305.6000,2.68442,256.815,0.784134
305.5000,-0.794265,256.071,0.775163
305.4000,0.872459,256.955,0.785811
305.3000,0.890874,256.726,0.783056
305.2000,0.113137,256.773,0.78363
305.1000,3.98241,256.809,0.784052
305.0000,0.61988,256.565,0.781119
304.9000,2.1113,256.785,0.783766
304.8000,4.82031,256.959,0.785866
304.7000,1.23238,256.929,0.785498
304.6000,-0.393472,256.349,0.778511
304.5000,1.36485,256.531,0.780709
304.4000,-0.0795099,256.32,0.77817
304.3000,3.44303,256.806,0.784025
304.2000,2.32751,256.183,0.776516
304.1000,1.00156,256.897,0.785116
304.0000,1.70195,256.635,0.781965
303.9000,1.95085,256.941,0.785648
303.8000,-2.43246,255.711,0.770813
303.7000,1.93976,256.568,0.78116
303.6000,3.06747,256.405,0.779194
303.5000,3.39004,256.958,0.785852
303.4000,1.83676,256.362,0.778675
303.3000,1.56417,256.324,0.77821
303.2000,2.14463,256.315,0.778101
303.1000,-2.43536,256.707,0.782825
303.0000,5.5169,256.707,0.782825
302.9000,2.59855,256.574,0.781228
302.8000,2.54499,256.457,0.779822
302.7000,1.3158,256.759,0.783452
302.6000,-0.992611,256.684,0.782552
302.5000,0.926464,258.608,0.805648
302.4000,0.0461722,256.549,0.780928
302.3000,-1.2286,256.3,0.777924
302.2000,0.0431001,256.121,0.775764
302.1000,4.71412,257.269,0.789585
302.0000,2.4839,256.306,0.777992
301.9000,2.48531,255.949,0.773686
301.8000,-0.187129,256.122,0.775778
301.7000,0.41893,256.163,0.77627
301.6000,2.07772,255.981,0.774083
301.5000,4.55931,256.098,0.775491
301.4000,2.18572,256.109,0.775628
301.3000,1.39275,256.758,0.783439
301.2000,0.286134,256.392,0.77903
301.1000,1.34629,255.835,0.772318
301.0000,2.21437,256.291,0.777814
300.9000,-0.226905,256.156,0.776188
300.8000,2.14137,256.317,0.778129
300.7000,3.31232,257.394,0.791097
300.6000,0.607556,254.656,0.758049
300.5000,0.663383,255.473,0.767938
300.4000,1.76972,257.747,0.795328
300.3000,0.697864,255.816,0.772086
300.2000,-0.423998,256.32,0.77817
300.1000,-0.076405,256.394,0.779057
300.0000,-2.38028,256.068,0.775122
299.9000,4.1956,256.037,0.774753
299.8000,-0.827701,256.023,0.774589
299.7000,5.07217,257.513,0.792526
299.6000,-0.82785,255.986,0.774138
299.5000,1.60583,256.009,0.774411
299.4000,-1.51054,256.423,0.779412
299.3000,-0.195436,257.083,0.787351
299.2000,3.24569,256.625,0.781842
299.1000,2.3908,256.547,0.780901
299.0000,1.6054,256.258,0.777418
298.9000,-1.86253,256.06,0.775026
298.8000,3.20147,256.062,0.775054
298.7000,1.2909,255.86,0.772619
298.6000,2.73306,255.683,0.770485
298.5000,-1.72765,256.168,0.776339
298.4000,1.4642,255.583,0.769266
298.3000,1.96939,254.22,0.752757
298.2000,1.17284,256.667,0.782347
298.1000,1.9547,256.217,0.776926
298.0000,3.2681,254.082,0.751093
297.9000,-0.503505,255.596,0.76943
297.8000,0.532075,256.06,0.775026
297.7000,-0.067494,255.619,0.769704
297.6000,1.96949,256.111,0.775642
297.5000,-1.78758,255.083,0.763223
297.4000,4.8101,256.204,0.776762
297.3000,1.07793,255.7,0.77069
297.2000,2.15959,256.057,0.774999
297.1000,2.14178,255.85,0.772496
297.0000,0.46342,256.208,0.776817
296.9000,1.67429,256.189,0.776584
296.8000,-0.481297,256.431,0.779508
296.7000,2.23104,255.322,0.766115
296.6000,3.00481,255.816,0.772086
296.5000,0.688874,255.213,0.7648
296.4000,3.72083,256.347,0.778497
296.3000,0.608644,255.717,0.770895
296.2000,-0.387966,255.203,0.764676
296.1000,2.54615,256.31,0.778047
296.0000,1.58483,255.796,0.771839
295.9000,-1.6319,255.34,0.766335
295.8000,4.16275,255.044,0.762756
295.7000,-0.131682,255.421,0.767308
295.6000,1.41539,255.906,0.773166
295.5000,1.12991,256.014,0.77448
295.4000,1.23898,256.424,0.779426
295.3000,-0.238914,255.374,0.766746
295.2000,-0.170318,255.567,0.769074
295.1000,2.44792,255.706,0.770758
295.0000,1.5456,255.625,0.769773
294.9000,0.92207,255.531,0.768636
294.8000,1.81341,255.955,0.773768
294.7000,-1.07579,255.886,0.772934
294.6000,2.78779,255.529,0.768623
294.5000,0.525735,255.293,0.765759
294.4000,4.70499,254.369,0.754572
294.3000,0.688909,254.941,0.761508
294.2000,1.623,255.182,0.764416
294.1000,-0.702077,256.432,0.779521
294.0000,1.77406,256.287,0.777773
293.9000,3.14123,255.324,0.766143
293.8000,-0.620672,256.208,0.776817
293.7000,2.7719,255.764,0.771456
293.6000,0.349276,255.859,0.772606
293.5000,-1.24236,255.187,0.764484
293.4000,2.20725,255.6,0.769471
293.3000,2.2351,254.728,0.758928
293.2000,2.79877,255.205,0.764704
293.1000,-0.816747,255.544,0.768801
293.0000,-1.15104,255.466,0.767856
292.9000,0.159995,255.24,0.765129
292.8000,0.10069,255.247,0.765211
292.7000,-1.02741,255.517,0.768472
292.6000,2.3943,255.162,0.764183
292.5000,0.701554,256.318,0.778142
292.4000,-0.730643,255.081,0.763195
292.3000,4.96032,255.213,0.7648
292.2000,-0.45867,255.418,0.76728
292.1000,0.940235,255.808,0.77199
292.0000,1.71874,255.089,0.763291
291.9000,0.842587,255.323,0.766129
291.8000,0.967541,255.262,0.765389
291.7000,0.912524,255.034,0.762633
291.6000,0.604,254.238,0.752977
291.5000,1.47438,254.821,0.760053
291.4000,-0.698318,254.787,0.759641
291.3000,-1.43374,254.561,0.756895
291.2000,5.46552,254.375,0.754641
291.1000,1.85293,254.803,0.759834
291.0000,1.54284,254.187,0.752358
290.9000,2.71722,254.215,0.752702
290.8000,0.731695,254.86,0.76052
290.7000,1.7243,254.218,0.752744
290.6000,1.55087,254.189,0.752386
290.5000,0.231663,254.842,0.7603
290.4000,1.00611,254.36,0.754462
290.3000,1.45395,254.669,0.758213
290.2000,4.57579,255.039,0.762688
290.1000,1.24358,254.681,0.758351
290.0000,3.63516,254.678,0.758323
289.9000,-0.584627,254.553,0.756799
289.8000,-0.278156,255.043,0.762743
289.7000,2.18251,255.761,0.771415
289.6000,-3.08151,255.256,0.765321
289.5000,-0.0587299,254.682,0.758364
289.4000,-1.29788,255.04,0.762702
289.3000,-0.66159,255.362,0.766595
289.2000,-0.268305,255.529,0.768623
289.1000,0.339003,255.495,0.768212
289.0000,-0.224704,255.145,0.763977
288.9000,3.36757,255.14,0.763908
288.8000,1.62065,254.922,0.761275
288.7000,2.9953,254.044,0.750625
288.6000,-1.11143,254.916,0.761206
288.5000,-1.25449,255.544,0.768801
288.4000,-2.64238,254.171,0.752166
288.3000,0.554371,254.072,0.750969
288.2000,0.166175,254.963,0.761769
288.1000,2.81041,256.625,0.781842
288.0000,-0.100068,254.38,0.75471
287.9000,4.63604,254.058,0.75079
287.8000,0.405614,254.666,0.758172
287.7000,1.93396,253.456,0.743476
287.6000,2.64522,254.065,0.750886
287.5000,-0.0753205,255.374,0.766746
287.4000,3.72087,253.577,0.744951
287.3000,0.482548,256.166,0.776311
287.2000,2.59161,253.395,0.742731
287.1000,4.57466,255.388,0.76691
287.0000,2.64423,254.637,0.757815
286.9000,-1.12095,256.062,0.775054
286.8000,0.785372,254.175,0.752221
286.7000,3.10051,254.925,0.761316
286.6000,1.2237,253.092,0.739047
286.5000,1.72905,255.783,0.771689
286.4000,0.367039,256.097,0.775477
286.3000,0.595387,254.042,0.750597
286.2000,-2.45049,255.452,0.767691
286.1000,4.14595,254.872,0.760671
286.0000,2.5044,253.386,0.742621
285.9000,2.4671,255.69,0.770567
285.8000,4.02473,255.532,0.76865
285.7000,2.11613,254.214,0.752689
285.6000,3.54367,254.82,0.76004
285.5000,0.696324,254.954,0.761659
285.4000,1.17951,255.365,0.766636
285.3000,1.28307,255.201,0.764649
285.2000,3.57653,254.395,0.754888
285.1000,2.4745,255.426,0.767376
285.0000,0.997064,254.855,0.760465
284.9000,0.589712,254.978,0.761947
284.8000,3.29071,254.557,0.756853
284.7000,4.37363,254.124,0.751602
284.6000,1.93118,254.953,0.761645
284.5000,1.61473,254.179,0.752262
284.4000,1.09029,254.806,0.759875
284.3000,1.50767,254.176,0.752235
284.2000,4.44792,254.167,0.752125
284.1000,3.17615,255.051,0.762839
284.0000,-0.824343,255,0.762222
283.9000,3.84688,253.559,0.74473
283.8000,1.70878,254.41,0.755067
283.7000,2.36244,254.685,0.758406
283.6000,-0.740848,254.035,0.750515
283.5000,2.62265,254.149,0.751904
283.4000,1.87518,254.439,0.755425
283.3000,0.651371,252.938,0.73717
283.2000,4.25149,255.33,0.766211
283.1000,0.246887,254.276,0.753445
283.0000,1.43179,254.393,0.754861
282.9000,1.99745,254.732,0.758969
282.8000,-0.913897,254.682,0.758364
282.7000,1.35566,253.663,0.745998
282.6000,-2.64363,254.685,0.758406
282.5000,-0.0334112,255.635,0.769896
282.4000,2.26644,253.929,0.749235
282.3000,-0.934924,255.142,0.763936
282.2000,4.17505,254.569,0.756991
282.1000,-0.778043,254.29,0.75361
282.0000,0.724758,255.287,0.765691
281.9000,2.404,254.872,0.760671
281.8000,1.99551,254.865,0.760589
281.7000,3.21647,254.86,0.76052
281.6000,1.91993,253.946,0.749441
281.5000,-1.147,254.182,0.752303
281.4000,2.03344,254.692,0.758488
281.3000,-0.0375006,254.375,0.754641
281.2000,0.732784,255.134,0.76384
281.1000,0.886813,255.325,0.766157
281.0000,1.40968,254.765,0.759367
280.9000,3.05431,253.925,0.74918
280.8000,0.886086,254.812,0.759943
280.7000,0.209068,254.558,0.756867
280.6000,-0.801682,255.23,0.765005
280.5000,1.86205,254.383,0.754737
280.4000,0.619895,254.277,0.753459
280.3000,0.422299,254.499,0.756153
280.2000,1.72066,254.312,0.753885
280.1000,1.12074,253.842,0.748174
280.0000,-0.284601,254.55,0.756771
279.9000,1.88174,254.348,0.754311
279.8000,2.3764,253.858,0.748367
279.7000,1.23178,254.503,0.756194
279.6000,-0.885994,254.716,0.758776
279.5000,2.76389,254.433,0.755342
279.4000,1.03959,254.681,0.758351
279.3000,0.0215662,253.515,0.744193
279.2000,0.591821,254.184,0.752331
279.1000,3.64009,254.024,0.750377
279.0000,0.365448,254.188,0.752372
278.9000,0.334569,254.242,0.753032
278.8000,2.10671,254.766,0.759381
278.7000,1.53565,254.081,0.751079
278.6000,-1.13844,254.503,0.756194
278.5000,0.825733,254.113,0.751464
278.4000,3.69897,254.423,0.755232
278.3000,1.45096,254.789,0.759669
278.2000,-0.159123,254.146,0.751863
278.1000,-1.292,253.876,0.748587
278.0000,-0.04834,254.003,0.750129
277.9000,2.55976,254.036,0.750528
277.8000,1.09865,254.297,0.753692
277.7000,-0.0518382,253.926,0.749193
277.6000,2.02864,252.323,0.729662
277.5000,0.584329,253.787,0.7475
277.4000,0.968693,253.549,0.744606
277.3000,3.26569,254.107,0.751395
277.2000,3.288,253.786,0.747486
277.1000,-0.770871,254.682,0.758364
277.0000,1.96234,253.219,0.740593
276.9000,1.26146,253.33,0.741945
276.8000,-1.12782,254.538,0.75662
276.7000,3.06972,254.229,0.752867
276.6000,0.407287,253.988,0.74995
276.5000,3.2619,254.192,0.752427
276.4000,1.82323,254.583,0.757169
276.3000,0.304466,256.329,0.778279
276.2000,4.01802,254.332,0.754119
276.1000,2.42014,254.472,0.755823
276.0000,1.98192,254.254,0.75317
275.9000,0.62394,253.861,0.748409
275.8000,-1.82993,254.587,0.757211
275.7000,-0.351308,253.857,0.748354
275.6000,-2.31908,254.052,0.750721
275.5000,3.31774,254.522,0.756428
275.4000,-0.30598,253.627,0.745557
275.3000,3.24839,254.221,0.752771
275.2000,1.82941,253.993,0.750006
275.1000,0.921142,253.845,0.748202
275.0000,-1.10923,254.156,0.751987
274.9000,-0.804411,254.41,0.755067
274.8000,0.103734,254.437,0.755397
274.7000,0.225224,253.812,0.747803
274.6000,2.24727,254.414,0.755122
274.5000,3.85175,254.687,0.758433
274.4000,1.83974,254.268,0.753348
274.3000,1.47696,253.067,0.738743
274.2000,3.58074,253.9,0.748877
274.1000,0.72963,253.852,0.748298
274.0000,1.00032,254.214,0.752689
273.9000,-0.718122,253.515,0.744193
273.8000,0.410863,253.905,0.748932
273.7000,1.42683,253.19,0.740234
273.6000,4.21562,253.807,0.747748
273.5000,-2.27214,253.591,0.745116
273.4000,2.96414,253.14,0.739627
273.3000,-0.506704,253.714,0.746618
273.2000,1.7919,254.2,0.752523
273.1000,0.574824,253.54,0.744496
273.0000,1.21648,254.303,0.753775
272.9000,3.33796,253.491,0.743903
272.8000,0.630124,253.542,0.744523
272.7000,0.527196,254.933,0.761412
272.6000,-0.125914,254.192,0.752427
272.5000,0.653702,253.277,0.741297
272.4000,0.360689,254.019,0.750322
272.3000,1.9375,253.999,0.750074
272.2000,4.15119,254.737,0.759037
272.1000,-0.437047,253.562,0.744772
272.0000,2.54538,254.021,0.75035
271.9000,1.00907,253.98,0.749854
271.8000,-0.749297,253.679,0.746191
271.7000,-1.40278,253.715,0.746632
271.6000,-3.03899,254.298,0.753706
271.5000,0.85318,253.733,0.746852
271.4000,0.787472,252.875,0.736396
271.3000,-0.46031,253.262,0.741117
271.2000,-1.62202,253.795,0.747596
271.1000,2.56223,254.395,0.754888
271.0000,4.51369,254.196,0.752469
270.9000,-1.6757,254.062,0.750845
270.8000,0.0983189,253.687,0.746287
270.7000,2.50193,254.565,0.75695
270.6000,-0.153724,254.369,0.754572
270.5000,0.983164,253.832,0.74805
270.4000,0.0457015,253.584,0.745034
270.3000,-1.61297,253.591,0.745116
270.2000,0.198576,253.516,0.744207
270.1000,0.189487,254.142,0.751822
270.0000,0.640724,254.136,0.751739
269.9000,-0.149349,254.46,0.755672
269.8000,0.359673,254.89,0.76089
269.7000,-3.11559,254.352,0.754366
269.6000,-0.688614,254.156,0.751987
269.5000,-0.754929,253.396,0.742745
269.4000,-1.30946,254.271,0.753376
269.3000,-1.59628,253.952,0.74951
269.2000,-1.37065,254.176,0.752235
269.1000,2.72089,254.69,0.758461
269.0000,0.184065,254.357,0.754421
268.9000,1.67576,254.048,0.75068
268.8000,-0.86997,253.484,0.74382
268.7000,1.56595,255.22,0.764882
268.6000,-0.0753137,253.755,0.747114
268.5000,-0.99767,254.634,0.757788
268.4000,-0.743186,253.881,0.748643
268.3000,1.95682,254.414,0.755122
268.2000,1.046,254.36,0.754462
268.1000,0.104179,254.774,0.759477
268.0000,-0.974611,254.459,0.755658
267.9000,5.53279,254.331,0.754105
267.8000,1.66888,254.324,0.754022
267.7000,-3.57659,254.327,0.754064
267.6000,0.285813,254.964,0.761782
267.5000,0.168235,254.231,0.752895
267.4000,3.26172,253.365,0.742373
267.3000,3.08941,254.368,0.754559
267.2000,-0.204075,254.775,0.75949
267.1000,0.469005,253.386,0.742621
267.0000,1.0703,253.86,0.748395
266.9000,-1.06224,253.284,0.74138
266.8000,2.30609,254.375,0.754641
266.7000,-1.37985,254.99,0.762098
266.6000,0.144812,254.258,0.753225
266.5000,1.2107,253.729,0.746797
266.4000,0.968327,254.515,0.756345
266.3000,-0.96171,254.953,0.761645
266.2000,0.0898216,255.293,0.765759
266.1000,0.94327,254.292,0.753637
266.0000,3.04879,254.898,0.760987
265.9000,0.797568,254.118,0.751519
265.8000,1.00315,255.282,0.765636
265.7000,-0.52113,254.923,0.761288
265.6000,3.18724,253.911,0.749014
265.5000,1.7825,254.786,0.759628
265.4000,3.02641,253.94,0.749358
265.3000,2.99045,253.882,0.748656
265.2000,0.875341,254.86,0.76052
265.1000,-0.605812,253.842,0.748174
265.0000,2.51478,254.694,0.758516
264.9000,0.853432,254.757,0.759271
264.8000,2.01938,254.603,0.757403
264.7000,2.20266,254.349,0.754325
264.6000,2.20353,254.133,0.751712
264.5000,0.848795,255.278,0.765581
264.4000,0.845256,254.755,0.759257
264.3000,0.974067,255.117,0.763634
264.2000,1.68657,256.131,0.775887
264.1000,2.37832,254.429,0.755301
264.0000,2.15344,254.39,0.75482
263.9000,1.71693,255.262,0.765389
263.8000,-0.662251,255.162,0.764183
263.7000,4.2145,254.868,0.760616
263.6000,-0.680926,255.084,0.763236
263.5000,-2.32231,252.878,0.736437
263.4000,-1.39925,254.869,0.76063
263.3000,1.77906,254.691,0.758474
263.2000,2.74355,252.987,0.737763
263.1000,2.21272,255.114,0.763593
263.0000,-0.528816,253.767,0.747266
262.9000,-0.394829,256.66,0.782265
262.8000,4.17272,255.124,0.763716
262.7000,3.78984,254.843,0.760314
262.6000,-0.323166,254.863,0.760561
262.5000,0.651389,256.287,0.777773
262.4000,-1.4909,255.964,0.773878
262.3000,1.35811,255.081,0.763195
262.2000,1.4025,255.846,0.772442
262.1000,1.67273,255.537,0.768718
262.0000,-0.171404,255.516,0.768458
261.9000,3.15534,255.24,0.765129
261.8000,2.86773,256.489,0.780204
261.7000,5.69351,254.32,0.753981
261.6000,-0.958177,255.97,0.773946
261.5000,0.681134,255.193,0.764553
261.4000,-0.852908,255.451,0.767677
261.3000,0.266036,255.713,0.77084
261.2000,1.61646,256.025,0.774602
261.1000,-3.36116,255.661,0.770211
261.0000,-0.82874,255.549,0.768855
260.9000,-1.57915,255.827,0.772223
260.8000,4.93223,255.902,0.773126
260.7000,-0.125382,255.499,0.768253
260.6000,-2.43701,255.056,0.762893
260.5000,1.29334,254.932,0.761398
260.4000,1.93138,256.158,0.776216
260.3000,-1.45681,255.579,0.769225
260.2000,1.68995,255.918,0.773317
260.1000,0.222839,256.255,0.777377
260.0000,4.69067,255.713,0.77084
259.9000,5.11388,255.946,0.773659
259.8000,-0.801555,256.077,0.775231
259.7000,-2.68313,255.664,0.770252
259.6000,-0.616608,255.72,0.770923
259.5000,2.16284,255.985,0.774124
259.4000,2.27709,256.347,0.778497
259.3000,1.65506,256.042,0.774807
259.2000,0.392535,256.239,0.777186
259.1000,0.597378,256.194,0.776653
259.0000,3.70175,255.77,0.771525
258.9000,0.808748,255.626,0.769786
258.8000,-1.50183,256.155,0.776174
258.7000,0.313461,256.317,0.778129
258.6000,1.12847,256.188,0.776571
258.5000,-1.69349,255.907,0.77318
258.4000,-1.27364,256.49,0.780218
258.3000,2.07117,255.738,0.771142
258.2000,0.0112606,256.63,0.781897
258.1000,1.46155,256.131,0.775887
258.0000,1.77837,256.992,0.786261
257.9000,1.62321,256.292,0.777828
257.8000,-0.538327,256.963,0.785907
257.7000,-1.46937,256.938,0.785607
257.6000,0.871966,256.471,0.779986
257.5000,0.186596,256.46,0.779849
257.4000,0.57548,256.955,0.785811
257.3000,0.408257,256.852,0.78457
257.2000,-1.14332,256.806,0.784025
257.1000,-1.18994,256.533,0.780737
257.0000,2.70606,256.545,0.780873
256.9000,2.91402,256.916,0.785348
256.8000,-1.0984,256.776,0.783657
256.7000,0.788525,257.198,0.788741
256.6000,1.20733,256.92,0.785389
256.5000,-1.06461,257.952,0.797788
256.4000,-1.95882,256.742,0.783248
256.3000,1.57902,257.081,0.787324
256.2000,1.13861,256.521,0.780586
256.1000,0.89461,256.727,0.78307
256.0000,0.822317,257.189,0.788632
255.9000,0.0271373,257.553,0.793002
255.8000,1.551,257.493,0.792281
255.7000,-0.0108402,257.238,0.789218
255.6000,0.954756,257.139,0.788033
255.5000,-0.180055,257.145,0.788101
255.4000,1.87893,256.952,0.785784
255.3000,1.24894,256.826,0.784257
255.2000,1.97164,257.084,0.787365
255.1000,1.5377,256.997,0.786316
255.0000,-1.64401,257.57,0.793206
254.9000,-1.07311,257.031,0.786725
254.8000,5.69173,257.249,0.789354
254.7000,-0.990239,257.601,0.793574
254.6000,2.71516,257.067,0.787161
254.5000,-1.68545,257.677,0.794485
254.4000,0.55034,257.979,0.798114
254.3000,2.00837,258.164,0.800328
254.2000,1.09885,258.044,0.798889
254.1000,1.33875,257.961,0.797897
254.0000,1.08473,257.534,0.792771
253.9000,4.92087,257.976,0.798074
253.8000,2.08081,257.684,0.79458
253.7000,0.707324,257.941,0.797652
253.6000,2.56003,257.23,0.789122
253.5000,-1.1651,258.094,0.799487
253.4000,3.3876,257.835,0.796388
253.3000,0.047625,257.922,0.797435
253.2000,2.59055,257.884,0.796973
253.1000,1.89774,258.192,0.800668
253.0000,-2.33032,257.768,0.795586
252.9000,3.67977,258.973,0.810011
252.8000,0.415196,257.922,0.797435
252.7000,2.1652,257.803,0.796008
252.6000,1.06795,258.031,0.798739
252.5000,1.88023,257.826,0.79628
252.4000,3.49473,258.259,0.801469
252.3000,0.612233,258.299,0.801944
252.2000,-1.20915,257.828,0.796307
252.1000,-1.46641,258.171,0.80041
252.0000,-2.39691,258.482,0.804142
251.9000,3.51698,258.41,0.803274
251.8000,1.86611,257.393,0.791083
251.7000,1.92579,257.85,0.796565
251.6000,0.696683,258.095,0.7995
251.5000,1.31221,258.001,0.798372
251.4000,-1.53884,257.891,0.797054
251.3000,0.719623,257.928,0.797503
251.2000,2.1487,258.385,0.802975
251.1000,-0.137557,257.665,0.794349
251.0000,2.11857,258.308,0.802052
250.9000,-0.264865,258.078,0.799296
250.8000,1.98986,259.949,0.821668
250.7000,1.43668,259.368,0.814735
250.6000,4.15049,258.862,0.808684
250.5000,3.01162,258.776,0.807654
250.4000,0.629217,258.853,0.808576
250.3000,0.625278,258.053,0.798997
250.2000,2.82162,258.832,0.808332
250.1000,0.120265,259.449,0.815696
250.0000,3.06805,258.736,0.80718
249.9000,0.429764,258.251,0.801374
249.8000,-4.23461,258.947,0.8097
249.7000,1.50803,258.807,0.808034
249.6000,-0.127614,258.066,0.79916
249.5000,0.988479,258.544,0.804888
249.4000,-0.332615,260.328,0.826175
249.3000,-0.927772,259.119,0.811758
249.2000,-1.92845,258.551,0.80497
249.1000,-3.16366,258.762,0.807491
249.0000,-1.39419,258.169,0.800396
248.9000,0.469961,258.104,0.799609
248.8000,-3.38347,258.436,0.803586
248.7000,2.37842,258.448,0.803735
248.6000,3.07655,258.482,0.804142
248.5000,4.57704,258.43,0.803518
248.4000,0.267991,259.008,0.810431
248.3000,0.769015,258.609,0.805661
248.2000,2.27116,257.699,0.794757
248.1000,-1.32221,258.362,0.802704
248.0000,-1.62759,258.444,0.803681
247.9000,0.176509,257.609,0.793669
247.8000,-0.848313,258.729,0.807098
247.7000,0.758269,257.95,0.797761
247.6000,-0.884501,258.523,0.80463
247.5000,0.963602,259.217,0.812936
247.4000,1.28914,257.794,0.795899
247.3000,-0.1563,258.641,0.806041
247.2000,-0.32313,258.693,0.806664
247.1000,0.163623,259.557,0.816994
247.0000,1.64537,258.508,0.804454
246.9000,-0.931376,258.936,0.809578
246.8000,2.3049,259.017,0.81054
246.7000,-1.9928,259.219,0.812949
246.6000,2.26169,258.21,0.800885
246.5000,0.860127,258.266,0.80155
246.4000,1.3142,259.586,0.817331
246.3000,4.73279,259.573,0.817183
246.2000,0.543894,258.85,0.808548
246.1000,2.37063,258.235,0.801184
246.0000,-1.16595,258.437,0.8036
245.9000,2.25507,259.178,0.812462
245.8000,-3.10146,258.796,0.807898
245.7000,1.01761,259.242,0.813233
245.6000,-1.01527,259.21,0.812841
245.5000,2.3341,258.385,0.802975
245.4000,-0.704445,259.843,0.820399
245.3000,-3.49476,260.449,0.827618
245.2000,1.74528,259.414,0.815276
245.1000,2.12693,259.118,0.811745
245.0000,0.500105,259.043,0.810851
244.9000,1.96868,258.75,0.807342
244.8000,0.813359,259.296,0.813869
244.7000,-0.472421,258.808,0.808047
244.6000,0.767451,259.335,0.814343
244.5000,0.441896,258.793,0.807857
244.4000,0.703196,259.387,0.814965
244.3000,1.89181,259.517,0.816507
244.2000,0.887398,259.542,0.816804
244.1000,2.88521,259.253,0.813355
244.0000,4.51806,259.891,0.820966
243.9000,0.965859,259.701,0.81871
243.8000,0.16043,259.7,0.818696
243.7000,2.59043,259.154,0.812178
243.6000,-1.06554,259.228,0.813058
243.5000,0.62727,259.663,0.818251
243.4000,0.310455,259.685,0.818521
243.3000,-2.44337,259.336,0.814357
243.2000,1.32879,259.564,0.817075
243.1000,0.125942,259.42,0.815358
243.0000,0.958881,260.167,0.82426
242.9000,0.741278,259.895,0.82102
242.8000,-0.561373,259.687,0.818534
242.7000,2.99023,259.519,0.816534
242.6000,0.893635,259.594,0.817426
242.5000,-0.959278,259.793,0.819804
242.4000,0.866947,258.955,0.809795
242.3000,-1.37216,260.446,0.827577
242.2000,3.00787,259.689,0.818561
242.1000,2.25623,260.298,0.825824
242.0000,-0.503092,259.383,0.814911
241.9000,1.35049,259.511,0.816439
241.8000,0.673618,260.336,0.826269
241.7000,0.269697,259.786,0.819723
241.6000,0.980573,259.878,0.820817
241.5000,0.317898,259.837,0.820331
241.4000,-0.0504726,259.59,0.817386
241.3000,-0.089249,259.91,0.821195
241.2000,1.47457,259.586,0.817331
241.1000,-1.08369,260.525,0.828521
241.0000,1.10238,260.13,0.823814
240.9000,0.112786,259.887,0.820925
240.8000,0.564653,260.42,0.827267
240.7000,0.182347,260.307,0.825932
240.6000,-1.48916,258.998,0.810309
240.5000,-1.56631,260.084,0.823274
240.4000,1.48144,261.028,0.8345
240.3000,1.87299,261.241,0.837028
240.2000,3.27336,260.934,0.833383
240.1000,-1.26411,260.195,0.824597
240.0000,3.3844,260.705,0.830663
239.9000,-0.150427,260.24,0.825123
239.8000,-0.49704,261.894,0.844765
239.7000,0.531917,260.926,0.833289
239.6000,2.33592,260.977,0.833894
239.5000,-0.415582,261.66,0.842
239.4000,-1.41594,260.642,0.829908
239.3000,2.55066,260.525,0.828521
239.2000,4.22938,260.778,0.831525
239.1000,2.2955,261.224,0.836827
239.0000,3.18909,261.109,0.835455
238.9000,1.38148,260.505,0.828278
238.8000,-1.39082,260.993,0.834082
238.7000,0.234905,260.987,0.834015
238.6000,2.05226,260.916,0.833167
238.5000,0.835963,260.968,0.833786
238.4000,-0.720393,261.535,0.840509
238.3000,4.03256,260.999,0.83415
238.2000,0.395424,261.096,0.835307
238.1000,0.170966,261.621,0.84153
238.0000,-0.357958,261.191,0.836437
237.9000,-0.73797,261.57,0.840926
237.8000,1.08344,261.422,0.839179
237.7000,-1.73028,261.836,0.844081
237.6000,0.869885,261.396,0.83887
237.5000,2.71999,260.951,0.833585
237.4000,0.171527,260.475,0.827928
237.3000,0.1078,261.028,0.8345
237.2000,0.619168,261.073,0.835038
237.1000,-1.56726,261.651,0.841893
237.0000,-2.22055,262.171,0.848052
236.9000,-1.40081,262.22,0.848628
236.8000,0.447213,262.711,0.854428
236.7000,0.847256,262.06,0.846738
236.6000,0.624514,262.355,0.850223
236.5000,0.900204,261.756,0.843128
236.4000,1.90609,263.029,0.858187
236.3000,-0.783257,262.333,0.849968
236.2000,-0.227966,262.227,0.848709
236.1000,1.43882,261.913,0.844994
236.0000,1.84938,261.587,0.841127
235.9000,-3.68002,262.166,0.847985
235.8000,2.05788,262.443,0.851268
235.7000,2.25404,263.02,0.85808
235.6000,3.5915,262.259,0.849084
235.5000,-0.362481,262.57,0.852768
235.4000,0.638996,263.233,0.860593
235.3000,2.0133,262.529,0.852286
235.2000,1.07199,263.872,0.868122
235.1000,1.68387,264.563,0.876247
235.0000,1.64285,263.013,0.858
234.9000,0.258867,263.217,0.860406
234.8000,2.5815,263.435,0.86297
234.7000,3.66596,262.893,0.856582
234.6000,1.44619,263.412,0.862703
234.5000,2.95995,263.544,0.864252
234.4000,-0.0611834,264.204,0.872026
234.3000,1.44453,264.801,0.87904
234.2000,-1.37762,263.716,0.866281
234.1000,-3.66456,263.396,0.862517
234.0000,2.99932,263.77,0.866921
233.9000,2.19953,263.971,0.869281
233.8000,1.2222,264.043,0.870134
233.7000,-1.03158,263.945,0.868975
233.6000,2.19291,264.107,0.870881
233.5000,0.842779,265.07,0.88219
233.4000,0.627296,264.141,0.87128
233.3000,0.3552,264.441,0.87481
233.2000,0.995862,263.89,0.868335
233.1000,1.50457,264.916,0.880383
233.0000,-2.05954,263.272,0.861047
232.9000,0.156182,264.213,0.872133
232.8000,3.68388,264.564,0.87626
232.7000,2.64899,263.744,0.866614
232.6000,3.29093,265.295,0.884833
232.5000,4.23777,264.263,0.872719
232.4000,-2.60867,264.774,0.878721
232.3000,1.28973,265.421,0.886306
232.2000,3.07957,264.81,0.879147
232.1000,2.63993,264.925,0.880489
232.0000,1.23471,264.966,0.880968
231.9000,1.23446,264.615,0.876859
231.8000,-0.0844668,264.767,0.878641
231.7000,1.51049,265.671,0.889238
231.6000,3.03254,265.729,0.889914
231.5000,-1.49368,265.798,0.890723
231.4000,0.88166,265.9,0.891916
231.3000,3.42458,265.735,0.88998
231.2000,-0.0889811,265.656,0.889052
231.1000,0.397388,265.979,0.892829
231.0000,1.65353,265.142,0.88304
230.9000,-1.1197,265.744,0.890086
230.8000,1.75391,265.295,0.884833
230.7000,1.00102,265.894,0.891836
230.6000,4.14557,265.335,0.885298
230.5000,2.26088,263.825,0.867561
230.4000,1.62665,265.802,0.890762
230.3000,0.917122,265.977,0.892816
230.2000,2.94754,265.847,0.891293
230.1000,1.3822,265.33,0.885244
230.0000,-0.743159,265.601,0.888416
229.9000,1.90492,266.096,0.894207
229.8000,-1.99069,265.394,0.885988
229.7000,1.86388,266.075,0.893955
229.6000,-1.55102,265.586,0.888243
229.5000,-3.52647,266.681,0.901034
229.4000,2.75546,265.806,0.890815
229.3000,1.96353,266.496,0.898879
229.2000,2.35728,265.975,0.89279
229.1000,-0.86165,265.676,0.889291
229.0000,1.84876,267.603,0.911778
228.9000,1.63963,267.245,0.907611
228.8000,-0.0246497,266.51,0.899037
228.7000,-2.35293,266.508,0.899011
228.6000,3.97453,267.541,0.911053
228.5000,0.20201,267.207,0.907162
228.4000,0.369088,266.72,0.901483
228.3000,4.52008,267.311,0.908376
228.2000,3.40885,267.665,0.91249
228.1000,4.49626,266.948,0.904152
228.0000,-1.82996,267.193,0.907004
227.9000,1.63539,267.403,0.909445
227.8000,-0.522342,267.624,0.912016
227.7000,0.364949,267.982,0.916178
227.6000,5.05217,269.099,0.929136
227.5000,-1.02551,267.633,0.912121
227.4000,-0.454123,268.774,0.925369
227.3000,3.74316,268.62,0.923583
227.2000,-1.08186,268.155,0.918192
227.1000,-0.0807376,269.455,0.933254
227.0000,0.952344,269.448,0.933175
226.9000,2.49748,268.476,0.921914
226.8000,2.60872,267.461,0.910117
226.7000,2.07186,269.031,0.928349
226.6000,-0.111275,268.563,0.922926
226.5000,0.49651,268.638,0.923793
226.4000,3.23476,268.758,0.925185
226.3000,-0.84734,268.188,0.918573
226.2000,0.709243,268.909,0.926932
226.1000,3.82134,268.978,0.927732
226.0000,2.68329,269.603,0.93497
225.9000,0.695876,268.6,0.923359
225.8000,-1.68825,268.709,0.92462
225.7000,0.790653,268.476,0.921914
225.6000,0.890324,269.869,0.938047
225.5000,-1.02739,269.354,0.932087
225.4000,3.53236,269.798,0.937223
225.3000,3.21909,270.121,0.940952
225.2000,2.77972,269.732,0.936463
225.1000,1.16048,270.382,0.943959
225.0000,-1.52516,269.272,0.931143
224.9000,1.70263,270.808,0.948869
224.8000,2.25702,269.791,0.937144
224.7000,-3.05202,271.023,0.951348
224.6000,4.95133,270.54,0.945788
224.5000,3.1144,270.702,0.947655
224.4000,1.128,270.342,0.943501
224.3000,-0.506061,270.514,0.945487
224.2000,1.39122,270.544,0.945827
224.1000,3.10015,270.792,0.948686
224.0000,4.07599,271.363,0.955259
223.9000,1.26721,270.241,0.942338
223.8000,2.79289,270.803,0.948817
223.7000,3.12494,269.965,0.939147
223.6000,-2.16652,270.702,0.947655
223.5000,-0.0992276,271.388,0.955545
223.4000,3.89987,271.636,0.958397
223.3000,-0.661244,271.961,0.962131
223.2000,0.340945,271.687,0.958983
223.1000,3.19753,271.054,0.9517
223.0000,1.02416,273.156,0.975827
222.9000,4.50626,272.147,0.964264
222.8000,0.672322,272.006,0.962652
222.7000,0.181224,271.599,0.957968
222.6000,3.11038,272.035,0.962977
222.5000,4.54112,271.819,0.960505
222.4000,2.79288,271.953,0.96204
222.3000,0.800875,271.725,0.959426
222.2000,0.705053,271.57,0.957642
222.1000,1.61938,272.448,0.967719
222.0000,-0.74918,272.099,0.963718
221.9000,-0.775939,271.997,0.962548
221.8000,-1.49788,272.137,0.964147
221.7000,4.21619,272.546,0.968836
221.6000,1.02566,272.419,0.967382
221.5000,2.72588,272.685,0.970432
221.4000,-1.11613,272.448,0.967719
221.3000,0.451834,273.001,0.974051
221.2000,1.21931,273.169,0.975969
221.1000,4.01299,273.529,0.980087
221.0000,-2.52762,273.296,0.97742
220.9000,-0.172444,273.052,0.974634
220.8000,3.5525,273.13,0.975529
220.7000,-2.34347,273.082,0.974971
220.6000,4.62791,273.414,0.978767
220.5000,1.4287,273.626,0.981187
220.4000,3.69029,273.385,0.978443
220.3000,3.62694,274.371,0.989692
220.2000,3.23368,274.045,0.985972
220.1000,4.99456,273.167,0.975943
220.0000,4.41298,273.483,0.979557
219.9000,0.341617,274.353,0.989485
219.8000,4.08853,273.316,0.977653
219.7000,2.29357,273.481,0.979531
219.6000,4.1427,273.688,0.981899
219.5000,0.051875,274.064,0.986192
219.4000,2.48503,273.43,0.978948
219.3000,-0.656812,273.585,0.980722
219.2000,1.36072,274.345,0.989395
219.1000,1.17168,273.01,0.974155
219.0000,0.812263,274.68,0.993214
218.9000,-0.0775947,274.744,0.993937
218.8000,6.03639,274.639,0.992737
218.7000,-2.72405,273.589,0.980773
218.6000,1.11682,275.171,0.998795
218.5000,1.3184,275.542,1.003
218.4000,-0.741101,274.849,0.995136
218.3000,1.80088,276.347,1.01214
218.2000,4.2457,273.893,0.98424
218.1000,-0.90112,274.138,0.987032
218.0000,1.76775,275.594,1.0036
217.9000,-2.68241,274.929,0.996038
217.8000,1.44642,275.654,1.00428
217.7000,-2.51458,275.51,1.00264
217.6000,-2.28463,274.797,0.994543
217.5000,2.82248,276.104,1.00938
217.4000,2.09377,275.905,1.00713
217.3000,4.31143,274.768,0.994208
217.2000,-0.196672,275.551,1.00311
217.1000,-1.76564,275.29,1.00015
217.0000,2.39793,275.767,1.00556
216.9000,2.47186,275.763,1.00551
216.8000,-3.29098,275.837,1.00636
216.7000,3.20648,275.669,1.00444
216.6000,3.41708,275.664,1.00439
216.5000,-1.60814,276.601,1.01501
216.4000,0.753697,277.068,1.02029
216.3000,6.34611,276.763,1.01685
216.2000,2.00028,276.092,1.00925
216.1000,1.72698,276.703,1.01617
216.0000,0.172404,276.944,1.0189
215.9000,-0.936127,277.205,1.02184
215.8000,2.11752,276.55,1.01444
215.7000,0.923595,275.94,1.00753
215.6000,-0.166801,276.894,1.01833
215.5000,3.03572,276.965,1.01913
215.4000,0.908869,277.743,1.02792
215.3000,4.0283,276.652,1.01559
215.2000,2.26449,277.214,1.02194
215.1000,-2.54311,275.774,1.00564
215.0000,2.34619,277.098,1.02064
214.9000,3.5866,277.237,1.0222
214.8000,6.78743,277.943,1.03017
214.7000,2.10172,277.494,1.0251
214.6000,0.556133,277.98,1.03059
214.5000,4.3856,277.554,1.02578
214.4000,3.33245,278.171,1.03275
214.3000,2.29897,277.861,1.02925
214.2000,0.508439,276.705,1.01619
214.1000,0.591885,278.698,1.03868
214.0000,4.26089,276.856,1.0179
213.9000,3.23291,278.694,1.03862
213.8000,-0.895223,277.119,1.02087
213.7000,-0.38862,278.358,1.03485
213.6000,0.193986,278.66,1.03824
213.5000,4.77429,277.934,1.03006
213.4000,0.0895417,278.358,1.03485
213.3000,1.64184,278.058,1.03147
213.2000,3.36696,278.379,1.03508
213.1000,4.23731,278.671,1.03837
213.0000,-1.41895,278.33,1.03453
212.9000,2.24372,278.003,1.03084
212.8000,4.44847,278.271,1.03387
212.7000,5.8691,278.303,1.03423
212.6000,2.21486,279.035,1.04246
212.5000,2.99178,280.821,1.06247
212.4000,3.38489,279.337,1.04586
212.3000,-1.05763,279.036,1.04247
212.2000,-2.45022,278.718,1.03889
212.1000,-0.0421234,279.468,1.04732
212.0000,1.59715,279.472,1.04737
211.9000,1.00373,277.326,1.02321
211.8000,-2.18248,278.369,1.03496
211.7000,6.486,280.413,1.05791
211.6000,0.731877,280.408,1.05786
211.5000,0.796128,280.106,1.05447
211.4000,-1.60256,279.996,1.05324
211.3000,3.46003,280.563,1.05959
211.2000,-2.84189,280.22,1.05575
211.1000,-1.83161,280.361,1.05732
211.0000,3.49432,280.22,1.05575
210.9000,-2.36657,281.374,1.06864
210.8000,5.43696,279.465,1.04729
210.7000,0.223449,279.665,1.04953
210.6000,2.25351,281.47,1.06972
210.5000,2.00957,280.798,1.06221
210.4000,5.46421,281.548,1.07059
210.3000,1.46374,280.968,1.06411
210.2000,2.85645,280.764,1.06183
210.1000,-1.12518,281.278,1.06758
210.0000,-5.16518,281.988,1.07549
209.9000,5.13148,281.241,1.06716
209.8000,-0.89068,280.936,1.06376
209.7000,2.8468,281.29,1.06771
209.6000,0.0400244,281.721,1.07252
209.5000,1.76819,281.048,1.06501
209.4000,2.38836,282.163,1.07744
209.3000,3.6183,283.678,1.09427
209.2000,4.80728,282.823,1.08478
209.1000,3.76943,282.184,1.07767
209.0000,0.652219,281.482,1.06986
208.9000,4.01077,282.612,1.08244
208.8000,1.38857,282.458,1.08072
208.7000,3.6559,282.116,1.07691
208.6000,0.431242,283.176,1.0887
208.5000,-0.954647,283.069,1.08751
208.4000,3.37107,282.575,1.08202
208.3000,2.79187,283.675,1.09423
208.2000,1.9872,282.175,1.07757
208.1000,-0.0679595,283.855,1.09623
208.0000,2.87065,283.925,1.09701
207.9000,2.86792,283.531,1.09264
207.8000,2.14892,283.077,1.0876
207.7000,3.61672,283.188,1.08883
207.6000,2.46727,283.9,1.09673
207.5000,0.295026,284.332,1.10151
207.4000,0.0061719,284.375,1.10198
207.3000,5.4217,284.403,1.1023
207.2000,-0.103312,284.823,1.10693
207.1000,5.68194,285.08,1.10977
207.0000,-2.28217,283.863,1.09632
206.9000,1.24093,284.995,1.10883
206.8000,1.64164,284.174,1.09977
206.7000,2.50047,284.717,1.10577
206.6000,3.33403,284.973,1.1086
206.5000,-1.48076,285.266,1.11182
206.4000,1.61408,284.744,1.10607
206.3000,3.39268,284.395,1.10221
206.2000,-2.47984,284.819,1.10689
206.1000,6.39486,285.833,1.11808
206.0000,-0.609145,285.77,1.11738
205.9000,-1.02767,286.024,1.12017
205.8000,3.63464,285.578,1.11527
205.7000,1.2442,286.847,1.12923
205.6000,5.96569,286.149,1.12156
205.5000,-0.0193277,287.054,1.13149
205.4000,5.56846,286.53,1.12574
205.3000,1.23844,287.126,1.13229
205.2000,-1.75742,287.276,1.13393
205.1000,-1.73155,287.133,1.13236
205.0000,5.01968,287.05,1.13146
204.9000,-1.6872,287.643,1.13795
204.8000,1.96459,288.188,1.14392
204.7000,5.48733,288.038,1.14228
204.6000,1.57872,288.15,1.14351
204.5000,-1.71151,288.181,1.14384
204.4000,-0.536371,288.632,1.14877
204.3000,2.37895,289.357,1.15669
204.2000,-0.795828,288.602,1.14845
204.1000,5.5905,288.682,1.14932
204.0000,3.34542,288.793,1.15053
203.9000,1.8241,289.626,1.15961
203.8000,-1.39159,289.765,1.16113
203.7000,-0.128052,290.1,1.16478
203.6000,2.71305,289.932,1.16294
203.5000,1.59295,290.18,1.16564
203.4000,0.0651388,290.029,1.164
203.3000,3.65614,290.304,1.167
203.2000,-1.13688,290.661,1.17088
203.1000,4.19794,291.888,1.18418
203.0000,3.43954,291.103,1.17567
202.9000,2.25876,291.045,1.17505
202.8000,2.00556,290.361,1.16762
202.7000,0.833744,291.655,1.18165
202.6000,0.705887,290.997,1.17452
202.5000,-0.179353,291.553,1.18055
202.4000,-1.44583,291.648,1.18158
202.3000,5.62419,293.513,1.20172
202.2000,-2.23506,291.598,1.18104
202.1000,-1.89945,293.227,1.19863
202.0000,2.64415,291.228,1.17703
201.9000,3.55938,293.398,1.20048
201.8000,5.62574,293.072,1.19697
201.7000,0.305744,293.432,1.20085
201.6000,4.32789,292.722,1.1932
201.5000,-0.396697,295.339,1.22134
201.4000,-0.141216,293.918,1.20608
201.3000,3.01761,293.381,1.2003
201.2000,3.63746,294.49,1.21223
201.1000,4.8285,293.325,1.1997
201.0000,6.36975,293.426,1.20078
200.9000,3.38792,294.407,1.21134
200.8000,-5.99503,295.13,1.2191
200.7000,4.1144,293.739,1.20415
200.6000,2.4078,295.434,1.22236
200.5000,4.29913,295.137,1.21917
200.4000,0.178166,295.043,1.21817
200.3000,3.61981,296.378,1.23246
200.2000,3.04125,296.485,1.23361
200.1000,-2.33363,295.901,1.22736
200.0000,-0.968423,294.321,1.21042
199.9000,0.790962,296.792,1.23688
199.8000,-1.79289,295.688,1.22508
199.7000,-0.814986,297.088,1.24004
199.6000,4.17431,296.307,1.2317
199.5000,7.24872,296.738,1.2363
199.4000,-0.0110238,297.457,1.24398
199.3000,0.686126,298.107,1.25089
199.2000,0.293828,297.74,1.24698
199.1000,1.14438,297.384,1.24319
199.0000,-1.68288,298.184,1.25171
198.9000,4.01741,298.136,1.2512
198.8000,7.44472,298.749,1.25771
198.7000,3.69335,298.652,1.25668
198.6000,0.0424781,297.802,1.24764
198.5000,3.72714,298.502,1.25509
198.4000,0.773223,298.526,1.25534
198.3000,2.93713,298.257,1.25249
198.2000,0.520833,298.871,1.25901
198.1000,-1.82355,298.47,1.25475
198.0000,1.86092,298.09,1.25071
197.9000,2.02362,300.063,1.27164
197.8000,0.304071,299.457,1.26522
197.7000,3.48593,299.89,1.2698
197.6000,7.6761,299.077,1.26119
197.5000,3.29562,299.762,1.26845
197.4000,-0.700454,300.19,1.27298
197.3000,-2.99496,301.583,1.28767
197.2000,-0.467825,301.647,1.28835
197.1000,0.826745,301.27,1.28438
197.0000,3.267,301.201,1.28365
196.9000,6.0601,301.231,1.28396
196.8000,0.0657648,301.772,1.28967
196.7000,-2.05947,300.477,1.27601
196.6000,2.30614,302.283,1.29504
196.5000,0.584754,301.161,1.28323
196.4000,3.47895,303.262,1.30532
196.3000,-1.677,301.93,1.29132
196.2000,0.752705,303.378,1.30653
196.1000,2.44631,302.112,1.29324
196.0000,1.24399,302.585,1.29821
195.9000,0.762209,303.519,1.30801
195.8000,-1.55231,303.579,1.30864
195.7000,2.85091,303.535,1.30818
195.6000,-1.0458,303.469,1.30749
195.5000,2.10545,304.145,1.31456
195.4000,-6.19267,304.66,1.31995
195.3000,0.422229,305.502,1.32873
195.2000,0.437767,305.324,1.32687
195.1000,-1.88998,303.978,1.31282
195.0000,0.93525,304.819,1.3216
194.9000,-1.02768,305.879,1.33266
194.8000,5.57469,306.513,1.33924
194.7000,0.229706,304.737,1.32075
194.6000,7.39458,305.617,1.32992
194.5000,1.557,306.627,1.34043
194.4000,3.2534,306.515,1.33927
194.3000,4.00476,306.666,1.34083
194.2000,-1.82516,307.297,1.34738
194.1000,7.72071,308.747,1.36239
194.0000,3.87142,307.841,1.35302
193.9000,0.0801769,309.131,1.36636
193.8000,-0.579605,308.363,1.35842
193.7000,-4.26475,310.556,1.38102
193.6000,-1.26429,309.9,1.37427
193.5000,-0.855111,311.308,1.38875
193.4000,1.68841,310.718,1.38269
193.3000,4.16071,311.12,1.38682
193.2000,3.48569,312.048,1.39633
193.1000,3.71906,313.274,1.40886
193.0000,3.6238,312.696,1.40295
192.9000,6.62467,312.677,1.40276
192.8000,-0.374628,315.227,1.42873
192.7000,2.61149,313.766,1.41387
192.6000,-6.40585,316.595,1.44259
192.5000,5.70704,315.397,1.43046
192.4000,3.40804,317.565,1.45239
192.3000,-1.57158,318.121,1.45799
192.2000,5.05677,318.474,1.46154
192.1000,0.267779,317.3,1.44971
192.0000,1.70536,319.066,1.4675
191.9000,2.22507,318.596,1.46277
191.8000,4.3732,320.532,1.48221
191.7000,-1.46194,320.336,1.48024
191.6000,-3.44982,321.728,1.49415
191.5000,2.60077,322.048,1.49735
191.4000,1.15982,322.321,1.50007
191.3000,-2.58502,323.796,1.51473
191.2000,6.64092,325.103,1.52769
191.1000,1.61885,325.91,1.53566
191.0000,-0.857935,326.865,1.54508
190.9000,0.871314,328.549,1.56162
190.8000,0.562731,329.601,1.57193
190.7000,-1.23983,331.651,1.59192
190.6000,-1.97798,332.779,1.60287
190.5000,-0.260203,333.546,1.61031
190.4000,5.68736,334.489,1.61943
190.3000,2.96781,335.783,1.63191
190.2000,3.26047,337.176,1.6453
190.1000,0.790002,337.117,1.64473
190.0000,-1.04956,338.119,1.65433

##### Extended Information
[Comments]
Sample name,bufferKCl_SSAM
Comment
User,ScharfMinor
Division
Company,Saint Mary's College

[Detailed Information]
Creation date,9/27/2022 2:05 PM

Data array type,Linear data array * 3
Horizontal axis,Wavelength [nm]
Vertical axis(1),CD [mdeg]
Vertical axis(2),HT [V]
Vertical axis(3),Abs
Start,320 nm
End,190 nm
Data interval,0.1 nm
Data points,1301    

[Measurement Information]
Instrument name,J-1500
Model name,J-1500
Serial No.,B051061638

Detector,PM-539
Detector S/N,B051061638
  Lock-in amp.,X mode
  HT volt,Auto

Accessory,PTC-517
Accessory S/N,B026561646
  Temperature,22.09 C
  Control sensor,Holder
  Monitor sensor,Holder

Measurement date,9/27/2022 2:05 PM

CD Overload detect,1075
Photometric mode,CD, HT, Abs
Measure range,320 - 190 nm
Data pitch,0.1 nm
CD scale,20 mdeg/0.05 dOD
FL scale,20 mdeg/0.05 dOD
D.I.T.,8 msec
Bandwidth,1.00 nm
Start mode,Immediately
Scanning mode,Continuous
Scanning speed,50 nm/min
Baseline correction,None
Shutter control,Auto
No. of cycle,1/1
N2 Flowmeter,Manual

Solvent,NaPO4 buffer

