TITLE,buffer
DATA TYPE,
ORIGIN,JASCO
OWNER,
DATE,22/09/27
TIME,13:27:43
SPECTROMETER/DATA SYSTEM,
LOCALE,1033
RESOLUTION,
DELTAX,-0.1
XUNITS,NANOMETERS
YUNITS,CD [mdeg]
Y2UNITS,HT [V]
Y3UNITS,ABSORBANCE
FIRSTX,  320.0000
LASTX,  190.0000
NPOINTS,    1301
FIRSTY,     1.32336
MAXY,    10.61089
MINY,    -5.12070
XYDATA
320.0000,1.32336,256.053,0.774944
319.9000,-2.12209,257.088,0.787419
319.8000,2.95265,256.268,0.777541
319.7000,0.129266,256.429,0.779481
319.6000,0.278466,256.812,0.784093
319.5000,0.0998451,256.31,0.778047
319.4000,0.0696556,256.451,0.77974
319.3000,4.28715,256.537,0.780778
319.2000,-0.145125,256.777,0.78367
319.1000,-1.38238,256.929,0.785498
319.0000,1.45594,256.712,0.782893
318.9000,1.9596,256.839,0.78442
318.8000,-0.159754,257.195,0.7887
318.7000,-1.46077,256.813,0.784107
318.6000,1.11943,256.24,0.777199
318.5000,1.18051,256.321,0.778183
318.4000,2.11832,256.062,0.775054
318.3000,2.18733,257.076,0.78727
318.2000,0.487424,256.717,0.782948
318.1000,2.25315,256.879,0.784898
318.0000,2.20984,256.361,0.778661
317.9000,1.43868,256.065,0.775095
317.8000,3.49562,256.376,0.778839
317.7000,-1.10245,257.145,0.788101
317.6000,2.76279,255.332,0.766239
317.5000,-2.77271,256.207,0.776803
317.4000,0.836647,256.542,0.780846
317.3000,0.227931,257.547,0.792934
317.2000,-0.53518,255.646,0.770033
317.1000,4.09573,256.419,0.779358
317.0000,2.03792,256.347,0.778497
316.9000,-0.193945,257.851,0.796579
316.8000,1.36645,256.698,0.782715
316.7000,1.95949,255.94,0.773577
316.6000,-1.91098,256.571,0.781187
316.5000,1.71374,254.93,0.761371
316.4000,0.683079,256.729,0.783098
316.3000,0.823295,256.757,0.783425
316.2000,0.608723,257.296,0.789912
316.1000,0.130646,256.551,0.780955
316.0000,1.48245,256.579,0.781283
315.9000,4.92576,256.163,0.77627
315.8000,0.0892598,257.045,0.786902
315.7000,2.60414,257.28,0.789722
315.6000,-1.45103,256.199,0.776707
315.5000,3.14162,257.281,0.789735
315.4000,-0.504525,256.199,0.776707
315.3000,2.69737,255.509,0.768376
315.2000,-0.844008,256.537,0.780778
315.1000,0.472442,256.547,0.780901
315.0000,0.48972,256.806,0.784025
314.9000,-1.44358,255.563,0.769033
314.8000,0.944351,255.985,0.774124
314.7000,2.78586,256.038,0.774767
314.6000,-0.578546,256.781,0.783725
314.5000,0.283428,256.306,0.777992
314.4000,2.80611,255.855,0.772551
314.3000,1.64825,256.06,0.775026
314.2000,-0.559859,256.034,0.774712
314.1000,1.9152,256.108,0.775614
314.0000,4.28384,256.455,0.779795
313.9000,1.31059,255.396,0.767006
313.8000,2.51102,255.534,0.768677
313.7000,1.4647,255.757,0.771374
313.6000,2.27446,255.584,0.76928
313.5000,0.435774,256.057,0.774999
313.4000,2.88293,256.456,0.779808
313.3000,0.396158,255.816,0.772086
313.2000,0.865293,255.739,0.771155
313.1000,2.29639,255.559,0.768979
313.0000,1.85612,255.945,0.773645
312.9000,2.45699,255.43,0.767417
312.8000,0.472814,255.891,0.772989
312.7000,0.558412,256.174,0.776407
312.6000,2.13694,255.841,0.772387
312.5000,3.12038,256.323,0.778197
312.4000,2.62976,256.175,0.776421
312.3000,-1.71194,256.146,0.776065
312.2000,1.27178,254.414,0.755122
312.1000,1.68989,256.332,0.778306
312.0000,0.989243,256.082,0.7753
311.9000,4.3385,256.17,0.776352
311.8000,2.62093,256.087,0.775354
311.7000,-0.365739,256.361,0.778661
311.6000,5.19703,256.524,0.780628
311.5000,0.495336,255.787,0.77173
311.4000,1.44653,256.413,0.779289
311.3000,-0.160303,255.822,0.772154
311.2000,0.918991,255.688,0.770539
311.1000,-1.37153,256.29,0.777801
311.0000,-2.46264,256.491,0.780232
310.9000,0.76465,256.487,0.780177
310.8000,1.94872,256.456,0.779808
310.7000,0.389292,256.343,0.778443
310.6000,-1.48163,256.592,0.781447
310.5000,1.85248,256.022,0.774575
310.4000,2.96757,255.767,0.771497
310.3000,-0.658901,256.125,0.775819
310.2000,-0.820803,256.272,0.777582
310.1000,-0.287843,256.367,0.77873
310.0000,0.645931,256.491,0.780232
309.9000,-0.330082,256.49,0.780218
309.8000,1.79902,255.56,0.768992
309.7000,4.6862,256.226,0.777035
309.6000,0.475829,255.395,0.766992
309.5000,-3.62899,256.366,0.778716
309.4000,-2.09419,255.875,0.772797
309.3000,2.85426,256.43,0.779494
309.2000,1.12398,256.035,0.774725
309.1000,1.88164,255.635,0.769896
309.0000,0.967054,255.806,0.771963
308.9000,1.50081,255.543,0.768787
308.8000,1.34951,256.571,0.781187
308.7000,-0.785139,256.327,0.778251
308.6000,1.78362,255.797,0.771853
308.5000,-2.21396,255.78,0.771648
308.4000,1.9532,256.375,0.778825
308.3000,1.66979,255.838,0.772346
308.2000,-0.00219712,255.8,0.771894
308.1000,1.33702,256.103,0.775546
308.0000,-0.126921,256.662,0.782293
307.9000,-0.646979,255.672,0.770348
307.8000,0.470533,255.799,0.771881
307.7000,2.41958,256.17,0.776352
307.6000,1.6794,255.799,0.771881
307.5000,2.98293,255.739,0.771155
307.4000,0.913168,255.953,0.773741
307.3000,2.95647,255.376,0.766773
307.2000,2.42222,254.54,0.756647
307.1000,-2.93209,255.865,0.772674
307.0000,1.06282,256.012,0.774452
306.9000,-3.08082,255.974,0.773987
306.8000,-0.625455,255.311,0.765978
306.7000,-1.18512,255.819,0.772127
306.6000,1.79915,256.341,0.778415
306.5000,0.791376,255.043,0.762743
306.4000,3.5307,255.002,0.762249
306.3000,0.877874,254.911,0.761138
306.2000,1.21226,255.95,0.7737
306.1000,2.36825,255.992,0.774206
306.0000,3.67084,255.742,0.771196
305.9000,-0.452201,255.728,0.771018
305.8000,0.390875,255.613,0.769636
305.7000,0.758707,255.834,0.772305
305.6000,-2.09972,256.009,0.774411
305.5000,4.226,255.741,0.771182
305.4000,0.897297,255.823,0.772168
305.3000,0.894394,255.589,0.769348
305.2000,-1.2322,255.508,0.768362
305.1000,2.18813,255.848,0.772469
305.0000,1.95236,256.098,0.775491
304.9000,0.86121,256.217,0.776926
304.8000,4.54003,255.58,0.769239
304.7000,3.48282,255.329,0.766198
304.6000,1.3116,255.07,0.763072
304.5000,2.19213,255.673,0.770361
304.4000,1.71369,255.895,0.773044
304.3000,4.76191,255.469,0.767896
304.2000,-0.700539,255.124,0.763716
304.1000,-1.86561,255.393,0.766979
304.0000,0.452065,255.209,0.764745
303.9000,0.304695,255.203,0.764676
303.8000,-0.927776,255.43,0.767417
303.7000,4.59313,255.444,0.767595
303.6000,-1.31234,255.182,0.764416
303.5000,0.127511,255.455,0.767719
303.4000,1.84747,255.464,0.767828
303.3000,1.33937,255.483,0.768061
303.2000,-1.48511,255.632,0.769868
303.1000,2.89798,256.421,0.779385
303.0000,2.37237,255.72,0.770923
302.9000,0.547689,255.6,0.769471
302.8000,-1.04165,256.026,0.774616
302.7000,-1.31169,254.873,0.760685
302.6000,3.0112,254.861,0.760534
302.5000,3.35236,255.406,0.767129
302.4000,4.09968,255.45,0.767664
302.3000,-0.218968,255.637,0.769923
302.2000,3.06524,255.223,0.764923
302.1000,1.8675,255.54,0.768746
302.0000,-0.30485,255.564,0.769047
301.9000,0.243446,255.102,0.763456
301.8000,0.176514,254.92,0.761247
301.7000,4.40579,255.628,0.769814
301.6000,0.445025,255.526,0.768581
301.5000,2.50112,255.251,0.765252
301.4000,2.91689,255.282,0.765636
301.3000,-2.80494,255.331,0.766225
301.2000,1.27629,255.635,0.769896
301.1000,-0.80601,255.81,0.772017
301.0000,2.57306,255.176,0.764347
300.9000,0.333417,254.677,0.75831
300.8000,5.60209,254.882,0.760794
300.7000,1.97266,255.506,0.768335
300.6000,-0.804101,255.753,0.771319
300.5000,2.54386,255.185,0.764457
300.4000,0.170235,255.148,0.764005
300.3000,0.105209,255.294,0.765773
300.2000,0.431786,255.584,0.76928
300.1000,-0.94056,255.323,0.766129
300.0000,-0.170993,255.655,0.770142
299.9000,0.436423,255.08,0.763182
299.8000,-1.55778,255.302,0.765869
299.7000,0.906556,255.171,0.764292
299.6000,-0.629733,254.796,0.759751
299.5000,2.30607,255.213,0.7648
299.4000,-0.608569,255.171,0.764292
299.3000,3.2052,254.512,0.756304
299.2000,1.62496,255.185,0.764457
299.1000,1.90133,255.177,0.764361
299.0000,0.065401,254.605,0.757431
298.9000,0.279341,254.896,0.760959
298.8000,-1.74309,255.126,0.763744
298.7000,1.56834,254.8,0.759792
298.6000,1.77162,255.848,0.772469
298.5000,2.08357,254.473,0.755837
298.4000,-0.440363,254.192,0.752427
298.3000,-1.1593,255.806,0.771963
298.2000,-1.15276,254.936,0.761439
298.1000,-3.23161,254.598,0.757348
298.0000,1.00493,254.408,0.75504
297.9000,1.31511,254.119,0.751533
297.8000,1.50075,254.995,0.762153
297.7000,3.46515,255.227,0.764964
297.6000,2.01269,255.353,0.766486
297.5000,1.92986,254.921,0.761261
297.4000,-1.53944,254.784,0.7596
297.3000,2.71274,254.447,0.755521
297.2000,0.812443,255.276,0.765553
297.1000,2.57903,254.671,0.758227
297.0000,3.18809,254.667,0.758186
296.9000,1.80598,254.615,0.757554
296.8000,2.40097,255.257,0.765334
296.7000,0.522987,254.677,0.75831
296.6000,-0.0241131,254.544,0.756689
296.5000,-0.438445,255.409,0.767171
296.4000,1.39776,254.373,0.754614
296.3000,-1.4314,254.864,0.760575
296.2000,-0.878184,255.681,0.770457
296.1000,0.605733,254.663,0.758131
296.0000,2.95646,254.896,0.760959
295.9000,1.08032,254.681,0.758351
295.8000,-1.50363,254.631,0.757746
295.7000,-0.763734,254.444,0.755479
295.6000,0.939125,254.476,0.755864
295.5000,1.57387,254.387,0.754792
295.4000,2.14488,254.554,0.756812
295.3000,-0.14247,254.629,0.757719
295.2000,4.23642,254.695,0.758529
295.1000,-2.11742,254.413,0.755108
295.0000,1.99932,254.326,0.75405
294.9000,3.58593,254.348,0.754311
294.8000,-1.72518,254.12,0.751547
294.7000,2.42913,254.365,0.754517
294.6000,-0.209006,254.966,0.76181
294.5000,0.654613,254.137,0.751753
294.4000,0.139057,253.611,0.745364
294.3000,0.724038,254.358,0.754435
294.2000,-0.648834,255.056,0.762893
294.1000,2.91711,254.306,0.753802
294.0000,3.16849,254.351,0.754352
293.9000,0.409761,253.932,0.749262
293.8000,0.848435,254.383,0.754737
293.7000,1.13346,254.654,0.758021
293.6000,2.08383,253.948,0.749455
293.5000,1.30262,254.302,0.753761
293.4000,-2.2064,254.939,0.761481
293.3000,2.48753,254.918,0.76122
293.2000,0.092757,254.257,0.753211
293.1000,0.82103,254.191,0.752413
293.0000,0.448332,253.952,0.74951
292.9000,2.07833,253.765,0.747238
292.8000,2.73053,254.524,0.756455
292.7000,2.52336,254.104,0.751354
292.6000,-0.920706,253.662,0.745984
292.5000,2.70183,253.966,0.749675
292.4000,0.292359,254.016,0.750281
292.3000,-2.86922,253.931,0.749248
292.2000,0.134074,253.877,0.748601
292.1000,2.0696,253.654,0.745888
292.0000,-0.684415,253.76,0.747169
291.9000,3.01801,254.114,0.751478
291.8000,-0.681543,253.579,0.744978
291.7000,0.71559,254.457,0.755644
291.6000,-0.931505,253.76,0.747169
291.5000,1.78456,253.951,0.749496
291.4000,-0.359014,253.271,0.741228
291.3000,0.907237,253.326,0.74189
291.2000,1.60586,253.34,0.742069
291.1000,0.3804,253.152,0.739779
291.0000,-0.583251,253.423,0.743076
290.9000,0.405042,253.381,0.742566
290.8000,3.75213,253.27,0.741214
290.7000,0.446003,253.688,0.746301
290.6000,0.549438,254.047,0.750666
290.5000,4.49931,254.314,0.753899
290.4000,-0.482988,253.686,0.746274
290.3000,1.25126,254.199,0.75251
290.2000,0.872685,253.954,0.749538
290.1000,0.24526,253.445,0.743338
290.0000,-1.44166,254.192,0.752427
289.9000,1.03113,254.189,0.752386
289.8000,1.04728,253.544,0.744551
289.7000,0.64592,253.835,0.748092
289.6000,5.00075,253.8,0.747665
289.5000,1.77934,254.346,0.754297
289.4000,2.13876,253.982,0.749868
289.3000,3.2778,253.986,0.749923
289.2000,0.292741,253.98,0.749854
289.1000,2.71794,254.835,0.760218
289.0000,1.51246,254.706,0.758653
288.9000,0.106325,253.421,0.743048
288.8000,0.659386,253.954,0.749538
288.7000,2.54,253.701,0.746453
288.6000,-0.776095,253.443,0.743324
288.5000,3.26819,252.909,0.73681
288.4000,1.13287,254.196,0.752469
288.3000,2.14614,253.574,0.744909
288.2000,-0.252226,253.246,0.740924
288.1000,2.71132,255.176,0.764347
288.0000,2.63685,254.018,0.750308
287.9000,-0.0554943,253.832,0.74805
287.8000,3.72508,253.907,0.748959
287.7000,1.05651,253.765,0.747238
287.6000,-0.904282,254.58,0.757128
287.5000,1.31154,253.386,0.742621
287.4000,1.41913,253.698,0.746425
287.3000,0.0577796,254.438,0.755411
287.2000,-0.240592,253.979,0.74984
287.1000,-0.0114733,253.68,0.746205
287.0000,-2.91983,253.95,0.749482
286.9000,1.11644,254.281,0.7535
286.8000,2.33173,253.132,0.73953
286.7000,-1.20543,253.727,0.74677
286.6000,1.35878,253.176,0.740069
286.5000,0.0438577,252.513,0.731987
286.4000,0.399507,253.077,0.738868
286.3000,-0.0974836,252.851,0.736106
286.2000,0.240524,253.748,0.747031
286.1000,2.26402,254.673,0.758255
286.0000,2.13352,253.746,0.747004
285.9000,-1.02022,254.162,0.752056
285.8000,1.40762,254.013,0.750253
285.7000,3.62955,254.176,0.752235
285.6000,1.48946,254.189,0.752386
285.5000,3.24362,253.62,0.745474
285.4000,-0.241872,253.367,0.7424
285.3000,0.798313,252.79,0.73536
285.2000,4.30554,253.558,0.744716
285.1000,1.6726,253.614,0.745406
285.0000,0.578235,253.573,0.744896
284.9000,0.248173,254.348,0.754311
284.8000,2.05868,253.71,0.746563
284.7000,-2.21167,254.005,0.750157
284.6000,-0.858429,252.911,0.736838
284.5000,-0.286096,253.209,0.740469
284.4000,-1.11101,253.489,0.743876
284.3000,2.54858,253.454,0.743448
284.2000,1.48451,253.384,0.742607
284.1000,5.86197,254.204,0.752565
284.0000,0.201917,252.892,0.736603
283.9000,2.84716,253.966,0.749675
283.8000,1.39405,252.876,0.73641
283.7000,-0.347262,253.63,0.745599
283.6000,0.37721,253.994,0.750019
283.5000,-0.841506,253.092,0.739047
283.4000,4.50339,252.979,0.737667
283.3000,1.8537,253.082,0.738923
283.2000,1.58353,253.86,0.748395
283.1000,-0.158694,253.007,0.738012
283.0000,0.980685,253.57,0.744868
282.9000,1.26684,253.48,0.743765
282.8000,1.95013,253.775,0.747362
282.7000,1.19689,253.676,0.74615
282.6000,1.58727,252.679,0.734005
282.5000,2.19536,253.052,0.738564
282.4000,1.45936,252.842,0.735995
282.3000,-0.679361,253.387,0.742635
282.2000,0.352942,253.796,0.74761
282.1000,2.79029,253.773,0.747334
282.0000,0.885455,253.279,0.741324
281.9000,2.72862,253.127,0.739475
281.8000,-1.18118,253.645,0.745778
281.7000,-0.523334,253.327,0.741904
281.6000,1.86768,253.268,0.741186
281.5000,0.146265,253.035,0.738357
281.4000,-0.248196,253.388,0.742648
281.3000,2.07641,253.177,0.740082
281.2000,1.63864,253.593,0.745144
281.1000,1.18741,252.998,0.737901
281.0000,-1.17319,252.604,0.733093
280.9000,1.13707,253.096,0.739089
280.8000,0.222901,253.191,0.740248
280.7000,1.02266,252.164,0.727724
280.6000,-1.4391,253.216,0.740552
280.5000,0.922026,252.517,0.732028
280.4000,1.16694,253.111,0.739282
280.3000,-0.381238,253.118,0.739365
280.2000,0.639389,253.202,0.740386
280.1000,1.6162,252.582,0.73283
280.0000,2.89248,253.135,0.739572
279.9000,0.266805,253.536,0.744455
279.8000,0.174246,252.735,0.734696
279.7000,0.189236,252.934,0.737114
279.6000,2.49698,252.612,0.73319
279.5000,2.24994,252.947,0.73728
279.4000,2.41525,253.874,0.74856
279.3000,2.70686,252.89,0.736589
279.2000,1.62324,252.951,0.737321
279.1000,5.56592,253.033,0.738329
279.0000,3.7897,252.914,0.736879
278.9000,1.76966,253.467,0.743614
278.8000,1.30156,252.475,0.731516
278.7000,2.35134,252.284,0.729192
278.6000,2.04528,253.263,0.741131
278.5000,0.680379,252.326,0.729704
278.4000,-2.2696,252.809,0.735595
278.3000,-1.56979,252.642,0.733563
278.2000,1.50642,252.415,0.730783
278.1000,3.49129,252.785,0.735304
278.0000,0.386809,253.398,0.742773
277.9000,3.03457,253.085,0.738964
277.8000,2.12208,253.441,0.743296
277.7000,0.71102,252.938,0.73717
277.6000,1.17402,253.043,0.738454
277.5000,3.59564,253.133,0.739544
277.4000,2.66478,252.795,0.735429
277.3000,0.766935,253.147,0.73971
277.2000,-0.323272,253.933,0.749276
277.1000,0.614665,252.869,0.736327
277.0000,2.65467,252.671,0.733908
276.9000,2.11749,252.538,0.732291
276.8000,-1.54843,252.519,0.732056
276.7000,-1.44595,252.825,0.735788
276.6000,-0.557659,252.63,0.733411
276.5000,1.13765,252.988,0.737777
276.4000,0.562652,252.944,0.737239
276.3000,-0.786084,252.538,0.732291
276.2000,1.18526,253.046,0.738481
276.1000,2.30946,252.765,0.735056
276.0000,-0.846924,252.461,0.73135
275.9000,0.546997,252.117,0.727143
275.8000,0.568725,252.878,0.736437
275.7000,0.262739,252.095,0.72688
275.6000,0.421727,252.756,0.734945
275.5000,0.399097,252.921,0.736962
275.4000,-0.50976,252.934,0.737114
275.3000,-1.21248,252.96,0.737432
275.2000,2.75164,252.556,0.732512
275.1000,1.45567,252.537,0.732277
275.0000,-1.15364,253.236,0.7408
274.9000,1.14859,252.616,0.733245
274.8000,-2.03449,252.943,0.737225
274.7000,2.82742,253.055,0.738592
274.6000,-2.03842,252.583,0.732844
274.5000,0.186806,253.007,0.738012
274.4000,-1.025,252.938,0.73717
274.3000,0.460548,252.714,0.734434
274.2000,0.402452,252.548,0.732415
274.1000,3.67376,251.855,0.723942
274.0000,2.63888,252.115,0.727129
273.9000,0.559174,252.822,0.73576
273.8000,1.29537,252.607,0.733134
273.7000,0.243307,252.255,0.728832
273.6000,0.640846,252.341,0.729884
273.5000,1.97606,252.876,0.73641
273.4000,3.35636,252.191,0.728057
273.3000,1.16236,253.417,0.743007
273.2000,0.0602818,252.113,0.727101
273.1000,-1.4658,252.578,0.732775
273.0000,0.195846,252.185,0.727974
272.9000,1.48816,251.534,0.720018
272.8000,1.75427,252.309,0.729496
272.7000,-0.179828,253.304,0.741628
272.6000,-0.400169,252.138,0.727406
272.5000,4.07992,253.09,0.73902
272.4000,1.57435,253.871,0.748519
272.3000,1.55137,252.156,0.727627
272.2000,-0.510879,252.266,0.72897
272.1000,-0.319758,251.359,0.717867
272.0000,1.30677,252.708,0.734365
271.9000,0.395545,252.357,0.730077
271.8000,0.169131,251.224,0.716214
271.7000,-1.2513,252.213,0.72832
271.6000,-1.08523,252.523,0.732111
271.5000,3.11887,252.537,0.732277
271.4000,0.621829,252.333,0.729787
271.3000,2.43669,251.53,0.719962
271.2000,2.23205,252.733,0.734669
271.1000,1.1028,251.189,0.715783
271.0000,-2.17091,252.121,0.727198
270.9000,-0.434892,252.163,0.72771
270.8000,-1.04477,252.012,0.725868
270.7000,1.62813,252.979,0.737667
270.6000,3.66365,252.939,0.737183
270.5000,-2.48349,252.289,0.729247
270.4000,0.00767801,251.908,0.724594
270.3000,2.0306,252.575,0.732747
270.2000,1.6258,252.931,0.737086
270.1000,-1.84812,252.122,0.727212
270.0000,0.197654,252.992,0.737832
269.9000,0.480557,252.509,0.731931
269.8000,-0.574605,252.786,0.735318
269.7000,2.49585,253.081,0.738909
269.6000,0.657178,252.648,0.733632
269.5000,1.57092,252.936,0.737142
269.4000,2.68097,252.606,0.73312
269.3000,2.98838,252.502,0.731848
269.2000,3.7276,252.787,0.735332
269.1000,2.52689,252.096,0.726893
269.0000,0.273227,253.091,0.739034
268.9000,3.7898,251.102,0.714728
268.8000,0.836982,252.849,0.736078
268.7000,2.72603,253.534,0.744427
268.6000,-1.12984,252.663,0.733812
268.5000,-0.181768,252.971,0.73757
268.4000,0.0883668,253.084,0.73895
268.3000,2.39176,252.228,0.7285
268.2000,1.29768,252.192,0.72807
268.1000,-0.24807,252.449,0.731198
268.0000,3.17461,251.91,0.724621
267.9000,-0.196647,251.817,0.723485
267.8000,-2.35919,252.107,0.727032
267.7000,1.55633,253.088,0.738992
267.6000,0.390892,252.079,0.726686
267.5000,-1.72435,252.817,0.735691
267.4000,0.53984,252.647,0.733618
267.3000,-0.508795,252.822,0.73576
267.2000,1.06049,254.033,0.750487
267.1000,-0.915353,252.564,0.732609
267.0000,-1.57994,252.996,0.737874
266.9000,-0.286131,252.406,0.730673
266.8000,2.31439,251.372,0.718033
266.7000,-0.746199,251.76,0.722778
266.6000,-1.70028,252.519,0.732056
266.5000,2.10937,252.963,0.737473
266.4000,0.446954,253.604,0.745282
266.3000,0.785556,252.566,0.732637
266.2000,0.756068,253.058,0.738633
266.1000,1.15064,252.401,0.730617
266.0000,2.69411,252.606,0.73312
265.9000,2.80142,252.938,0.73717
265.8000,2.20536,252.713,0.73442
265.7000,-0.821692,254.186,0.752345
265.6000,-0.885178,252.757,0.734959
265.5000,2.43556,252.92,0.736948
265.4000,0.166005,253.808,0.747761
265.3000,1.93129,253.149,0.739737
265.2000,0.743558,253.455,0.743462
265.1000,1.20264,253.174,0.740041
265.0000,2.0759,252.413,0.730769
264.9000,4.07087,252.471,0.731475
264.8000,1.87705,253.762,0.747197
264.7000,1.30595,252.851,0.736106
264.6000,-1.33136,252.835,0.735912
264.5000,0.215645,253.484,0.74382
264.4000,0.327438,253.238,0.740828
264.3000,-2.50073,253.726,0.746756
264.2000,1.90714,252.886,0.736534
264.1000,0.816687,253.38,0.742552
264.0000,-0.394635,253.335,0.742
263.9000,0.602813,252.901,0.736714
263.8000,3.43671,253.173,0.740027
263.7000,1.63179,253.045,0.738467
263.6000,2.83908,253.53,0.744372
263.5000,1.18476,253.941,0.749372
263.4000,-0.571667,252.42,0.730852
263.3000,-0.258121,253.661,0.74597
263.2000,0.339272,253.62,0.745474
263.1000,2.08296,253.375,0.742497
263.0000,-0.365918,252.37,0.730243
262.9000,0.526369,252.972,0.737584
262.8000,3.2508,253.56,0.744744
262.7000,-0.366231,253.889,0.748739
262.6000,0.456278,254.471,0.755809
262.5000,-0.305373,253.52,0.744262
262.4000,1.57329,255.395,0.766992
262.3000,1.22096,253.643,0.74575
262.2000,-3.06171,253.833,0.748064
262.1000,1.99002,252.775,0.73518
262.0000,2.00323,253.608,0.745323
261.9000,0.129975,253.607,0.745309
261.8000,-1.91872,253.847,0.74823
261.7000,-0.833691,254.414,0.755122
261.6000,-1.23507,253.454,0.743448
261.5000,-0.639068,253.354,0.742235
261.4000,-0.295248,252.932,0.7371
261.3000,1.17825,253.446,0.743352
261.2000,-0.257664,254.343,0.754256
261.1000,-0.902156,254.065,0.750886
261.0000,1.89038,253.799,0.747651
260.9000,5.10714,253.982,0.749868
260.8000,-0.152891,253.765,0.747238
260.7000,1.36294,253.764,0.747224
260.6000,1.11244,254.498,0.756139
260.5000,4.54139,253.418,0.743021
260.4000,-0.752,253.849,0.748257
260.3000,2.60336,254.623,0.75765
260.2000,-1.98625,254.208,0.75262
260.1000,0.125296,253.706,0.746522
260.0000,2.33834,253.604,0.745282
259.9000,0.683158,254.44,0.755438
259.8000,3.07944,254.297,0.753692
259.7000,-0.772445,253.434,0.743214
259.6000,1.6916,255.036,0.76266
259.5000,4.26028,255.138,0.763895
259.4000,-0.590767,254.136,0.751739
259.3000,1.3169,254.531,0.756538
259.2000,-0.615814,254.09,0.751189
259.1000,-1.0411,253.403,0.742828
259.0000,1.16155,254.144,0.751836
258.9000,0.98888,254.763,0.759353
258.8000,0.188864,253.97,0.74973
258.7000,0.633497,254.687,0.758433
258.6000,-1.59744,253.08,0.738895
258.5000,-0.75959,255.072,0.763086
258.4000,0.823011,255.022,0.762482
258.3000,2.21287,254.116,0.751506
258.2000,-0.120172,254.451,0.755562
258.1000,0.652925,255.753,0.771319
258.0000,0.575169,254.375,0.754641
257.9000,-2.06948,253.968,0.749703
257.8000,-1.59551,254.726,0.7589
257.7000,4.02739,254.454,0.755603
257.6000,2.06933,254.439,0.755425
257.5000,0.710251,254.727,0.758914
257.4000,-0.815247,254.629,0.757719
257.3000,-0.559514,255.194,0.764567
257.2000,3.64081,254.379,0.754696
257.1000,-2.20964,254.549,0.756757
257.0000,2.53694,254.439,0.755425
256.9000,1.66498,255.745,0.771224
256.8000,0.65953,254.322,0.753995
256.7000,1.90635,254.932,0.761398
256.6000,-1.50813,254.704,0.758639
256.5000,1.58514,254.796,0.759751
256.4000,-0.0549724,255.544,0.768801
256.3000,0.0122369,255.182,0.764416
256.2000,3.81524,253.995,0.750033
256.1000,-0.356056,255.152,0.764059
256.0000,0.738404,254.935,0.761426
255.9000,2.50547,255.123,0.763703
255.8000,1.82624,255.545,0.768814
255.7000,2.16599,255.439,0.767527
255.6000,4.71513,256.158,0.776216
255.5000,-0.0972906,256.004,0.774356
255.4000,-0.884352,255.4,0.767061
255.3000,-0.967869,256.402,0.779153
255.2000,1.71579,256.141,0.776011
255.1000,1.96901,255.413,0.767212
255.0000,5.13378,254.904,0.761055
254.9000,-1.16833,253.901,0.748891
254.8000,3.13506,254.215,0.752702
254.7000,0.981494,255.831,0.772264
254.6000,0.212166,256.063,0.775067
254.5000,1.82336,256.079,0.775259
254.4000,-0.0396423,256.604,0.781583
254.3000,-1.58666,255.049,0.762811
254.2000,2.52325,255.746,0.771237
254.1000,-1.07721,255.808,0.77199
254.0000,-0.809827,255.478,0.768006
253.9000,-0.68994,256.312,0.778074
253.8000,5.03737,256.309,0.778033
253.7000,1.23705,255.051,0.762839
253.6000,4.65923,256.984,0.786166
253.5000,2.67382,254.738,0.759051
253.4000,0.248834,256.717,0.782948
253.3000,4.16489,255.588,0.769334
253.2000,3.09885,254.851,0.76041
253.1000,3.18481,255.758,0.771388
253.0000,-1.0714,256.105,0.775573
252.9000,1.77421,255.992,0.774206
252.8000,1.86951,256.889,0.785021
252.7000,3.04966,255.846,0.772442
252.6000,-0.327376,255.423,0.767335
252.5000,-3.77886,256.72,0.782988
252.4000,1.77073,257.209,0.788863
252.3000,3.12565,256.148,0.776092
252.2000,-0.124738,255.646,0.770033
252.1000,0.943451,256.006,0.774384
252.0000,-1.65045,256.547,0.780901
251.9000,-0.468721,256.887,0.784993
251.8000,1.25361,256.814,0.784121
251.7000,0.714794,256.524,0.780628
251.6000,1.07418,256.669,0.782374
251.5000,-1.12943,255.489,0.76813
251.4000,2.92744,255.691,0.77058
251.3000,-0.0509889,256.77,0.783589
251.2000,1.64609,255.849,0.772482
251.1000,-1.20002,256.498,0.780313
251.0000,0.632855,255.63,0.769841
250.9000,0.940843,256.533,0.780737
250.8000,-0.144536,257.458,0.791859
250.7000,-0.455943,256.852,0.78457
250.6000,3.83151,255.889,0.772961
250.5000,1.16716,256.355,0.778593
250.4000,3.91014,256.065,0.775095
250.3000,-0.907352,256.88,0.784911
250.2000,0.704566,256.312,0.778074
250.1000,1.27165,257.023,0.786629
250.0000,1.505,256.683,0.782538
249.9000,-0.579924,255.75,0.771292
249.8000,-1.88537,256.56,0.781064
249.7000,2.02815,255.853,0.772537
249.6000,1.22836,256.04,0.774794
249.5000,0.288509,256.494,0.780259
249.4000,2.65827,257.447,0.791723
249.3000,0.523677,256.779,0.783698
249.2000,0.551058,256.574,0.781228
249.1000,3.06633,256.745,0.783289
249.0000,-1.91886,257.118,0.787774
248.9000,0.867835,256.855,0.784611
248.8000,-0.760613,256.221,0.776967
248.7000,0.983662,256.38,0.778893
248.6000,1.0771,256.231,0.77709
248.5000,2.1369,256.464,0.779904
248.4000,0.427598,256.353,0.778565
248.3000,4.96405,256.864,0.784721
248.2000,0.300874,256.149,0.776106
248.1000,0.105045,256.875,0.784857
248.0000,-1.45675,256.485,0.78015
247.9000,-0.289631,257.104,0.78761
247.8000,3.01164,257.46,0.791886
247.7000,2.26022,256.716,0.782934
247.6000,0.132612,253.895,0.748822
247.5000,-0.316387,256.783,0.783739
247.4000,0.689589,256.491,0.780232
247.3000,0.925833,257.024,0.786643
247.2000,0.407226,255.589,0.769348
247.1000,-0.109379,256.438,0.77959
247.0000,0.101922,256.564,0.781105
246.9000,0.649638,257.12,0.787801
246.8000,3.34913,256.649,0.782129
246.7000,0.320432,255.867,0.772702
246.6000,-3.79914,256.811,0.78408
246.5000,2.74176,256.622,0.781801
246.4000,2.70801,256.102,0.775532
246.3000,0.00685867,257.652,0.794186
246.2000,-1.58428,256.588,0.781392
246.1000,-1.22297,257.033,0.786752
246.0000,-0.0163508,257.398,0.791138
245.9000,-0.555463,256.437,0.779576
245.8000,1.98308,255.502,0.768294
245.7000,-2.57203,257.392,0.79107
245.6000,-0.217446,256.922,0.785416
245.5000,0.286202,257.666,0.794362
245.4000,-0.872763,257.226,0.789068
245.3000,1.9933,257.343,0.790484
245.2000,3.21203,256.227,0.777049
245.1000,3.79809,256.677,0.78247
245.0000,-0.273895,256.979,0.786098
244.9000,-1.50287,256.684,0.782552
244.8000,1.58409,256.196,0.776667
244.7000,-0.301806,256.577,0.781269
244.6000,-0.0939631,257.016,0.786547
244.5000,0.333484,257.476,0.792077
244.4000,0.321655,257.354,0.790607
244.3000,2.60293,257.366,0.790756
244.2000,0.771617,257.405,0.791219
244.1000,1.29159,257.95,0.797761
244.0000,3.17711,256.296,0.777882
243.9000,1.42038,258.584,0.805363
243.8000,3.36575,257.284,0.789776
243.7000,-0.631692,256.37,0.77877
243.6000,-1.92922,256.243,0.77724
243.5000,-1.92256,255.898,0.773071
243.4000,4.96132,256.843,0.784461
243.3000,3.03299,257.016,0.786547
243.2000,-0.246241,256.309,0.778033
243.1000,4.35476,258.171,0.80041
243.0000,2.23623,258.103,0.799595
242.9000,1.03798,257.738,0.795219
242.8000,4.7292,258.145,0.800098
242.7000,0.644905,257.673,0.794444
242.6000,-1.07728,257.576,0.793274
242.5000,4.02039,257.904,0.797217
242.4000,-1.81887,256.514,0.780505
242.3000,-0.715611,257.691,0.794662
242.2000,0.461025,257.209,0.788863
242.1000,2.61382,257.477,0.79209
242.0000,1.48174,257.368,0.790784
241.9000,-0.163766,257.351,0.79058
241.8000,2.57274,256.787,0.783793
241.7000,-1.86817,258.135,0.799989
241.6000,0.71851,257.447,0.791723
241.5000,0.327128,257.824,0.796252
241.4000,2.41423,257.791,0.795858
241.3000,4.245,258.395,0.803098
241.2000,-1.85454,258.987,0.810187
241.1000,3.06402,256.461,0.779863
241.0000,-0.989343,258.589,0.805417
240.9000,0.923007,257.245,0.789299
240.8000,4.01473,257.418,0.791383
240.7000,1.85889,257.708,0.794866
240.6000,1.15032,257.827,0.796293
240.5000,2.83512,257.649,0.794158
240.4000,0.194427,258.609,0.805661
240.3000,1.16521,258.149,0.800152
240.2000,-2.13014,258.429,0.803505
240.1000,2.55474,257.755,0.795423
240.0000,1.17482,258.382,0.802948
239.9000,0.742228,257.725,0.79507
239.8000,2.74113,258.498,0.804332
239.7000,-1.28825,256.883,0.784952
239.6000,-1.23742,258.406,0.803233
239.5000,1.19174,258.683,0.806543
239.4000,2.2588,258.495,0.804291
239.3000,0.0824461,258.3,0.801958
239.2000,2.90066,257.89,0.797041
239.1000,1.63183,258.513,0.804509
239.0000,2.46319,259.195,0.812665
238.9000,2.27825,259.636,0.817926
238.8000,-1.94181,258.321,0.802216
238.7000,-1.08641,259.566,0.817102
238.6000,1.0216,259.087,0.811379
238.5000,-2.16869,259.443,0.815628
238.4000,1.32031,259.245,0.813261
238.3000,2.59902,259.026,0.810648
238.2000,0.322832,259.153,0.812164
238.1000,2.90627,259.478,0.816047
238.0000,1.76491,258.324,0.802243
237.9000,0.958806,258.88,0.808901
237.8000,1.25611,259.291,0.813815
237.7000,1.40462,259.619,0.817724
237.6000,2.22607,258.973,0.810011
237.5000,0.0606196,258.952,0.809768
237.4000,0.928216,260.116,0.823652
237.3000,2.02987,260.49,0.828103
237.2000,1.01972,259.583,0.817305
237.1000,1.46278,259.74,0.819169
237.0000,-1.80596,259.161,0.812259
236.9000,0.515762,259.815,0.820061
236.8000,1.63259,259.514,0.81648
236.7000,2.54329,259.518,0.81652
236.6000,2.04525,260.319,0.826067
236.5000,3.86502,259.683,0.818494
236.4000,0.0148786,259.951,0.821681
236.3000,0.257785,260.233,0.825042
236.2000,1.85238,260.005,0.82233
236.1000,0.773036,259.57,0.817142
236.0000,0.598431,260.269,0.825474
235.9000,3.13997,259.752,0.819318
235.8000,1.32259,260.185,0.824475
235.7000,3.25093,260.357,0.826526
235.6000,3.08447,259.855,0.820547
235.5000,-0.825933,260.829,0.832131
235.4000,1.61258,260.058,0.822964
235.3000,0.308469,260.277,0.825568
235.2000,2.21043,260.093,0.823383
235.1000,2.56972,259.929,0.821425
235.0000,-1.22964,260.803,0.831821
234.9000,3.07992,260.468,0.827847
234.8000,1.54513,261.273,0.837405
234.7000,0.728812,260.868,0.832602
234.6000,0.809392,260.897,0.832938
234.5000,1.4941,261.618,0.841504
234.4000,1.81714,261.617,0.84149
234.3000,1.12743,261.941,0.845329
234.2000,2.88388,261.3,0.837728
234.1000,1.22599,260.999,0.83415
234.0000,0.182621,261.137,0.835791
233.9000,3.64548,261.791,0.843544
233.8000,-0.920418,261.242,0.837042
233.7000,-0.647441,261.527,0.840416
233.6000,1.42321,261.725,0.842766
233.5000,1.12965,261.66,0.842
233.4000,0.627894,261.637,0.841718
233.3000,4.16264,261.614,0.84145
233.2000,0.174742,262.43,0.851107
233.1000,2.99344,262.026,0.846335
233.0000,3.88774,262.111,0.847341
232.9000,3.10743,261.854,0.844296
232.8000,1.04847,262.177,0.848119
232.7000,0.108826,262.517,0.852138
232.6000,-0.629689,263.358,0.862062
232.5000,0.926034,261.833,0.844041
232.4000,-1.00914,262.159,0.847904
232.3000,2.74224,262.046,0.846563
232.2000,0.678373,262.667,0.853906
232.1000,-1.99411,261.58,0.841047
232.0000,-0.862447,262.631,0.853491
231.9000,-0.167413,262.217,0.848588
231.8000,-1.86391,263.054,0.858481
231.7000,-0.39958,262.427,0.851081
231.6000,3.14227,263.618,0.865133
231.5000,2.52884,263.664,0.865667
231.4000,-0.76993,263.266,0.86098
231.3000,-1.20543,263.275,0.861087
231.2000,3.44814,262.543,0.852447
231.1000,-0.00957438,263.704,0.866147
231.0000,0.348134,263.406,0.862637
230.9000,0.319723,262.69,0.854187
230.8000,4.78065,264.478,0.875249
230.7000,0.0725373,264.421,0.87457
230.6000,-2.86039,263.598,0.864893
230.5000,0.4204,262.608,0.85321
230.4000,3.59198,263.92,0.868681
230.3000,-0.940751,262.892,0.856569
230.2000,-0.458816,263.07,0.858668
230.1000,3.75638,262.704,0.854348
230.0000,2.93828,264.15,0.871387
229.9000,-1.65648,263.05,0.858427
229.8000,1.35376,263.34,0.861849
229.7000,2.54482,263.461,0.863278
229.6000,0.160028,262.933,0.85705
229.5000,4.44068,263.111,0.859149
229.4000,2.43095,263.099,0.859016
229.3000,-1.76063,263.199,0.860192
229.2000,0.359254,264.214,0.872146
229.1000,1.6659,263.917,0.868655
229.0000,-0.778359,263.785,0.867094
228.9000,-1.48296,264.234,0.872373
228.8000,-2.26422,264.961,0.880915
228.7000,-0.00365374,265.062,0.882097
228.6000,0.420314,264.932,0.880569
228.5000,1.6211,264.15,0.871387
228.4000,0.407635,265.049,0.881951
228.3000,-0.148339,264.987,0.88122
228.2000,1.5307,264.894,0.88013
228.1000,6.36633,264.97,0.881021
228.0000,3.57926,265.642,0.888893
227.9000,3.67314,264.169,0.871614
227.8000,5.67835,264.51,0.875621
227.7000,3.54427,265.645,0.888933
227.6000,0.865583,266.333,0.896974
227.5000,0.609764,265.811,0.890868
227.4000,3.23742,267.297,0.908218
227.3000,-0.361788,266.207,0.895505
227.2000,2.21514,265.567,0.888018
227.1000,2.69947,266.35,0.897172
227.0000,2.59596,266.495,0.898866
226.9000,3.08604,267.624,0.912016
226.8000,-0.38884,265.261,0.884435
226.7000,5.73307,266.75,0.90184
226.6000,0.256262,266.383,0.897556
226.5000,0.581222,266.492,0.898826
226.4000,-1.28255,265.861,0.891452
226.3000,-0.979807,266.603,0.900122
226.2000,0.400498,266.934,0.90398
226.1000,2.62292,265.941,0.892392
226.0000,1.84812,266.588,0.89995
225.9000,0.746393,267.505,0.910631
225.8000,-1.76745,266.458,0.898429
225.7000,0.925455,267.176,0.906806
225.6000,1.86832,267.345,0.908772
225.5000,0.950331,266.84,0.902884
225.4000,6.16123,267.536,0.911
225.3000,2.95412,268.527,0.922505
225.2000,1.04292,266.61,0.900201
225.1000,0.34882,267.718,0.913109
225.0000,-2.15837,268.004,0.916441
224.9000,1.41719,268.279,0.919626
224.8000,0.79388,268.382,0.920823
224.7000,0.803478,269.098,0.929123
224.6000,-2.30132,268.898,0.926814
224.5000,0.170672,267.936,0.915651
224.4000,1.58172,268.444,0.921546
224.3000,-2.11613,267.352,0.908851
224.2000,-0.505417,268.112,0.917692
224.1000,1.38815,269.331,0.931825
224.0000,4.6093,269.181,0.930081
223.9000,1.2316,268.331,0.920231
223.8000,3.02163,268.87,0.926485
223.7000,2.24671,269.761,0.936791
223.6000,3.24803,268.955,0.92747
223.5000,1.6752,269.082,0.92894
223.4000,3.99678,269.242,0.930789
223.3000,0.615042,269.646,0.935468
223.2000,3.74502,269.57,0.93459
223.1000,2.21543,268.784,0.925488
223.0000,-0.0140642,269.183,0.930107
222.9000,0.579941,269.579,0.934695
222.8000,5.1881,269.949,0.938963
222.7000,1.13292,270.166,0.941475
222.6000,1.80541,269.733,0.936476
222.5000,0.387512,269.941,0.938872
222.4000,4.82769,270.286,0.942861
222.3000,-0.614957,269.439,0.93307
222.2000,2.22125,270.107,0.940795
222.1000,0.377191,269.838,0.937681
222.0000,4.13707,270.175,0.94158
221.9000,0.758484,269.933,0.93878
221.8000,3.34085,270.399,0.944155
221.7000,0.0312036,270.224,0.942142
221.6000,-0.468514,270.387,0.944024
221.5000,5.50805,270.514,0.945487
221.4000,3.36052,270.587,0.946323
221.3000,-0.213015,270.528,0.945644
221.2000,2.45976,270.85,0.949352
221.1000,-0.0547626,270.716,0.947812
221.0000,0.0944812,270.311,0.943148
220.9000,4.25081,270.4,0.944168
220.8000,-0.80123,270.661,0.947185
220.7000,2.44615,270.24,0.942325
220.6000,0.398077,270.909,0.950031
220.5000,2.23515,270.89,0.949822
220.4000,2.81607,270.809,0.948882
220.3000,-4.92316,270.821,0.949026
220.2000,0.975881,271.416,0.955871
220.1000,2.09871,271.778,0.960024
220.0000,-3.42479,271.134,0.952626
219.9000,3.88961,271.09,0.952117
219.8000,2.51118,270.926,0.950226
219.7000,1.58025,270.668,0.947263
219.6000,0.386798,271.601,0.957994
219.5000,1.80441,271.409,0.955793
219.4000,0.267637,271.365,0.955285
219.3000,3.44844,271.356,0.955181
219.2000,0.806454,271.882,0.961221
219.1000,-1.09136,271.727,0.959439
219.0000,-0.00936606,271.875,0.961143
218.9000,1.81555,271.491,0.95673
218.8000,2.14378,271.891,0.961325
218.7000,2.55292,272.172,0.96455
218.6000,0.350358,272.221,0.965108
218.5000,2.05319,272.703,0.97064
218.4000,3.44006,272.573,0.969148
218.3000,-5.1207,272.062,0.963289
218.2000,0.573472,271.839,0.960727
218.1000,-0.0650202,271.295,0.954477
218.0000,0.845553,272.062,0.963289
217.9000,3.66732,271.897,0.96139
217.8000,3.03627,272.31,0.966135
217.7000,-2.55511,271.758,0.959803
217.6000,2.73996,272.564,0.969044
217.5000,3.56515,272.737,0.971029
217.4000,7.02706,272.44,0.967629
217.3000,-2.13646,272.6,0.969459
217.2000,3.46667,272.717,0.970796
217.1000,3.07804,273.197,0.976293
217.0000,3.49166,272.784,0.971561
216.9000,0.519327,272.635,0.969861
216.8000,-0.82219,273.431,0.978961
216.7000,4.39009,273.391,0.978508
216.6000,4.71901,273.53,0.9801
216.5000,3.64221,273.017,0.974233
216.4000,2.68069,273.175,0.976034
216.3000,2.85119,273.835,0.98358
216.2000,5.06739,272.706,0.970666
216.1000,0.670379,273.244,0.976824
216.0000,-1.23772,274.041,0.985933
215.9000,4.36768,273.835,0.98358
215.8000,-0.670798,273.994,0.98539
215.7000,1.33958,274.218,0.987949
215.6000,2.83894,274.348,0.989434
215.5000,-1.04801,274.053,0.986062
215.4000,4.3649,274.712,0.993576
215.3000,-1.38423,273.576,0.980618
215.2000,2.12929,273.955,0.984951
215.1000,1.79123,274.168,0.98738
215.0000,0.00253475,273.986,0.9853
214.9000,1.1201,274.378,0.989769
214.8000,2.97579,274,0.985455
214.7000,3.62707,274.19,0.987626
214.6000,0.893868,273.87,0.983981
214.5000,2.91439,274.912,0.995845
214.4000,1.387,273.953,0.984925
214.3000,-0.0773044,274.364,0.989614
214.2000,4.66518,273.466,0.979363
214.1000,-0.903379,274.385,0.989847
214.0000,-0.688777,274.353,0.989485
213.9000,0.587592,273.947,0.98486
213.8000,2.44581,275.31,1.00038
213.7000,-2.33964,274.37,0.989679
213.6000,-1.33054,275.657,1.00432
213.5000,-0.948123,274.775,0.994285
213.4000,5.80917,274.958,0.996373
213.3000,-1.33459,275.493,1.00245
213.2000,-1.01826,275.111,0.998112
213.1000,0.340126,274.61,0.992415
213.0000,-2.18775,275.214,0.999285
212.9000,1.90334,274.828,0.994891
212.8000,-1.06936,275.352,1.00086
212.7000,0.833669,274.735,0.993834
212.6000,5.31164,275.938,1.0075
212.5000,3.47518,275.327,1.00057
212.4000,5.84343,277.197,1.02175
212.3000,-1.57156,276.769,1.01691
212.2000,0.339219,274.309,0.988982
212.1000,1.27685,275.615,1.00384
212.0000,6.55836,275.807,1.00601
211.9000,2.13148,277.157,1.0213
211.8000,3.93287,276.172,1.01015
211.7000,4.1948,276.281,1.0114
211.6000,2.77082,276.891,1.01829
211.5000,5.18029,276.678,1.01589
211.4000,1.44724,274.745,0.99395
211.3000,-0.601507,277.541,1.02564
211.2000,1.90204,275.814,1.00609
211.1000,2.06668,276.59,1.01488
211.0000,0.375613,276.123,1.0096
210.9000,0.391182,276.521,1.0141
210.8000,-0.231246,275.885,1.0069
210.7000,1.6579,276.696,1.01609
210.6000,-0.0443775,276.981,1.01931
210.5000,5.41055,277.528,1.02549
210.4000,1.81499,277.809,1.02866
210.3000,0.0363949,277.419,1.02426
210.2000,2.72817,277.692,1.02734
210.1000,0.0340831,277.135,1.02105
210.0000,2.01378,276.572,1.01468
209.9000,3.48358,277.709,1.02753
209.8000,2.86557,277.494,1.0251
209.7000,3.3442,277.822,1.02881
209.6000,0.367326,277.357,1.02356
209.5000,0.872929,278.449,1.03587
209.4000,2.76964,279.171,1.04399
209.3000,1.4666,278.04,1.03126
209.2000,2.43332,278.876,1.04068
209.1000,3.90674,277.879,1.02945
209.0000,0.612205,278.187,1.03292
208.9000,2.33973,277.978,1.03056
208.8000,0.0346233,278.611,1.03769
208.7000,-3.31985,279.574,1.04851
208.6000,-0.826853,278.939,1.04138
208.5000,0.259837,277.631,1.02665
208.4000,-2.14069,279.283,1.04524
208.3000,1.17133,279.305,1.04549
208.2000,2.6946,278.874,1.04065
208.1000,-0.368165,277.46,1.02472
208.0000,3.38278,278.365,1.03493
207.9000,2.44393,279.763,1.05063
207.8000,-1.58641,279.047,1.0426
207.7000,2.5465,279.44,1.04701
207.6000,-2.08377,280.067,1.05404
207.5000,0.907258,280.114,1.05456
207.4000,0.40322,280.938,1.06378
207.3000,5.65444,281.313,1.06797
207.2000,2.16853,279.938,1.05259
207.1000,2.76888,280.315,1.05682
207.0000,0.0908745,280.093,1.05433
206.9000,1.65012,281.109,1.0657
206.8000,0.573453,280.721,1.06135
206.7000,-0.933128,281.453,1.06953
206.6000,2.21785,279.818,1.05124
206.5000,5.40442,281.847,1.07392
206.4000,0.576163,280.861,1.06292
206.3000,1.49822,280.206,1.0556
206.2000,4.09975,281.741,1.07274
206.1000,5.51742,281.57,1.07083
206.0000,2.16814,282.937,1.08605
205.9000,0.158788,280.896,1.06332
205.8000,-1.25132,280.627,1.0603
205.7000,1.86179,281.789,1.07328
205.6000,2.96533,280.677,1.06086
205.5000,2.31691,281.286,1.06767
205.4000,2.69835,283.228,1.08928
205.3000,-1.30041,281.011,1.06459
205.2000,2.85446,282.769,1.08419
205.1000,1.57834,282.333,1.07934
205.0000,-1.83163,283.251,1.08953
204.9000,2.08193,282.322,1.07921
204.8000,-0.0735556,283.116,1.08804
204.7000,3.93918,283.658,1.09404
204.6000,1.34347,283.684,1.09433
204.5000,1.95301,283.079,1.08762
204.4000,3.225,283.719,1.09472
204.3000,2.90295,283.806,1.09569
204.2000,4.59105,283.973,1.09753
204.1000,5.78765,284.603,1.1045
204.0000,-1.40749,284.545,1.10386
203.9000,2.1509,284.25,1.10061
203.8000,5.72572,283.798,1.0956
203.7000,1.35205,284.284,1.10098
203.6000,1.30967,283.891,1.09663
203.5000,6.25855,283.729,1.09484
203.4000,2.40921,285.007,1.10897
203.3000,1.71685,285.942,1.11928
203.2000,5.27964,285.762,1.11729
203.1000,3.79098,283.174,1.08868
203.0000,3.3111,284.875,1.10751
202.9000,2.24716,286.349,1.12375
202.8000,-2.61188,285.59,1.11539
202.7000,-1.54059,285.458,1.11395
202.6000,3.09688,285.938,1.11923
202.5000,2.86289,285.736,1.117
202.4000,4.22776,287.631,1.13783
202.3000,1.77066,286.458,1.12495
202.2000,0.481962,287.27,1.13387
202.1000,2.78491,287.815,1.13984
202.0000,8.25504,287.937,1.14118
201.9000,-0.688017,287.335,1.13458
201.8000,-0.853471,287.252,1.13367
201.7000,-0.289731,287.932,1.14112
201.6000,8.70401,287.954,1.14137
201.5000,0.572715,287.993,1.14179
201.4000,-1.96627,288.599,1.14842
201.3000,0.941554,288.746,1.15002
201.2000,3.13156,288.699,1.1495
201.1000,3.64692,288.546,1.14783
201.0000,2.9607,288.931,1.15204
200.9000,-0.803427,288.813,1.15075
200.8000,3.03903,289.187,1.15483
200.7000,4.23648,288.825,1.15088
200.6000,-0.821368,288.882,1.15151
200.5000,-1.85776,289.882,1.1624
200.4000,1.2898,289.445,1.15765
200.3000,0.224644,290.169,1.16553
200.2000,2.26981,290.722,1.17154
200.1000,-4.43892,290.168,1.16552
200.0000,1.05541,290.283,1.16677
199.9000,-4.38362,291.056,1.17516
199.8000,1.05531,291.572,1.18076
199.7000,4.64864,290.258,1.16649
199.6000,3.38128,290.831,1.17272
199.5000,-0.4386,292.178,1.18732
199.4000,-0.325731,290.574,1.16993
199.3000,-0.586805,291.579,1.18083
199.2000,-0.575738,291.691,1.18205
199.1000,0.529955,292.2,1.18755
199.0000,1.43026,292.433,1.19007
198.9000,5.39585,291.852,1.18379
198.8000,2.89806,294.138,1.20844
198.7000,2.31479,292.215,1.18771
198.6000,0.320801,292.336,1.18902
198.5000,6.38529,291.969,1.18505
198.4000,-0.427812,294.872,1.21633
198.3000,4.49883,293.322,1.19966
198.2000,4.10945,293.239,1.19877
198.1000,0.672933,293.301,1.19944
198.0000,1.91525,293.469,1.20125
197.9000,5.75003,293.132,1.19762
197.8000,2.38569,292.164,1.18716
197.7000,1.60711,294.514,1.21249
197.6000,-2.66665,295.183,1.21967
197.5000,2.70416,295.034,1.21807
197.4000,-1.2287,294.833,1.21592
197.3000,0.172161,294.369,1.21093
197.2000,0.69939,294.241,1.20955
197.1000,2.23197,294.149,1.20857
197.0000,0.674371,294.712,1.21462
196.9000,3.75259,295.503,1.2231
196.8000,0.76794,294.999,1.21769
196.7000,1.77145,295.646,1.22463
196.6000,0.448379,295.004,1.21775
196.5000,3.29041,296.892,1.23795
196.4000,5.46186,298.167,1.25153
196.3000,2.26016,296.337,1.23202
196.2000,0.404397,296.804,1.23701
196.1000,4.33575,298.554,1.25564
196.0000,-1.89284,297.585,1.24534
195.9000,-5.09351,298.289,1.25283
195.8000,4.22376,297.721,1.24679
195.7000,-0.376112,297.76,1.2472
195.6000,-0.574763,297.625,1.24576
195.5000,1.02767,299.243,1.26295
195.4000,-0.192951,298.27,1.25262
195.3000,6.11605,300.129,1.27233
195.2000,4.85801,299.258,1.26311
195.1000,4.02644,299.381,1.26442
195.0000,0.376198,300.367,1.27485
194.9000,1.80995,300.439,1.2756
194.8000,-2.66249,300.844,1.27989
194.7000,1.45245,300.648,1.27782
194.6000,-3.9048,300.382,1.275
194.5000,2.24637,302.023,1.2923
194.4000,2.25078,301.523,1.28704
194.3000,3.84253,302.803,1.3005
194.2000,2.12662,302.875,1.30125
194.1000,3.45885,302.06,1.29269
194.0000,4.83979,303.875,1.31174
193.9000,1.71585,305.166,1.32522
193.8000,-4.10671,304.748,1.32086
193.7000,3.94035,305.082,1.32435
193.6000,1.65607,305.137,1.32493
193.5000,4.35672,306.303,1.33707
193.4000,0.920604,306.622,1.34037
193.3000,6.61884,306.971,1.344
193.2000,0.618666,307.371,1.34815
193.1000,1.90158,307.695,1.3515
193.0000,-2.09728,308.38,1.3586
192.9000,-0.684684,309.184,1.36689
192.8000,0.915712,309.155,1.3666
192.7000,-0.0388079,310.158,1.37693
192.6000,2.59629,310.646,1.38195
192.5000,6.7885,312.488,1.40082
192.4000,-1.30081,312.565,1.40161
192.3000,0.562016,313.397,1.41012
192.2000,1.39081,314.438,1.42071
192.1000,4.80607,315.397,1.43046
192.0000,3.29956,316.131,1.4379
191.9000,1.56295,316.101,1.43759
191.8000,-1.77642,317.184,1.44854
191.7000,-0.123856,317.619,1.45294
191.6000,3.64034,319.353,1.47038
191.5000,3.86911,318.614,1.46296
191.4000,-0.188763,320.881,1.4857
191.3000,-2.2794,321.336,1.49024
191.2000,0.174051,322.598,1.50283
191.1000,7.4481,322.524,1.50209
191.0000,2.71798,324.797,1.52466
190.9000,7.06738,327.007,1.54647
190.8000,2.09265,326.567,1.54214
190.7000,3.29314,328.811,1.56419
190.6000,0.437292,329.757,1.57345
190.5000,3.008,331.179,1.58732
190.4000,6.21065,333.359,1.6085
190.3000,10.6109,333.968,1.6144
190.2000,6.10024,335.225,1.62653
190.1000,1.20242,337.084,1.64442
190.0000,4.73369,337.725,1.65057

##### Extended Information
[Comments]
Sample name,buffer
Comment
User,ManningTrnkus
Division
Company,Saint Mary's College

[Detailed Information]
Creation date,9/27/2022 1:27 PM

Data array type,Linear data array * 3
Horizontal axis,Wavelength [nm]
Vertical axis(1),CD [mdeg]
Vertical axis(2),HT [V]
Vertical axis(3),Abs
Start,320 nm
End,190 nm
Data interval,0.1 nm
Data points,1301    

[Measurement Information]
Instrument name,J-1500
Model name,J-1500
Serial No.,B051061638

Detector,PM-539
Detector S/N,B051061638
  Lock-in amp.,X mode
  HT volt,Auto

Accessory,PTC-517
Accessory S/N,B026561646
  Temperature,21.87 C
  Control sensor,Holder
  Monitor sensor,Holder

Measurement date,9/27/2022 1:27 PM

CD Overload detect,1122
Photometric mode,CD, HT, Abs
Measure range,320 - 190 nm
Data pitch,0.1 nm
CD scale,20 mdeg/0.05 dOD
FL scale,20 mdeg/0.05 dOD
D.I.T.,8 msec
Bandwidth,1.00 nm
Start mode,Immediately
Scanning mode,Continuous
Scanning speed,50 nm/min
Baseline correction,None
Shutter control,Auto
No. of cycle,1/1
N2 Flowmeter,Manual

Solvent,NaPO4 buffer

