TITLE,C2_JH_CW
DATA TYPE,
ORIGIN,JASCO
OWNER,
DATE,22/09/27
TIME,15:40:13
SPECTROMETER/DATA SYSTEM,
LOCALE,1033
RESOLUTION,
DELTAX,-0.1
XUNITS,NANOMETERS
YUNITS,CD [mdeg]
Y2UNITS,HT [V]
Y3UNITS,ABSORBANCE
FIRSTX,  320.0000
LASTX,  190.0000
NPOINTS,    1301
FIRSTY,     0.05575
MAXY,    50.12200
MINY,   -70.20816
XYDATA
320.0000,0.0557483,206.739,0.126103
319.9000,2.23584,207.036,0.130375
319.8000,1.12265,206.567,0.123623
319.7000,0.425757,205.941,0.114584
319.6000,1.45501,206.293,0.11967
319.5000,0.718086,205.917,0.114241
319.4000,1.49404,206.635,0.124602
319.3000,0.600448,205.972,0.115043
319.2000,1.33427,206.225,0.11869
319.1000,-0.205462,206.238,0.118869
319.0000,1.02476,206.812,0.127147
318.9000,2.25627,206.837,0.127506
318.8000,1.79278,205.776,0.112211
318.7000,1.51335,206.137,0.117415
318.6000,-0.0993821,206.839,0.127539
318.5000,1.47443,206.347,0.120455
318.4000,2.63314,207.249,0.133437
318.3000,0.77086,206.334,0.120258
318.2000,1.75382,206.691,0.125402
318.1000,1.25725,206.155,0.117676
318.0000,-0.0683928,206.652,0.124847
317.9000,1.04714,206.479,0.122349
317.8000,2.09404,206.453,0.121974
317.7000,1.84724,206.724,0.125875
317.6000,2.20455,206.999,0.129837
317.5000,0.0506505,206.849,0.127685
317.4000,0.901313,207.032,0.13031
317.3000,0.463842,206.567,0.123623
317.2000,3.11277,206.746,0.126201
317.1000,0.859328,206.265,0.119262
317.0000,0.633249,206.191,0.118199
316.9000,0.599239,206.576,0.123753
316.8000,1.61443,205.981,0.115173
316.7000,1.40322,206.473,0.122268
316.6000,1.5452,206.673,0.125141
316.5000,0.198084,206.236,0.118853
316.4000,0.969671,207.061,0.130733
316.3000,0.105769,206.349,0.120471
316.2000,0.974839,206.959,0.129267
316.1000,1.84965,205.996,0.115386
316.0000,1.01954,205.953,0.114764
315.9000,0.926118,206.317,0.120013
315.8000,0.187335,205.795,0.112473
315.7000,1.68706,206.079,0.11658
315.6000,0.386887,205.618,0.109917
315.5000,0.24454,207.076,0.130945
315.4000,3.23125,205.919,0.114273
315.3000,2.01084,206.328,0.120177
315.2000,-0.899361,207.142,0.13189
315.1000,1.64599,206.419,0.121484
315.0000,1.55054,206.005,0.115517
314.9000,1.15003,205.912,0.114175
314.8000,0.277368,205.092,0.102306
314.7000,0.492422,206.066,0.1164
314.6000,0.214683,205.631,0.110114
314.5000,1.8503,206.529,0.123068
314.4000,-0.674267,206.661,0.124978
314.3000,2.88759,205.195,0.1038
314.2000,1.42439,206.04,0.116024
314.1000,0.449549,205.577,0.109327
314.0000,1.34318,206.721,0.125842
313.9000,1.82944,205.943,0.114617
313.8000,1.7323,206.409,0.121337
313.7000,1.26693,205.219,0.104145
313.6000,1.4428,206.485,0.122431
313.5000,1.73052,206.478,0.122333
313.4000,1.15803,206.111,0.117038
313.3000,2.01775,205.855,0.11334
313.2000,1.65193,206.279,0.119474
313.1000,2.47148,205.77,0.112112
313.0000,0.660185,206.089,0.116727
312.9000,-0.682807,205.788,0.112374
312.8000,1.67328,205.71,0.111244
312.7000,3.21595,205.657,0.110491
312.6000,1.62901,205.016,0.101206
312.5000,1.62706,205.608,0.10977
312.4000,2.6508,206.177,0.118003
312.3000,0.895167,205.111,0.102585
312.2000,2.10323,205.061,0.101863
312.1000,0.0509867,205.711,0.111261
312.0000,1.25413,206.012,0.115615
311.9000,1.15563,204.808,0.0981822
311.8000,1.08444,206.729,0.125956
311.7000,1.00311,205.425,0.107131
311.6000,0.441004,205.589,0.109508
311.5000,1.3064,206.156,0.117692
311.4000,0.55906,205.815,0.112767
311.3000,0.325731,206.001,0.115452
311.2000,2.70719,206.222,0.118641
311.1000,-0.080742,206.087,0.116695
311.0000,0.532169,205.67,0.110671
310.9000,1.03451,205.989,0.115288
310.8000,1.98187,206.115,0.117104
310.7000,1.2078,206.103,0.116924
310.6000,1.50547,205.918,0.114257
310.5000,0.292187,205.201,0.103882
310.4000,0.790513,205.213,0.104063
310.3000,1.15451,205.314,0.105523
310.2000,0.104812,206.304,0.119834
310.1000,2.16803,205.966,0.114944
310.0000,2.27459,206.239,0.118886
309.9000,2.35877,205.929,0.114421
309.8000,2.35543,205.681,0.110835
309.7000,0.258439,206.222,0.118641
309.6000,1.8571,205.528,0.108623
309.5000,0.839983,205.936,0.114519
309.4000,0.430787,206.181,0.118052
309.3000,1.69335,206.085,0.116662
309.2000,-0.215086,205.919,0.114273
309.1000,2.68261,206.861,0.127848
309.0000,0.692936,205.843,0.113177
308.9000,1.03711,205.033,0.101452
308.8000,1.04596,205.847,0.113226
308.7000,0.733615,206.415,0.121435
308.6000,1.78755,205.494,0.108131
308.5000,0.753439,207.068,0.130831
308.4000,1.27011,206.941,0.129006
308.3000,0.381248,206.013,0.115632
308.2000,1.18658,206.976,0.129511
308.1000,0.154809,205.193,0.103767
308.0000,1.85086,206.166,0.11784
307.9000,0.828012,206.012,0.115615
307.8000,1.70234,205.873,0.113602
307.7000,1.89918,205.295,0.105244
307.6000,2.04856,205.751,0.111851
307.5000,1.362,206.628,0.124504
307.4000,0.993998,206.724,0.125875
307.3000,2.03342,207.143,0.131906
307.2000,1.87806,206.377,0.120879
307.1000,0.476273,206.256,0.119131
307.0000,1.03559,205.083,0.102175
306.9000,2.37045,206.225,0.11869
306.8000,0.920525,204.955,0.100319
306.7000,-0.121718,205.336,0.105835
306.6000,1.96947,206.225,0.11869
306.5000,0.753162,204.555,0.0945142
306.4000,0.477508,205.289,0.105162
306.3000,1.29501,205.694,0.111015
306.2000,0.875937,205.691,0.110982
306.1000,2.45161,205.855,0.11334
306.0000,0.229776,206.475,0.1223
305.9000,1.8332,206.091,0.11676
305.8000,0.502755,205.365,0.106261
305.7000,2.39917,206.52,0.122937
305.6000,1.8039,205.235,0.104374
305.5000,1.89559,205.96,0.114862
305.4000,0.708302,206.187,0.118134
305.3000,0.91462,205.957,0.114814
305.2000,2.39465,206.304,0.119834
305.1000,1.61482,205.974,0.115059
305.0000,0.950206,206.323,0.120095
304.9000,0.849755,206.035,0.115943
304.8000,0.185304,206.211,0.118494
304.7000,0.909283,206.233,0.118804
304.6000,1.12147,205.135,0.10293
304.5000,0.994803,205.465,0.107705
304.4000,0.881957,205.85,0.113275
304.3000,0.936555,205.45,0.107491
304.2000,1.26021,205.75,0.111834
304.1000,0.763104,205.583,0.109409
304.0000,-0.209939,205.448,0.107459
303.9000,1.58258,205.851,0.113291
303.8000,1.21927,205.536,0.108737
303.7000,1.62034,206.183,0.118085
303.6000,1.24364,205.209,0.103997
303.5000,1.20151,205.237,0.104407
303.4000,2.11022,205.91,0.114143
303.3000,1.23394,205.302,0.105343
303.2000,0.742278,205.793,0.112456
303.1000,0.111038,205.327,0.105704
303.0000,1.57867,206.134,0.117382
302.9000,0.0367432,206.21,0.118477
302.8000,-0.282258,205.643,0.110278
302.7000,1.1851,205.397,0.106721
302.6000,0.240035,205.887,0.113815
302.5000,1.53302,205.545,0.108868
302.4000,1.09773,206.093,0.116777
302.3000,0.487519,205.455,0.107557
302.2000,1.13703,205.422,0.107081
302.1000,1.71343,206.162,0.117774
302.0000,1.01401,205.368,0.106311
301.9000,0.348876,205.472,0.107803
301.8000,-1.29715,205.644,0.110294
301.7000,1.79318,205.525,0.108574
301.6000,0.367291,205.762,0.111998
301.5000,-0.188725,206.011,0.115599
301.4000,-1.84409,205.83,0.11298
301.3000,0.126985,205.93,0.114437
301.2000,1.00206,205.296,0.105261
301.1000,-0.219073,205.38,0.106475
301.0000,0.23264,205.536,0.108737
300.9000,1.75439,205.729,0.111523
300.8000,1.95301,205.612,0.109835
300.7000,1.14934,206.028,0.115844
300.6000,1.7967,205.489,0.108049
300.5000,-0.364227,204.885,0.0993
300.4000,-0.281581,205.237,0.104407
300.3000,1.74937,204.726,0.0969985
300.2000,1.74257,205.959,0.114846
300.1000,0.941118,205.631,0.110114
300.0000,0.688571,205.932,0.114453
299.9000,3.472,205.11,0.102569
299.8000,0.737164,205.532,0.108672
299.7000,1.4331,204.922,0.0998421
299.6000,1.76131,205.87,0.11357
299.5000,-0.39044,205.564,0.109147
299.4000,2.4229,205.601,0.109672
299.3000,1.46396,205.864,0.113471
299.2000,0.192413,205.328,0.10572
299.1000,1.78495,205.057,0.101797
299.0000,1.95854,206.452,0.121957
298.9000,1.81508,205.541,0.108803
298.8000,2.27028,205.117,0.102668
298.7000,1.72455,205.568,0.109196
298.6000,0.394516,204.649,0.0958799
298.5000,2.09543,205.398,0.106737
298.4000,0.518273,205.767,0.11208
298.3000,2.14912,204.725,0.0969818
298.2000,-0.574115,205.021,0.101272
298.1000,0.147304,204.997,0.100926
298.0000,1.57481,205.099,0.102405
297.9000,0.312592,205.687,0.110917
297.8000,1.26759,205.025,0.101337
297.7000,1.70273,204.789,0.0979192
297.6000,0.804686,205.552,0.108967
297.5000,0.244293,204.224,0.089706
297.4000,1.22823,205.728,0.111506
297.3000,0.132874,205.433,0.107245
297.2000,2.75007,205.664,0.110589
297.1000,1.70738,204.771,0.0976562
297.0000,1.47484,205.308,0.105441
296.9000,1.92433,205.178,0.103554
296.8000,0.118238,205.569,0.109213
296.7000,1.19789,205.297,0.105277
296.6000,-0.748561,205.962,0.114895
296.5000,1.1132,205.876,0.113652
296.4000,1.6426,205.586,0.109458
296.3000,0.48444,205.027,0.10137
296.2000,2.63142,204.613,0.0953536
296.1000,-0.0871097,204.382,0.0919958
296.0000,1.8729,205.423,0.107098
295.9000,2.05667,205.984,0.115206
295.8000,1.05534,206.03,0.115877
295.7000,1.95686,205.265,0.104818
295.6000,1.25745,205.486,0.108016
295.5000,0.838719,205.188,0.103702
295.4000,0.954885,205.416,0.106999
295.3000,0.752019,206.004,0.115501
295.2000,1.10282,205.223,0.10421
295.1000,2.59542,204.686,0.0964229
295.0000,0.575958,205.234,0.104358
294.9000,0.403361,205.439,0.107327
294.8000,0.495335,205.8,0.112554
294.7000,1.8625,205.484,0.107983
294.6000,1.52108,203.551,0.0799047
294.5000,1.89948,206.323,0.120095
294.4000,1.09443,205.676,0.110753
294.3000,1.40296,204.821,0.0983793
294.2000,-0.807703,205.211,0.10403
294.1000,0.240186,204.058,0.087283
294.0000,2.40518,205.913,0.114192
293.9000,1.39044,204.998,0.100943
293.8000,1.05047,205.066,0.101929
293.7000,2.07153,205.145,0.103078
293.6000,0.355179,204.397,0.0922264
293.5000,2.20123,205.129,0.102848
293.4000,0.460609,205.244,0.104506
293.3000,2.63911,204.38,0.0919793
293.2000,0.333869,205.515,0.108426
293.1000,-0.37936,205.529,0.108639
293.0000,0.143083,205.379,0.106458
292.9000,1.83568,204.981,0.100697
292.8000,2.49983,204.64,0.0957482
292.7000,1.77878,205.291,0.105195
292.6000,0.590357,205.501,0.108229
292.5000,-0.95101,204.874,0.0991521
292.4000,0.0608234,205.089,0.102257
292.3000,1.26149,205.384,0.10654
292.2000,0.931333,205.657,0.110491
292.1000,1.1066,205.43,0.107196
292.0000,0.574435,204.855,0.0988725
291.9000,2.02671,205.174,0.103488
291.8000,0.913754,205.291,0.105195
291.7000,0.703465,204.285,0.0905957
291.6000,0.434442,205.327,0.105704
291.5000,1.47661,205.087,0.10224
291.4000,-0.420785,205.729,0.111523
291.3000,1.28589,205.047,0.101649
291.2000,0.942117,205.645,0.110311
291.1000,1.60262,205.264,0.104801
291.0000,1.38669,204.631,0.0956168
290.9000,2.19697,204.777,0.0977384
290.8000,0.632719,204.855,0.0988725
290.7000,2.25766,205.439,0.107327
290.6000,0.992515,205.128,0.102832
290.5000,1.73122,205.938,0.114552
290.4000,0.0854381,205.206,0.103964
290.3000,3.22274,204.992,0.100861
290.2000,1.43457,204.69,0.096472
290.1000,1.76481,205.07,0.101994
290.0000,0.0907139,205.311,0.105474
289.9000,1.56676,204.53,0.0941523
289.8000,1.28661,205.808,0.112669
289.7000,0.868841,206.094,0.116793
289.6000,0.206747,205.765,0.112047
289.5000,-1.25903,205.886,0.113799
289.4000,2.17964,204.934,0.100023
289.3000,2.07342,205.836,0.113079
289.2000,0.57394,206.196,0.118265
289.1000,-0.924209,205.221,0.104178
289.0000,1.57309,205.619,0.109934
288.9000,2.56632,206.573,0.123705
288.8000,1.13205,206.122,0.117202
288.7000,2.37049,205.96,0.114862
288.6000,1.65238,205.167,0.10339
288.5000,0.955482,205.674,0.110737
288.4000,0.849171,205.126,0.102799
288.3000,1.80397,205.763,0.112014
288.2000,-0.866997,204.904,0.0995793
288.1000,0.614541,205.564,0.109147
288.0000,1.37741,205.484,0.107983
287.9000,0.0300926,205.792,0.11244
287.8000,0.484674,206.099,0.116875
287.7000,0.699237,205.441,0.10736
287.6000,2.16787,205.997,0.115403
287.5000,1.82662,205.857,0.113373
287.4000,0.888262,205.368,0.106311
287.3000,1.23211,205.578,0.109344
287.2000,1.94672,204.863,0.0989877
287.1000,1.42261,205.996,0.115386
287.0000,-0.95572,206.121,0.117186
286.9000,2.13412,205.663,0.110573
286.8000,1.08271,205.237,0.104407
286.7000,1.64644,206.181,0.118052
286.6000,0.855113,206.005,0.115517
286.5000,1.36825,206.69,0.125385
286.4000,2.20356,206.593,0.123998
286.3000,2.318,205.578,0.109344
286.2000,1.59187,205.678,0.110786
286.1000,-0.751074,205.814,0.112751
286.0000,0.603929,205.476,0.107868
285.9000,1.54528,205.964,0.114928
285.8000,1.04048,206.368,0.120749
285.7000,0.777061,206.557,0.123476
285.6000,0.645988,207.092,0.131173
285.5000,0.16715,205.678,0.110786
285.4000,-0.0704523,206.47,0.122219
285.3000,0.813094,207.139,0.131857
285.2000,0.387356,206.565,0.12359
285.1000,-0.0524508,206.184,0.118101
285.0000,2.05352,206.431,0.121664
284.9000,0.697886,207.416,0.135829
284.8000,0.790006,205.073,0.102027
284.7000,0.253501,205.21,0.104013
284.6000,-0.0348814,206.387,0.121027
284.5000,1.18388,205.597,0.109622
284.4000,0.553428,205.91,0.114143
284.3000,-0.438813,205.161,0.103308
284.2000,0.22541,206.283,0.119523
284.1000,2.29758,206.43,0.121647
284.0000,1.39354,205.789,0.112391
283.9000,-0.83717,206.796,0.126919
283.8000,-0.0744412,205.559,0.109065
283.7000,1.93418,207.05,0.13057
283.6000,0.65286,205.064,0.101896
283.5000,1.56228,205.997,0.115403
283.4000,0.707745,205.201,0.103882
283.3000,1.43033,205.288,0.105146
283.2000,-0.573828,206.209,0.118461
283.1000,1.2867,206.191,0.118199
283.0000,2.59451,206.39,0.121075
282.9000,0.333679,205.629,0.110081
282.8000,-0.0442272,205.962,0.114895
282.7000,0.295017,206.427,0.121598
282.6000,1.46667,204.918,0.0997763
282.5000,0.236628,206.434,0.121696
282.4000,1.04648,206.018,0.115697
282.3000,2.01746,205.612,0.109835
282.2000,1.08994,207.185,0.132509
282.1000,1.51052,205.521,0.108524
282.0000,-0.13023,205.066,0.101929
281.9000,1.50675,205.354,0.106097
281.8000,1.34805,206.009,0.115566
281.7000,0.0731388,206.216,0.118559
281.6000,0.292782,205.798,0.112522
281.5000,1.46895,206.279,0.119474
281.4000,-0.101234,206.257,0.119147
281.3000,1.97168,206.401,0.121222
281.2000,0.865401,206.2,0.11833
281.1000,0.47815,205.934,0.114486
281.0000,-0.534319,206.298,0.119736
280.9000,2.48931,206.313,0.119965
280.8000,1.41156,206.338,0.120324
280.7000,1.73942,206.508,0.122774
280.6000,-0.661248,205.785,0.112342
280.5000,1.83888,206.677,0.125206
280.4000,-0.367819,206.15,0.117611
280.3000,1.26796,205.994,0.115353
280.2000,0.365097,206.701,0.125549
280.1000,1.09712,206.423,0.121549
280.0000,0.913937,206.208,0.118444
279.9000,0.853813,205.884,0.113766
279.8000,-0.500926,205.528,0.108623
279.7000,0.136461,205.998,0.115419
279.6000,2.90453,205.988,0.115272
279.5000,-0.0514758,206.165,0.117823
279.4000,0.622311,206.194,0.118248
279.3000,1.27762,206.504,0.122709
279.2000,0.110671,206.329,0.120193
279.1000,1.96661,205.889,0.113832
279.0000,1.12317,206.243,0.118951
278.9000,2.02575,206.256,0.119131
278.8000,1.28766,206.828,0.127376
278.7000,-0.987081,205.821,0.112849
278.6000,-0.0692381,205.934,0.114486
278.5000,0.0915856,206.615,0.124308
278.4000,0.0117031,206.192,0.118215
278.3000,2.38649,206.279,0.119474
278.2000,1.38885,206.284,0.11954
278.1000,-0.256538,206.191,0.118199
278.0000,0.350103,206.613,0.124276
277.9000,-0.149585,206.242,0.118935
277.8000,2.01325,206.19,0.118183
277.7000,2.10779,206.996,0.129788
277.6000,0.0890739,205.763,0.112014
277.5000,0.846567,206.23,0.118755
277.4000,0.525192,205.741,0.111703
277.3000,1.20939,206.532,0.123117
277.2000,0.311066,206.953,0.129169
277.1000,1.31609,206.827,0.127359
277.0000,0.81338,206.985,0.129641
276.9000,0.578147,206.197,0.118281
276.8000,0.0633436,206.584,0.123868
276.7000,0.0712793,206.244,0.118968
276.6000,1.10534,206.329,0.120193
276.5000,-1.42519,206.074,0.116515
276.4000,0.494399,206.225,0.11869
276.3000,0.374416,206.155,0.117676
276.2000,1.15771,206.849,0.127685
276.1000,1.75162,206.171,0.117905
276.0000,-0.212801,206.89,0.128272
275.9000,0.433179,206.151,0.117627
275.8000,0.319465,206.749,0.126234
275.7000,-2.77431,206.683,0.125288
275.6000,1.93697,206.385,0.120994
275.5000,1.85032,205.778,0.112227
275.4000,-0.126213,206.707,0.12563
275.3000,2.36937,206.327,0.12016
275.2000,1.25833,206.104,0.11694
275.1000,0.964538,206.38,0.120929
275.0000,1.03596,206.437,0.121745
274.9000,1.51022,206.463,0.122121
274.8000,-0.204669,206.107,0.116989
274.7000,0.146299,206.503,0.122692
274.6000,0.603368,206.373,0.12083
274.5000,1.22424,206.134,0.117382
274.4000,2.93298,206.974,0.129478
274.3000,1.11281,206.567,0.123623
274.2000,-0.562372,206.945,0.129055
274.1000,-0.0474124,206.511,0.122807
274.0000,0.077012,205.923,0.114323
273.9000,-0.554814,206.585,0.123884
273.8000,0.823345,206.894,0.128321
273.7000,0.341655,206.219,0.118608
273.6000,2.56085,206.503,0.122692
273.5000,0.446123,206.497,0.122611
273.4000,-0.792496,206.053,0.116204
273.3000,0.0688303,206.207,0.118428
273.2000,0.764205,206.082,0.116629
273.1000,0.414826,206.347,0.120455
273.0000,0.12968,206.703,0.125581
272.9000,-1.86702,206.994,0.129772
272.8000,-0.0698119,205.908,0.11411
272.7000,0.265455,206.75,0.12625
272.6000,2.10183,206.75,0.12625
272.5000,1.18873,205.77,0.112112
272.4000,0.682158,205.826,0.112931
272.3000,-0.334352,206.047,0.116122
272.2000,-1.12853,206.924,0.128762
272.1000,0.908238,206.068,0.116417
272.0000,1.7725,206.635,0.124602
271.9000,0.00155642,206.369,0.120765
271.8000,1.72944,206.551,0.123394
271.7000,0.915572,206.146,0.117545
271.6000,1.14332,206.72,0.125826
271.5000,0.0774814,205.864,0.113471
271.4000,1.2059,206.705,0.125614
271.3000,1.952,206.345,0.120422
271.2000,0.21373,206.1,0.116891
271.1000,0.67291,205.909,0.114126
271.0000,1.91277,206.449,0.121925
270.9000,0.915549,206.743,0.126152
270.8000,0.0647833,206.131,0.117333
270.7000,1.33175,206.735,0.126038
270.6000,0.936541,206.831,0.127424
270.5000,-0.127821,206.709,0.125663
270.4000,-0.278463,207.028,0.130261
270.3000,0.390633,206.933,0.128892
270.2000,1.04374,206.34,0.12034
270.1000,-0.701894,206.622,0.124406
270.0000,-0.364693,207.043,0.130473
269.9000,0.502176,206.517,0.122905
269.8000,-0.257263,207.082,0.131026
269.7000,0.607787,206.657,0.124912
269.6000,1.61822,206.285,0.119556
269.5000,0.246728,206.839,0.127539
269.4000,0.660054,207.062,0.13075
269.3000,1.18748,206.419,0.121484
269.2000,-0.0634294,206.906,0.1285
269.1000,-0.355341,207.152,0.132037
269.0000,-0.145285,207.018,0.130114
268.9000,-0.0418444,206.67,0.125108
268.8000,1.3774,206.841,0.127571
268.7000,2.33807,207.803,0.141389
268.6000,2.31092,207.405,0.135666
268.5000,0.348292,207.172,0.132329
268.4000,0.612839,207.528,0.137439
268.3000,0.392009,207.27,0.13373
268.2000,0.19365,207.652,0.139212
268.1000,1.3545,207.971,0.143792
268.0000,1.56347,207.161,0.132167
267.9000,0.929073,206.694,0.125451
267.8000,2.89228,206.841,0.127571
267.7000,1.68184,206.869,0.127963
267.6000,0.486326,207.007,0.129951
267.5000,0.65114,207.435,0.136106
267.4000,0.551117,207.674,0.139537
267.3000,-0.169455,207.386,0.135406
267.2000,1.61785,207.462,0.136496
267.1000,1.39987,207.057,0.130668
267.0000,-0.976233,207.695,0.139829
266.9000,-0.0754224,206.857,0.1278
266.8000,0.455627,207.135,0.131792
266.7000,2.05182,208.019,0.144474
266.6000,2.33106,207.994,0.144117
266.5000,1.834,207.363,0.135064
266.4000,0.79681,207.35,0.134885
266.3000,-0.472827,207.467,0.136561
266.2000,-0.275172,207.237,0.133258
266.1000,0.324783,207.842,0.141941
266.0000,0.635746,207.792,0.141227
265.9000,-0.439719,207.539,0.137602
265.8000,1.32271,207.64,0.139049
265.7000,1.70357,207.691,0.13978
265.6000,-1.02921,207.471,0.136626
265.5000,0.624527,207.158,0.132118
265.4000,-0.0658239,207.582,0.13822
265.3000,-0.306869,207.13,0.131727
265.2000,1.43514,207.256,0.133534
265.1000,-0.905266,207.226,0.133095
265.0000,0.319841,207.409,0.135731
264.9000,1.71325,207.934,0.143257
264.8000,-1.22342,207.389,0.135439
264.7000,-0.32854,208.036,0.144718
264.6000,1.28928,208.26,0.147929
264.5000,-1.04983,207.593,0.138366
264.4000,1.21437,207.699,0.139894
264.3000,0.550821,207.887,0.142591
264.2000,-0.846699,207.51,0.137179
264.1000,0.700056,208.855,0.156432
264.0000,-0.210989,208.335,0.149
263.9000,-0.236579,207.797,0.141292
263.8000,0.130434,207.996,0.14415
263.7000,0.623239,207.677,0.139569
263.6000,-1.46096,208.079,0.145334
263.5000,-0.0175738,207.581,0.138204
263.4000,0.427189,208.106,0.145724
263.3000,-1.48575,208.08,0.145351
263.2000,-0.353911,208.33,0.148935
263.1000,0.808017,207.884,0.142542
263.0000,0.578029,207.854,0.14212
262.9000,0.801135,208.704,0.15428
262.8000,1.25821,208.176,0.14673
262.7000,0.245249,209.176,0.161008
262.6000,-1.01275,208.373,0.149551
262.5000,-0.706783,208.461,0.150798
262.4000,0.327825,207.541,0.137618
262.3000,0.822666,207.916,0.142997
262.2000,1.52033,207.656,0.139277
262.1000,0.991,207.938,0.143322
262.0000,-0.0582804,208.464,0.150847
261.9000,1.49553,208.268,0.148043
261.8000,-0.997981,208.547,0.15203
261.7000,2.66527,208.862,0.15653
261.6000,0.935841,208.083,0.145399
261.5000,0.773799,208.723,0.154555
261.4000,-1.38754,208.492,0.151252
261.3000,2.01896,209.497,0.165593
261.2000,0.129243,208.425,0.150296
261.1000,0.188373,208.22,0.147362
261.0000,0.779131,208.492,0.151252
260.9000,2.21862,209.019,0.158777
260.8000,2.06305,208.745,0.154863
260.7000,2.57618,209.275,0.162429
260.6000,1.39373,208.737,0.15475
260.5000,-0.304112,208.6,0.152791
260.4000,0.331249,208.371,0.149518
260.3000,0.955966,208.668,0.153762
260.2000,0.0345057,208.151,0.146372
260.1000,0.273547,208.66,0.153649
260.0000,0.646712,208.699,0.154199
259.9000,0.687627,209.123,0.160264
259.8000,0.563114,208.807,0.155753
259.7000,1.55487,209.935,0.171816
259.6000,0.998259,209.357,0.163592
259.5000,0.455365,209.316,0.163011
259.4000,0.706644,209.664,0.167964
259.3000,0.857062,209.438,0.164754
259.2000,0.336954,209.45,0.164915
259.1000,-0.521422,210.054,0.173507
259.0000,0.186776,209.012,0.15868
258.9000,1.82389,209.118,0.160184
258.8000,-1.86644,208.886,0.156869
258.7000,0.110403,209.972,0.172348
258.6000,-0.00405673,209.359,0.163624
258.5000,0.741286,209.314,0.162978
258.4000,0.653008,210.208,0.175696
258.3000,-0.322485,210.272,0.176614
258.2000,-0.357796,208.993,0.158406
258.1000,-0.53725,209.097,0.159893
258.0000,1.91635,209.288,0.162607
257.9000,-0.697741,208.905,0.157144
257.8000,-1.54132,209.834,0.170382
257.7000,0.0433876,209.708,0.168593
257.6000,-0.184122,210.027,0.173121
257.5000,-0.128682,209.607,0.167158
257.4000,-0.348012,210.014,0.172944
257.3000,1.35002,209.144,0.160555
257.2000,0.169171,209.986,0.172541
257.1000,1.22936,209.486,0.165432
257.0000,-0.708686,210.45,0.179138
256.9000,0.205439,209.455,0.164996
256.8000,0.462937,209.713,0.168658
256.7000,0.416774,209.067,0.159456
256.6000,0.95285,209.792,0.169786
256.5000,0.676012,210.055,0.173523
256.4000,0.188187,210.783,0.183862
256.3000,-0.902544,210.521,0.180135
256.2000,1.09064,210.611,0.18142
256.1000,1.52859,211.408,0.192697
256.0000,1.52686,210.003,0.172783
255.9000,1.73294,209.823,0.170221
255.8000,0.870885,210.346,0.177659
255.7000,0.811586,210.123,0.174489
255.6000,-1.07482,209.991,0.172622
255.5000,1.07692,210.754,0.183444
255.4000,0.325835,211.002,0.186959
255.3000,1.09466,210.298,0.176983
255.2000,-0.374434,210.19,0.175439
255.1000,1.21285,210.117,0.174409
255.0000,2.22499,209.361,0.163656
254.9000,1.39129,210.022,0.173056
254.8000,-0.516221,210.496,0.179781
254.7000,-0.0787251,210.62,0.181549
254.6000,2.37561,210.364,0.177916
254.5000,0.701888,210.931,0.185948
254.4000,1.2944,210.979,0.186638
254.3000,-0.614335,210.732,0.183139
254.2000,-0.623775,210.794,0.184006
254.1000,0.0579786,210.655,0.182047
254.0000,1.50599,210.695,0.182609
253.9000,-0.791611,210.677,0.182352
253.8000,-0.836529,211.016,0.187152
253.7000,1.27142,210.871,0.185098
253.6000,-1.89734,212.585,0.2093
253.5000,0.61527,210.838,0.184632
253.4000,2.09946,210.509,0.179974
253.3000,-0.035086,211.24,0.190326
253.2000,-1.44086,210.934,0.185996
253.1000,1.69616,211.488,0.193834
253.0000,0.233268,210.908,0.185627
252.9000,1.37558,211.164,0.189252
252.8000,-0.30619,211.722,0.197131
252.7000,-0.911158,210.533,0.180312
252.6000,-0.437928,211.007,0.187023
252.5000,1.15914,210.459,0.179267
252.4000,0.455406,210.796,0.184038
252.3000,1.97303,211.437,0.193114
252.2000,1.55404,211.351,0.191896
252.1000,0.230075,211.34,0.191736
252.0000,0.912593,211.334,0.191656
251.9000,0.131422,211.513,0.194187
251.8000,1.61507,211.631,0.195851
251.7000,-0.230546,211.341,0.191752
251.6000,0.24437,210.54,0.180408
251.5000,1.82277,212.166,0.203396
251.4000,0.125137,211.493,0.193898
251.3000,0.258845,211.452,0.193322
251.2000,1.75618,211.281,0.190903
251.1000,0.582873,211.92,0.199929
251.0000,-0.364122,211.359,0.192008
250.9000,0.166691,211.565,0.194923
250.8000,0.0476282,211.546,0.194651
250.7000,0.451403,211.35,0.19188
250.6000,0.654606,211.796,0.198187
250.5000,0.265798,211.637,0.195931
250.4000,-0.459766,211.274,0.190807
250.3000,-0.225188,211.464,0.193498
250.2000,0.772825,211.05,0.187633
250.1000,1.37703,213.08,0.21626
250.0000,1.79806,212.745,0.211547
249.9000,-0.939524,211.991,0.200936
249.8000,0.0780753,212.1,0.20247
249.7000,0.122451,211.612,0.195579
249.6000,-0.682489,212.567,0.209045
249.5000,-0.104205,212.401,0.206716
249.4000,1.35323,211.834,0.198714
249.3000,0.546283,212.139,0.203013
249.2000,0.441907,212.16,0.203316
249.1000,-0.994361,212.348,0.205966
249.0000,-0.244343,212.54,0.208662
248.9000,0.0342232,212.636,0.210017
248.8000,-0.0946725,212.434,0.207179
248.7000,0.619354,213.325,0.219696
248.6000,0.0327777,212.129,0.202885
248.5000,0.662671,212.212,0.204051
248.4000,-1.60375,212.229,0.20429
248.3000,0.379829,212.452,0.207434
248.2000,-0.526446,212.838,0.212853
248.1000,0.18041,212.43,0.207115
248.0000,-1.18234,213.073,0.216165
247.9000,-0.740298,213.919,0.228017
247.8000,0.805225,212.171,0.203476
247.7000,-0.249566,212.196,0.203827
247.6000,0.174049,212.787,0.212137
247.5000,-1.3775,212.941,0.214303
247.4000,0.694771,212.718,0.211165
247.3000,-0.381449,212.727,0.211292
247.2000,-0.457388,213.139,0.217088
247.1000,-2.32908,213.483,0.221921
247.0000,-0.205615,213.15,0.217247
246.9000,-0.882698,213.522,0.222461
246.8000,-1.77629,213.196,0.217883
246.7000,-0.568458,213.65,0.224256
246.6000,-2.357,213.673,0.224573
246.5000,0.168912,213.542,0.222747
246.4000,-0.611007,213.692,0.224843
246.3000,-0.851704,213.027,0.215513
246.2000,-2.28727,212.971,0.214732
246.1000,-1.40502,213.414,0.220952
246.0000,-1.29766,213.97,0.22873
245.9000,0.317209,213.581,0.223287
245.8000,-2.20965,213.515,0.222366
245.7000,0.103906,213.876,0.227414
245.6000,-1.40546,214.235,0.232439
245.5000,-1.05551,213.551,0.222874
245.4000,-0.477759,213.653,0.224303
245.3000,-1.12192,213.651,0.224272
245.2000,-1.98738,213.868,0.227303
245.1000,-1.13137,214.52,0.236429
245.0000,-2.15353,214.181,0.231695
244.9000,-2.41155,214.359,0.234181
244.8000,-4.44087,214.581,0.237284
244.7000,-1.8478,214.84,0.240889
244.6000,-1.84334,214.063,0.230031
244.5000,-0.299094,213.838,0.22689
244.4000,-2.32934,214.835,0.240826
244.3000,-3.56808,214.797,0.240288
244.2000,-2.41832,214.307,0.233453
244.1000,-3.75706,214.355,0.234118
244.0000,-2.39574,214.324,0.233691
243.9000,-2.80267,214.835,0.240826
243.8000,-3.46748,215.428,0.249083
243.7000,-3.11039,215.359,0.24812
243.6000,-3.80447,215.309,0.247427
243.5000,-3.31318,215.81,0.254393
243.4000,-3.62076,215.305,0.247379
243.3000,-3.92761,216.304,0.261252
243.2000,-2.06243,215.557,0.25088
243.1000,-2.64091,215.12,0.244791
243.0000,-4.13179,214.765,0.239846
242.9000,-4.07601,215.305,0.247379
242.8000,-1.03376,215.733,0.253322
242.7000,-3.95595,215.809,0.254377
242.6000,-3.85422,215.625,0.251825
242.5000,-1.82983,215.67,0.252456
242.4000,-3.24518,215.724,0.253196
242.3000,-6.1903,215.451,0.249398
242.2000,-4.59273,216.444,0.263201
242.1000,-5.02688,216.177,0.259492
242.0000,-4.36259,215.539,0.250628
241.9000,-3.79798,216.156,0.259208
241.8000,-4.46116,215.846,0.254897
241.7000,-4.89161,216.454,0.263342
241.6000,-4.28827,216.214,0.26001
241.5000,-5.15397,215.866,0.25518
241.4000,-5.87048,217.238,0.274196
241.3000,-4.46517,215.911,0.255794
241.2000,-4.47213,216.528,0.264363
241.1000,-5.96554,217.087,0.272096
241.0000,-4.87141,217.517,0.278046
240.9000,-7.08804,217.447,0.277076
240.8000,-4.74181,216.896,0.269463
240.7000,-5.89617,217.453,0.277154
240.6000,-6.34143,217.84,0.282502
240.5000,-5.39108,217.915,0.283534
240.4000,-7.54511,218.324,0.289168
240.3000,-7.69523,218.292,0.288732
240.2000,-6.66595,217.791,0.28183
240.1000,-7.83429,217.999,0.284689
240.0000,-7.94182,217.301,0.275057
239.9000,-9.00246,218.284,0.288623
239.8000,-11.0147,219.042,0.299044
239.7000,-10.3194,218.587,0.292785
239.6000,-9.68647,218.83,0.296134
239.5000,-9.10453,219.099,0.299821
239.4000,-7.33823,219.227,0.301578
239.3000,-9.48938,219.578,0.306394
239.2000,-9.17288,218.844,0.296321
239.1000,-9.42752,219.76,0.308876
239.0000,-10.0455,220.342,0.316842
238.9000,-11.3613,220.471,0.318606
238.8000,-10.0756,220.569,0.319936
238.7000,-12.1042,221.004,0.32587
238.6000,-8.57024,220.14,0.314085
238.5000,-11.2237,220.486,0.318807
238.4000,-10.6335,220.745,0.322348
238.3000,-11.6113,220.987,0.325639
238.2000,-13.199,221.486,0.332442
238.1000,-11.7199,221.478,0.332334
238.0000,-10.1294,220.725,0.32207
237.9000,-11.4131,221.938,0.338587
237.8000,-12.2061,221.75,0.336032
237.7000,-12.1942,221.745,0.335955
237.6000,-11.2973,222.055,0.340171
237.5000,-15.0025,221.858,0.337494
237.4000,-14.2349,222.048,0.340079
237.3000,-14.7805,223.175,0.355336
237.2000,-12.2112,222.762,0.349756
237.1000,-16.1983,223.485,0.359531
237.0000,-16.3059,222.542,0.346779
236.9000,-15.379,222.831,0.350692
236.8000,-15.5368,223.18,0.355413
236.7000,-16.1284,223.571,0.360693
236.6000,-15.6591,223.493,0.359638
236.5000,-16.4469,224.314,0.370713
236.4000,-16.7037,224.273,0.370148
236.3000,-16.2286,224.342,0.371079
236.2000,-17.6464,224.382,0.371628
236.1000,-16.9306,224.375,0.371521
236.0000,-19.2669,224.835,0.377707
235.9000,-16.1653,224.946,0.379199
235.8000,-18.2153,224.731,0.376322
235.7000,-19.0571,225.258,0.383397
235.6000,-21.2575,225.563,0.387483
235.5000,-19.0439,225.458,0.386071
235.4000,-17.4749,225.599,0.387969
235.3000,-19.5994,226.119,0.39493
235.2000,-20.654,226.13,0.395067
235.1000,-19.9786,226.838,0.404524
235.0000,-19.3837,227.021,0.406972
234.9000,-21.8704,226.893,0.405265
234.8000,-22.6035,227.023,0.406987
234.7000,-21.7295,227.256,0.410097
234.6000,-24.1563,227.897,0.418628
234.5000,-22.8186,228.008,0.420103
234.4000,-22.0158,227.749,0.416655
234.3000,-21.8019,228.792,0.430502
234.2000,-23.2295,228.519,0.426883
234.1000,-24.4873,229.003,0.433292
234.0000,-26.0462,228.722,0.429571
233.9000,-23.0836,228.722,0.429571
233.8000,-25.8597,229.024,0.433561
233.7000,-24.6068,229.804,0.443878
233.6000,-27.4446,229.104,0.434626
233.5000,-27.2441,230.09,0.447644
233.4000,-26.4006,230.842,0.457548
233.3000,-26.6982,230.431,0.452137
233.2000,-28.1458,230.576,0.454045
233.1000,-27.8785,230.936,0.458784
233.0000,-31.6918,230.766,0.45655
232.9000,-31.185,230.278,0.450122
232.8000,-30.531,230.733,0.456117
232.7000,-29.8992,231.855,0.470841
232.6000,-31.2718,231.674,0.468465
232.5000,-30.7186,232.458,0.478728
232.4000,-29.1848,232.595,0.48052
232.3000,-33.3603,232.143,0.474609
232.2000,-35.3798,232.624,0.480905
232.1000,-33.0899,233.889,0.497386
232.0000,-33.3184,233.575,0.493303
231.9000,-32.5612,233.683,0.494704
231.8000,-34.4785,233.603,0.493671
231.7000,-34.2054,233.904,0.497578
231.6000,-34.5345,234.503,0.505365
231.5000,-36.4117,235.359,0.516449
231.4000,-36.7512,234.583,0.506408
231.3000,-35.928,235.064,0.512636
231.2000,-34.4563,235.209,0.514513
231.1000,-37.5828,235.595,0.519512
231.0000,-35.5839,235.754,0.521562
230.9000,-38.0556,235.288,0.51554
230.8000,-40.2635,235.61,0.519702
230.7000,-37.6128,235.144,0.513677
230.6000,-39.4377,236.042,0.525278
230.5000,-39.4456,235.899,0.523435
230.4000,-40.9103,236.183,0.527106
230.3000,-38.2937,235.508,0.518384
230.2000,-38.2473,236.741,0.53429
230.1000,-40.5219,237.047,0.538227
230.0000,-44.2994,236.979,0.537353
229.9000,-39.9839,237.006,0.537702
229.8000,-41.5741,237.441,0.543295
229.7000,-41.4278,237.398,0.542742
229.6000,-43.9755,237.829,0.548269
229.5000,-44.033,238.704,0.559486
229.4000,-44.8309,238.507,0.556964
229.3000,-45.0078,239.133,0.564959
229.2000,-42.7325,238.828,0.561065
229.1000,-43.9296,239.363,0.567895
229.0000,-46.6301,239.746,0.572778
228.9000,-44.9766,238.257,0.553759
228.8000,-43.8927,240.038,0.576501
228.7000,-46.9641,239.259,0.566565
228.6000,-47.0533,240.467,0.581963
228.5000,-47.7872,240.992,0.588625
228.4000,-44.7551,240.793,0.586094
228.3000,-46.5139,240.828,0.58654
228.2000,-48.2853,241.112,0.590149
228.1000,-46.591,241.99,0.601268
228.0000,-47.0526,241.808,0.598961
227.9000,-51.0644,242.479,0.607438
227.8000,-48.4396,242.552,0.608368
227.7000,-50.162,242.919,0.612998
227.6000,-49.9749,243.36,0.618549
227.5000,-53.2231,243.697,0.622782
227.4000,-52.1585,244.17,0.628731
227.3000,-52.3084,244.452,0.63227
227.2000,-52.9839,244.864,0.637423
227.1000,-50.0648,244.381,0.631375
227.0000,-51.0744,244.615,0.634301
226.9000,-50.4015,244.727,0.635706
226.8000,-53.9988,245.32,0.643137
226.7000,-54.8043,246.46,0.65736
226.6000,-51.451,245.846,0.649704
226.5000,-55.0996,246.233,0.654522
226.4000,-54.1094,245.875,0.650057
226.3000,-52.9512,246.103,0.652912
226.2000,-56.0484,246.595,0.659038
226.1000,-54.8322,246.475,0.657543
226.0000,-56.1962,247.25,0.667182
225.9000,-54.9543,246.664,0.659899
225.8000,-56.2205,247.028,0.664423
225.7000,-56.9599,247.887,0.675083
225.6000,-56.2328,247.204,0.666605
225.5000,-55.5348,248.737,0.685601
225.4000,-55.833,248.494,0.682603
225.3000,-55.9058,248.864,0.687169
225.2000,-58.0545,248.646,0.684481
225.1000,-53.4961,248.534,0.683094
225.0000,-58.4689,249.355,0.69324
224.9000,-58.7104,249.632,0.696648
224.8000,-59.0191,249.944,0.7005
224.7000,-60.3355,249.777,0.698435
224.6000,-57.7235,249.91,0.700081
224.5000,-59.5421,250.628,0.708901
224.4000,-58.5174,250.792,0.710918
224.3000,-60.3188,251.44,0.718866
224.2000,-58.1757,251.555,0.720267
224.1000,-57.7894,251.427,0.718699
224.0000,-59.9314,252.033,0.726118
223.9000,-62.7747,252.024,0.726007
223.8000,-59.9003,252.817,0.735691
223.7000,-59.7702,251.729,0.722403
223.6000,-63.3969,253.493,0.743931
223.5000,-61.6476,253.132,0.73953
223.4000,-61.4791,253.054,0.738578
223.3000,-63.241,254.123,0.751588
223.2000,-61.4411,254.189,0.752386
223.1000,-64.853,253.928,0.749221
223.0000,-60.5586,255.009,0.762331
222.9000,-65.5984,254.704,0.758639
222.8000,-63.1346,255.319,0.766074
222.7000,-62.8003,255.68,0.770444
222.6000,-62.3382,256.006,0.774384
222.5000,-60.9775,255.731,0.77106
222.4000,-61.2191,256.289,0.777787
222.3000,-62.453,256.391,0.779016
222.2000,-62.9837,256.011,0.774438
222.1000,-60.9861,256.841,0.784448
222.0000,-64.1198,257.245,0.789299
221.9000,-60.0078,257.987,0.79821
221.8000,-62.8689,258.279,0.801713
221.7000,-60.5685,258.062,0.799106
221.6000,-61.0174,258.054,0.799011
221.5000,-60.0955,258.87,0.808779
221.4000,-63.5504,259.342,0.814424
221.3000,-61.0065,258.616,0.805743
221.2000,-65.0451,259.644,0.818021
221.1000,-61.0738,260.548,0.82879
221.0000,-65.1193,259.82,0.820128
220.9000,-58.7332,260.332,0.826229
220.8000,-59.6143,261.282,0.837512
220.7000,-59.7903,261.348,0.838292
220.6000,-65.1227,261.483,0.839892
220.5000,-63.0202,261.509,0.8402
220.4000,-58.429,261.487,0.839945
220.3000,-64.0724,262.152,0.847824
220.2000,-63.8887,263.19,0.860085
220.1000,-60.4546,262.107,0.847287
220.0000,-59.2072,263.135,0.85943
219.9000,-65.8766,263.046,0.858388
219.8000,-62.1755,263.137,0.859457
219.7000,-64.0769,264.297,0.873119
219.6000,-59.8637,263.462,0.863291
219.5000,-62.6063,263.936,0.868868
219.4000,-63.768,263.772,0.866948
219.3000,-62.3792,264.141,0.87128
219.2000,-62.9328,264.587,0.876526
219.1000,-61.1192,264.391,0.874224
219.0000,-60.5696,265.709,0.889675
218.9000,-64.447,265.035,0.881778
218.8000,-62.2143,266.053,0.893704
218.7000,-63.5748,266.482,0.898707
218.6000,-62.975,266.103,0.894286
218.5000,-64.8526,266.672,0.900928
218.4000,-62.7959,266.35,0.897172
218.3000,-60.3895,267.575,0.911449
218.2000,-59.4308,267.565,0.91133
218.1000,-61.4494,267.593,0.91166
218.0000,-62.4719,268.399,0.92102
217.9000,-59.6181,268.66,0.924056
217.8000,-59.7258,269.403,0.932651
217.7000,-62.3713,268.81,0.925789
217.6000,-59.6136,269.191,0.930199
217.5000,-62.4241,270.737,0.94806
217.4000,-60.6179,270.225,0.942155
217.3000,-62.3251,269.676,0.935808
217.2000,-61.3591,270.978,0.950826
217.1000,-63.9845,271.033,0.951465
217.0000,-61.2227,271.665,0.958736
216.9000,-61.661,272.145,0.964238
216.8000,-58.1726,271.727,0.959439
216.7000,-57.4605,272.253,0.965485
216.6000,-59.8445,273.475,0.979466
216.5000,-58.5595,273.936,0.984731
216.4000,-62.227,273.439,0.979052
216.3000,-61.406,274.269,0.98853
216.2000,-58.0216,273.851,0.983761
216.1000,-59.8135,274.307,0.988956
216.0000,-64.4587,274.838,0.995007
215.9000,-61.1498,274.847,0.99511
215.8000,-65.1296,275.264,0.999851
215.7000,-64.3215,275.926,1.00736
215.6000,-62.6197,275.768,1.00558
215.5000,-59.8133,275.993,1.00812
215.4000,-55.9867,276.856,1.0179
215.3000,-62.7845,277.57,1.02596
215.2000,-64.3618,276.854,1.01787
215.1000,-62.9965,277.903,1.02972
215.0000,-61.4208,278.459,1.03599
214.9000,-59.1886,277.792,1.02847
214.8000,-61.1091,279.297,1.0454
214.7000,-60.9776,279.395,1.0465
214.6000,-62.0173,279.397,1.04653
214.5000,-57.8688,280.815,1.0624
214.4000,-57.6541,279.678,1.04968
214.3000,-60.3349,280.194,1.05546
214.2000,-61.6521,281.015,1.06465
214.1000,-64.2619,281.248,1.06724
214.0000,-61.006,281.4,1.06893
213.9000,-58.9424,281.979,1.07539
213.8000,-65.1889,282.36,1.07964
213.7000,-59.1175,283.239,1.08939
213.6000,-63.366,282.164,1.07746
213.5000,-63.0133,283.547,1.09281
213.4000,-60.8601,283.563,1.09299
213.3000,-64.3503,284.197,1.10002
213.2000,-63.559,285.348,1.11273
213.1000,-62.1849,285.314,1.11236
213.0000,-60.5828,285.415,1.11347
212.9000,-60.1438,285.525,1.11468
212.8000,-65.3443,286.084,1.12083
212.7000,-60.5308,286.469,1.12507
212.6000,-62.9341,286.68,1.12739
212.5000,-56.9908,287.205,1.13316
212.4000,-63.0154,287.365,1.13491
212.3000,-65.5223,288.132,1.14331
212.2000,-61.6867,288.521,1.14756
212.1000,-63.725,289.619,1.15954
212.0000,-67.2422,288.745,1.15001
211.9000,-60.7643,290.535,1.16951
211.8000,-60.97,290.576,1.16995
211.7000,-66.9746,291.256,1.17733
211.6000,-58.2918,291.665,1.18176
211.5000,-65.8923,292.738,1.19337
211.4000,-57.1643,292.423,1.18996
211.3000,-63.9259,292.667,1.1926
211.2000,-64.5813,293.528,1.20188
211.1000,-55.9389,295.29,1.22081
211.0000,-64.982,295.137,1.21917
210.9000,-59.175,294.518,1.21254
210.8000,-64.7593,295.268,1.22058
210.7000,-62.6494,296.18,1.23035
210.6000,-56.776,296.392,1.23261
210.5000,-61.0661,298.35,1.25348
210.4000,-68.0472,297.801,1.24763
210.3000,-62.6671,299.241,1.26293
210.2000,-70.2082,299.268,1.26322
210.1000,-63.9571,299.514,1.26582
210.0000,-66.4803,300.669,1.27803
209.9000,-64.0308,300.125,1.27229
209.8000,-65.3536,301.715,1.28907
209.7000,-65.5747,302.377,1.29603
209.6000,-68.0542,302.955,1.3021
209.5000,-64.241,303.99,1.31294
209.4000,-63.5706,303.832,1.31129
209.3000,-68.2576,304.878,1.32222
209.2000,-64.2491,305.588,1.32963
209.1000,-66.9827,305.07,1.32423
209.0000,-67.798,306.66,1.34077
208.9000,-57.058,307.526,1.34976
208.8000,-62.4356,307.552,1.35003
208.7000,-66.7306,309.16,1.36665
208.6000,-65.7995,309.989,1.37519
208.5000,-65.4034,309.969,1.37498
208.4000,-59.1706,311.844,1.39424
208.3000,-64.4543,312.268,1.39858
208.2000,-60.3411,312.725,1.40326
208.1000,-64.8576,313.286,1.40898
208.0000,-57.1852,314.433,1.42066
207.9000,-65.1914,314.898,1.42539
207.8000,-66.0031,316.68,1.44345
207.7000,-68.0468,317.424,1.45097
207.6000,-62.8259,319.142,1.46826
207.5000,-66.3127,318.401,1.46081
207.4000,-66.7824,319.907,1.47594
207.3000,-65.353,320.211,1.47898
207.2000,-59.7326,321.288,1.48976
207.1000,-57.5727,322.162,1.49848
207.0000,-66.0947,322.674,1.50358
206.9000,-61.3162,324.299,1.51972
206.8000,-63.9757,324.312,1.51986
206.7000,-55.7562,325.799,1.53456
206.6000,-56.5487,326.07,1.53724
206.5000,-52.1817,327.362,1.54997
206.4000,-53.7844,328.974,1.56578
206.3000,-60.8683,329.359,1.56956
206.2000,-57.3296,330.466,1.58037
206.1000,-45.0655,331.916,1.5945
206.0000,-53.4275,332.999,1.60501
205.9000,-55.5577,333.559,1.61044
205.8000,-51.9037,335.092,1.62525
205.7000,-46.9913,336.111,1.63506
205.6000,-52.2832,337.202,1.64555
205.5000,-40.1314,338.248,1.65557
205.4000,-53.8193,339.485,1.66739
205.3000,-45.4828,340.191,1.67412
205.2000,-47.2182,341.945,1.69079
205.1000,-50.4169,343.142,1.70212
205.0000,-39.1854,344.681,1.71665
204.9000,-42.7245,344.994,1.71959
204.8000,-39.0813,346.672,1.73536
204.7000,-43.4956,348.023,1.748
204.6000,-35.7906,349.531,1.76206
204.5000,-35.1522,350.476,1.77085
204.4000,-40.9698,351.882,1.78389
204.3000,-38.6216,354.333,1.80651
204.2000,-41.5874,354.731,1.81017
204.1000,-31.9531,356.187,1.82354
204.0000,-27.4002,357.15,1.83236
203.9000,-39.3487,359.034,1.84955
203.8000,-33.9876,361.398,1.871
203.7000,-29.6897,362.977,1.88528
203.6000,-24.2872,363.891,1.89352
203.5000,-32.5665,365.087,1.90426
203.4000,-24.5188,366.797,1.91958
203.3000,-23.6753,368.475,1.93455
203.2000,-28.151,369.556,1.94417
203.1000,-32.0865,371.145,1.95827
203.0000,-8.47883,372.563,1.9708
202.9000,-17.5708,373.755,1.98131
202.8000,-22.2765,375.996,2.00098
202.7000,-8.93902,376.807,2.00808
202.6000,-16.2021,378.208,2.0203
202.5000,-6.50361,379.755,2.03377
202.4000,-6.43093,382.107,2.05413
202.3000,-19.1842,383.506,2.06621
202.2000,-5.98649,385.245,2.08116
202.1000,-14.227,387.644,2.10169
202.0000,5.9376,388.886,2.11227
201.9000,-7.30055,391.153,2.13153
201.8000,5.1854,393.149,2.1484
201.7000,-0.224382,395.538,2.1685
201.6000,3.22901,396.971,2.18051
201.5000,2.01287,399.813,2.20422
201.4000,0.0846731,401.484,2.21809
201.3000,-10.192,401.738,2.2202
201.2000,10.7786,404.709,2.24473
201.1000,1.98319,407.27,2.26575
201.0000,-3.32064,408.615,2.27675
200.9000,3.76057,411.149,2.2974
200.8000,24.9445,411.522,2.30042
200.7000,6.83674,414.12,2.32146
200.6000,4.59532,416.945,2.3442
200.5000,12.065,418.237,2.35456
200.4000,23.7028,420.893,2.37577
200.3000,26.9154,422.541,2.38888
200.2000,27.4019,425.252,2.41034
200.1000,5.75654,427.298,2.42646
200.0000,31.7359,429.591,2.44446
199.9000,11.2993,432.459,2.46685
199.8000,23.2801,434.715,2.48437
199.7000,27.0986,436.745,2.50008
199.6000,19.8435,438.897,2.51666
199.5000,23.7915,440.337,2.52771
199.4000,23.3912,443.381,2.55098
199.3000,32.9621,444.603,2.56029
199.2000,21.2909,446.825,2.57716
199.1000,35.4032,449.37,2.59638
199.0000,32.3048,451.813,2.61475
198.9000,24.9103,453.458,2.62708
198.8000,28.8927,456.873,2.65254
198.7000,27.5937,459.119,2.6692
198.6000,28.9441,462.313,2.69277
198.5000,29.0415,465.064,2.71297
198.4000,29.8003,466.347,2.72235
198.3000,18.3555,469.922,2.74838
198.2000,22.6016,471.612,2.76063
198.1000,34.3046,473.912,2.77724
198.0000,45.1898,475.317,2.78735
197.9000,25.0639,479.788,2.81936
197.8000,34.7939,481.328,2.83033
197.7000,35.9281,484.917,2.85577
197.6000,34.1615,487.271,2.87238
197.5000,30.6768,488.851,2.88348
197.4000,45.8491,491.724,2.9036
197.3000,33.9568,494.702,2.92435
197.2000,20.4353,496.716,2.93833
197.1000,28.6968,499.414,2.95697
197.0000,42.7277,503.021,2.98175
196.9000,37.7347,504.174,2.98965
196.8000,23.6563,507.632,3.01323
196.7000,38.0557,510.592,3.0333
196.6000,34.4241,512.914,3.04898
196.5000,37.8067,515.332,3.06525
196.4000,25.6892,518.333,3.08535
196.3000,45.8517,522.178,3.11095
196.2000,33.6338,524.503,3.12635
196.1000,50.122,527.347,3.14512
196.0000,32.2505,530.884,3.16834
195.9000,29.7531,532.938,3.18177
195.8000,20.7727,536.427,3.20447
195.7000,34.9025,538.181,3.21583
195.6000,31.2656,542.321,3.24253
195.5000,40.4972,543.173,3.24801
195.4000,33.1262,546.073,3.26658
195.3000,22.8052,547.862,3.278
195.2000,23.9157,550.381,3.29402
195.1000,33.6399,552.279,3.30606
195.0000,16.1101,554.419,3.31958
194.9000,28.9868,556.926,3.33537
194.8000,24.8885,559.547,3.35181
194.7000,28.4895,561.933,3.36673
194.6000,34.446,563.298,3.37523
194.5000,32.1309,565.528,3.38908
194.4000,45.084,568.403,3.40689
194.3000,41.7379,570.574,3.42028
194.2000,28.6585,572.789,3.43389
194.1000,19.5884,576.457,3.45634
194.0000,29.4648,578.577,3.46926
193.9000,25.6921,581.736,3.48844
193.8000,28.8657,585.013,3.50824
193.7000,33.1971,586.761,3.51877
193.6000,35.7587,588.769,3.53082
193.5000,31.3646,591.031,3.54436
193.4000,14.5374,593.602,3.5597
193.3000,28.5989,595.002,3.56803
193.2000,25.4158,596.695,3.57807
193.1000,28.868,598.943,3.59138
193.0000,19.4185,600.709,3.6018
192.9000,41.864,603.465,3.61801
192.8000,37.7355,604.884,3.62633
192.7000,40.4102,607.406,3.64108
192.6000,26.3051,610.104,3.65681
192.5000,31.5261,613.018,3.67372
192.4000,36.561,616.205,3.69215
192.3000,18.1462,617.421,3.69915
192.2000,5.3311,620.555,3.71716
192.1000,15.8331,622.439,3.72795
192.0000,22.7415,624.951,3.74229
191.9000,11.8987,626.672,3.75208
191.8000,10.8788,629.303,3.76702
191.7000,21.43,631.257,3.77807
191.6000,16.5543,633.447,3.79043
191.5000,23.2864,635.654,3.80284
191.4000,24.2937,638.514,3.81887
191.3000,31.4086,640.911,3.83226
191.2000,17.2115,643.649,3.84751
191.1000,32.0202,646.829,3.86514
191.0000,16.4477,649.15,3.87797
190.9000,15.9089,652.59,3.89691
190.8000,20.9842,655.4,3.91231
190.7000,28.2387,659,3.93197
190.6000,14.1252,662.247,3.94962
190.5000,28.5672,664.622,3.96248
190.4000,26.1081,666.297,3.97153
190.3000,22.8148,669.011,3.98614
190.2000,2.22902,671.573,3.9999
190.1000,14.1136,673.928,4.01251
190.0000,24.4751,676.749,4.02756

##### Extended Information
[Comments]
Sample name,C2_JH_CW
Comment
User,ScharfMinor
Division
Company,Saint Mary's College

[Detailed Information]
Creation date,9/27/2022 3:40 PM

Data array type,Linear data array * 3
Horizontal axis,Wavelength [nm]
Vertical axis(1),CD [mdeg]
Vertical axis(2),HT [V]
Vertical axis(3),Abs
Start,320 nm
End,190 nm
Data interval,0.1 nm
Data points,1301    

[Measurement Information]
Instrument name,J-1500
Model name,J-1500
Serial No.,B051061638

Detector,PM-539
Detector S/N,B051061638
  Lock-in amp.,X mode
  HT volt,Auto

Accessory,PTC-517
Accessory S/N,B026561646
  Temperature,22.06 C
  Control sensor,Holder
  Monitor sensor,Holder

Measurement date,9/27/2022 3:40 PM

CD Overload detect,974
Photometric mode,CD, HT, Abs
Measure range,320 - 190 nm
Data pitch,0.1 nm
CD scale,20 mdeg/0.05 dOD
FL scale,20 mdeg/0.05 dOD
D.I.T.,8 msec
Bandwidth,2.00 nm
Start mode,Immediately
Scanning mode,Continuous
Scanning speed,100 nm/min
Baseline correction,None
Shutter control,Auto
No. of cycle,1/1
N2 Flowmeter,Manual

Solvent,NaPO4 buffer

