TITLE,CC.SJ.9_28_22_PHOSPHATEBUFFER_CONTROL
DATA TYPE,
ORIGIN,JASCO
OWNER,
DATE,22/09/28
TIME,13:59:17
SPECTROMETER/DATA SYSTEM,
LOCALE,1033
RESOLUTION,
DELTAX,-0.1
XUNITS,NANOMETERS
YUNITS,CD [mdeg]
Y2UNITS,HT [V]
Y3UNITS,ABSORBANCE
FIRSTX,  320.0000
LASTX,  190.0000
NPOINTS,    1301
FIRSTY,    -0.26171
MAXY,     6.86513
MINY,    -4.24228
XYDATA
320.0000,-0.261708,208.568,0.152337
319.9000,1.07267,207.509,0.137163
319.8000,-0.256773,207.67,0.139472
319.7000,-0.807333,208.292,0.148384
319.6000,0.48115,207.595,0.138399
319.5000,3.09547,208.237,0.147605
319.4000,1.9283,208.161,0.146519
319.3000,1.20521,208.135,0.146145
319.2000,0.362474,208.046,0.144864
319.1000,-0.229768,207.869,0.142331
319.0000,1.74211,208.108,0.145756
318.9000,0.477747,207.536,0.137553
318.8000,-0.605438,207.627,0.138854
318.7000,0.738468,207.85,0.142055
318.6000,1.72203,208.02,0.14449
318.5000,-0.044639,208.005,0.144279
318.4000,1.09531,207.968,0.143744
318.3000,2.14729,207.261,0.1336
318.2000,3.00785,207.588,0.138301
318.1000,1.75342,207.954,0.143549
318.0000,0.837645,207.842,0.141941
317.9000,0.431896,208.354,0.149275
317.8000,0.995947,207.559,0.137879
317.7000,1.66631,207.621,0.138773
317.6000,-0.174851,208.198,0.147037
317.5000,-0.0308794,207.728,0.1403
317.4000,-1.04645,207.765,0.140837
317.3000,0.42819,207.877,0.142445
317.2000,1.08972,207.962,0.143663
317.1000,-0.137678,207.731,0.140349
317.0000,-0.38375,207.936,0.143289
316.9000,0.102325,208.002,0.144231
316.8000,-0.445214,207.288,0.13399
316.7000,-1.12947,207.494,0.136952
316.6000,1.21198,207.394,0.13552
316.5000,1.55366,208.057,0.145026
316.4000,1.18943,208.753,0.154976
316.3000,0.0264871,207.405,0.135666
316.2000,0.306184,207.662,0.139358
316.1000,0.89986,207.498,0.137
316.0000,-0.299891,207.444,0.136236
315.9000,0.144231,207.317,0.134413
315.8000,1.90289,207.88,0.142493
315.7000,0.261821,207.853,0.142104
315.6000,0.374355,208.022,0.144523
315.5000,0.555898,207.916,0.142997
315.4000,0.959596,206.866,0.12793
315.3000,-1.12259,206.873,0.128028
315.2000,2.45306,207.58,0.138187
315.1000,0.745577,207.829,0.141762
315.0000,2.37124,207.924,0.14311
314.9000,1.97359,207.706,0.139992
314.8000,1.24434,207.928,0.143175
314.7000,0.856443,207.691,0.13978
314.6000,0.125274,207.688,0.139732
314.5000,1.24333,207.68,0.139618
314.4000,0.292027,206.93,0.128843
314.3000,1.19652,207.588,0.138301
314.2000,1.02688,207.697,0.139862
314.1000,0.544325,207.282,0.133909
314.0000,-0.275748,208.063,0.145107
313.9000,0.955584,208.117,0.145886
313.8000,2.48204,206.844,0.127604
313.7000,0.566597,206.735,0.126038
313.6000,2.25636,206.989,0.12969
313.5000,1.17271,206.547,0.123329
313.4000,-0.251046,208.384,0.149696
313.3000,1.44265,208.362,0.149388
313.2000,-0.91513,207.967,0.143728
313.1000,1.62445,206.32,0.120063
313.0000,0.551528,207.193,0.132623
312.9000,0.160939,207.589,0.138318
312.8000,0.38827,207.515,0.137244
312.7000,1.47597,207.512,0.137212
312.6000,1.13789,207.394,0.13552
312.5000,2.52182,207.445,0.136252
312.4000,0.34221,207.091,0.131157
312.3000,0.124878,207.524,0.137374
312.2000,-0.28285,208.259,0.147913
312.1000,-0.0645362,207.246,0.133388
312.0000,0.409199,206.722,0.125859
311.9000,0.981087,208.523,0.15169
311.8000,1.45454,206.862,0.127865
311.7000,0.13227,207.535,0.137537
311.6000,0.807486,207.036,0.130375
311.5000,1.8001,207.512,0.137212
311.4000,0.418522,207.967,0.143728
311.3000,1.44052,207.743,0.140528
311.2000,2.02719,207.526,0.137407
311.1000,2.21925,207.328,0.13456
311.0000,1.70632,207.207,0.132835
310.9000,1.89381,207.125,0.131646
310.8000,0.308177,207.553,0.137797
310.7000,0.631193,207.357,0.134983
310.6000,-1.13844,207.402,0.135634
310.5000,0.652564,207.483,0.136789
310.4000,-0.479517,207.484,0.136805
310.3000,0.770202,206.431,0.121664
310.2000,1.24566,207.783,0.141097
310.1000,0.547361,206.609,0.124227
310.0000,0.710002,206.764,0.126462
309.9000,1.49369,206.558,0.123492
309.8000,1.40569,208.345,0.149145
309.7000,2.03899,208.031,0.144653
309.6000,1.21244,207.116,0.131515
309.5000,1.31436,207.759,0.140755
309.4000,0.548052,207.384,0.135374
309.3000,0.905192,207.188,0.132557
309.2000,-0.291774,207.352,0.134918
309.1000,1.67194,206.909,0.128549
309.0000,1.53826,206.652,0.124847
308.9000,2.24688,207.785,0.141129
308.8000,1.91607,207.271,0.133746
308.7000,1.72625,207.896,0.142721
308.6000,1.81385,207.82,0.141633
308.5000,1.14845,207.667,0.139439
308.4000,0.594358,207.002,0.129886
308.3000,-2.07312,206.539,0.123215
308.2000,1.43259,207.742,0.140512
308.1000,1.26618,207.266,0.133681
308.0000,0.514973,207.218,0.132981
307.9000,0.995931,207.665,0.139407
307.8000,0.357346,208.482,0.151106
307.7000,1.69464,205.595,0.10959
307.6000,1.93843,207.633,0.138952
307.5000,1.03902,205.936,0.114519
307.4000,1.0565,205.887,0.113815
307.3000,0.183709,206.361,0.120651
307.2000,1.77433,208.191,0.14694
307.1000,2.53667,208.475,0.151009
307.0000,0.359584,206.542,0.123264
306.9000,1.24534,207.014,0.130049
306.8000,0.742179,206.926,0.128794
306.7000,1.48244,207.965,0.143711
306.6000,-1.01151,207.136,0.131808
306.5000,-2.05216,207.1,0.131287
306.4000,1.357,206.63,0.124521
306.3000,0.476906,207.756,0.140707
306.2000,0.537714,208.633,0.15326
306.1000,0.417894,209.521,0.165932
306.0000,-0.156525,207.35,0.134885
305.9000,2.47405,206.879,0.128109
305.8000,0.492472,207.545,0.137683
305.7000,-0.466592,206.349,0.120471
305.6000,1.87126,208.168,0.146616
305.5000,0.0761919,207.301,0.134186
305.4000,0.436419,207.529,0.137456
305.3000,0.688828,206.247,0.119
305.2000,-0.246558,207.713,0.140089
305.1000,1.18517,208.454,0.150701
305.0000,2.45681,207.664,0.13939
304.9000,1.59964,207.567,0.137992
304.8000,-1.23671,207.879,0.142477
304.7000,0.842311,206.984,0.129625
304.6000,1.41752,206.61,0.124243
304.5000,1.53069,207.618,0.138724
304.4000,-0.727515,207.403,0.13565
304.3000,1.21335,206.082,0.116629
304.2000,2.10304,207.271,0.133746
304.1000,-0.0834046,206.963,0.129315
304.0000,0.00195844,207.494,0.136952
303.9000,0.163268,206.516,0.122888
303.8000,1.59641,206.991,0.129723
303.7000,1.13936,206.386,0.12101
303.6000,1.57201,207.314,0.134365
303.5000,0.312255,207.17,0.132297
303.4000,0.435615,207.238,0.133274
303.3000,0.870645,206.142,0.117496
303.2000,-1.01651,207.085,0.131075
303.1000,0.60771,205.978,0.115125
303.0000,-0.662548,207.462,0.136496
302.9000,0.932872,206.257,0.119147
302.8000,-0.227069,207.384,0.135374
302.7000,1.60292,207.247,0.133404
302.6000,1.61056,207.151,0.13202
302.5000,0.871668,207.236,0.133242
302.4000,-0.139609,206.475,0.1223
302.3000,-0.0966195,207.559,0.137879
302.2000,1.13618,206.347,0.120455
302.1000,2.11676,207.575,0.138106
302.0000,0.639112,207.434,0.13609
301.9000,1.73697,207.193,0.132623
301.8000,-1.26903,205.98,0.115157
301.7000,1.32721,206.048,0.116139
301.6000,0.0784185,207.314,0.134365
301.5000,0.37346,206.741,0.12612
301.4000,0.100772,205.791,0.112424
301.3000,0.429902,206.766,0.126479
301.2000,0.180083,206.545,0.123297
301.1000,0.836665,206.538,0.123198
301.0000,1.39405,206.785,0.126756
300.9000,-0.0507605,206.137,0.117415
300.8000,1.42623,206.429,0.121631
300.7000,2.42815,208.743,0.154831
300.6000,-0.135171,207.386,0.135406
300.5000,-0.19888,206.138,0.117431
300.4000,2.32894,206.095,0.116809
300.3000,0.0794513,207.331,0.134609
300.2000,-0.0703681,206.696,0.125483
300.1000,-0.0332583,206.636,0.124619
300.0000,-1.89447,206.517,0.122905
299.9000,0.885199,207.888,0.142607
299.8000,1.03744,207.316,0.134397
299.7000,1.88689,207.746,0.140561
299.6000,2.05326,206.09,0.116744
299.5000,0.33883,207.132,0.131743
299.4000,1.22377,207.422,0.13591
299.3000,1.57781,206.956,0.129218
299.2000,0.568986,207.436,0.136122
299.1000,0.728389,206.529,0.123068
299.0000,0.748233,207.036,0.130375
298.9000,2.53396,207.886,0.142574
298.8000,0.721809,206.287,0.119589
298.7000,1.2223,206.319,0.120046
298.6000,0.286958,205.978,0.115125
298.5000,2.06652,206.925,0.128778
298.4000,1.34097,207.333,0.134641
298.3000,1.09184,206.779,0.126674
298.2000,0.0635269,206.818,0.127229
298.1000,0.786338,205.448,0.107459
298.0000,1.9376,206.536,0.123166
297.9000,0.393988,205.518,0.108475
297.8000,0.783474,206.153,0.117643
297.7000,0.110788,206.074,0.116515
297.6000,0.33538,206.56,0.123525
297.5000,1.08992,206.352,0.12052
297.4000,0.702652,207.201,0.132737
297.3000,0.398489,206.669,0.125092
297.2000,-0.222044,207.415,0.135813
297.1000,0.500411,205.626,0.110032
297.0000,0.73568,206.182,0.118069
296.9000,-1.46211,205.455,0.107557
296.8000,-0.776742,205.66,0.110523
296.7000,0.301973,206.616,0.124325
296.6000,1.5579,206.383,0.120961
296.5000,-0.272664,205.957,0.114814
296.4000,-0.755313,206.93,0.128843
296.3000,1.28179,206.176,0.117987
296.2000,0.515965,206.079,0.11658
296.1000,-0.142179,206.444,0.121843
296.0000,3.82549,206.568,0.123639
295.9000,1.25884,206.814,0.12718
295.8000,0.866731,206.478,0.122333
295.7000,3.03582,206.025,0.115795
295.6000,0.926945,206.105,0.116957
295.5000,0.0418601,205.987,0.115255
295.4000,-0.314886,206.937,0.128941
295.3000,-0.628261,206.446,0.121876
295.2000,0.168128,205.89,0.113848
295.1000,1.0376,206.475,0.1223
295.0000,0.562865,206.064,0.116368
294.9000,2.39534,205.702,0.11113
294.8000,3.93941,207.396,0.135536
294.7000,1.26885,206.705,0.125614
294.6000,0.986383,207.796,0.141275
294.5000,1.29294,206.099,0.116875
294.4000,-0.327617,206.621,0.12439
294.3000,0.297584,206.235,0.118837
294.2000,1.77867,206.475,0.1223
294.1000,1.39369,206.674,0.125157
294.0000,-0.861495,207.124,0.131629
293.9000,1.59354,206.055,0.116237
293.8000,1.87911,207.125,0.131646
293.7000,0.404289,205.79,0.112407
293.6000,-0.408549,206.156,0.117692
293.5000,0.0683473,206.63,0.124521
293.4000,2.09536,205.022,0.101288
293.3000,-1.86392,206.368,0.120749
293.2000,0.955025,206.42,0.1215
293.1000,1.07952,205.955,0.114797
293.0000,0.569102,206.232,0.118788
292.9000,1.70921,206.031,0.115893
292.8000,-1.68118,206.664,0.12501
292.7000,-0.153699,206.492,0.122545
292.6000,1.76715,205.775,0.112194
292.5000,1.6636,206.026,0.115812
292.4000,0.233491,206.259,0.11918
292.3000,0.0298261,205.349,0.106032
292.2000,0.112561,205.443,0.107393
292.1000,0.479876,204.868,0.0990535
292.0000,0.377165,206.019,0.115713
291.9000,1.36699,205.808,0.112669
291.8000,1.02146,206.14,0.117463
291.7000,1.09725,206.483,0.122415
291.6000,2.61014,205.058,0.101813
291.5000,1.12131,204.699,0.0966037
291.4000,1.8671,205.507,0.108311
291.3000,-0.00641528,206.117,0.117136
291.2000,1.85814,205.731,0.111556
291.1000,0.195098,205.296,0.105261
291.0000,-0.485446,205.795,0.112473
290.9000,0.775417,206.289,0.119605
290.8000,0.992433,205.417,0.107016
290.7000,0.504568,205.805,0.11262
290.6000,0.18835,204.205,0.089426
290.5000,-0.544936,206.504,0.122709
290.4000,0.390735,205.784,0.112325
290.3000,-0.70754,204.457,0.0930988
290.2000,2.0255,206.661,0.124978
290.1000,-0.289599,205.874,0.113619
290.0000,0.0576915,206.383,0.120961
289.9000,-0.574724,205.883,0.11375
289.8000,-0.485496,205.764,0.112031
289.7000,0.732099,206.775,0.126609
289.6000,0.734801,205.52,0.108508
289.5000,2.02445,205.838,0.113095
289.4000,0.400644,205.542,0.108819
289.3000,1.52021,205.961,0.114879
289.2000,1.15052,206.776,0.126625
289.1000,0.819421,206.885,0.128191
289.0000,0.274009,206.955,0.129202
288.9000,-0.0688258,205.519,0.108492
288.8000,1.1027,205.896,0.113946
288.7000,2.74507,205.378,0.106442
288.6000,2.11634,205.656,0.110474
288.5000,0.80778,205.357,0.106147
288.4000,1.59608,206.379,0.120912
288.3000,1.63276,206.393,0.121108
288.2000,0.472889,206.046,0.116106
288.1000,-0.679437,206.343,0.120389
288.0000,0.710845,205.553,0.108983
287.9000,0.912531,205.652,0.110409
287.8000,0.399163,206.377,0.120879
287.7000,0.871998,205.978,0.115125
287.6000,1.27423,206.376,0.120863
287.5000,2.07878,206.106,0.116973
287.4000,0.507246,205.716,0.111343
287.3000,1.13693,206.192,0.118215
287.2000,1.9119,206.618,0.124358
287.1000,0.139758,206.292,0.119654
287.0000,-1.11415,205.85,0.113275
286.9000,-0.386496,206.011,0.115599
286.8000,0.597883,204.941,0.100122
286.7000,1.26431,205.713,0.111294
286.6000,0.917272,204.652,0.0959294
286.5000,0.649701,205.492,0.108098
286.4000,1.46143,206.096,0.116826
286.3000,2.14388,206.175,0.11797
286.2000,-0.654879,207.007,0.129951
286.1000,1.23602,205.977,0.115108
286.0000,0.445234,206.668,0.125075
285.9000,0.365105,205.68,0.110818
285.8000,0.27178,207.147,0.131971
285.7000,-0.543125,206.16,0.117758
285.6000,1.42167,205.325,0.105687
285.5000,0.144285,205.661,0.11054
285.4000,1.02785,206.402,0.121239
285.3000,-0.0406539,205.787,0.112358
285.2000,1.81704,205.097,0.102372
285.1000,1.27712,205.962,0.114895
285.0000,1.37334,206.507,0.122758
284.9000,0.32208,206.017,0.115681
284.8000,0.561228,205.585,0.109442
284.7000,1.95165,205.799,0.112538
284.6000,1.57613,205.52,0.108508
284.5000,1.46878,205.911,0.114159
284.4000,-0.00806435,206.066,0.1164
284.3000,-0.300936,204.584,0.0949423
284.2000,1.17934,205.381,0.106491
284.1000,0.493877,206.606,0.124178
284.0000,1.40844,205.031,0.101419
283.9000,1.30351,205.344,0.10595
283.8000,0.801399,206.256,0.119131
283.7000,1.69735,206.214,0.118526
283.6000,0.147723,206.141,0.11748
283.5000,2.54754,206.852,0.127718
283.4000,0.442517,205.763,0.112014
283.3000,0.228095,205.251,0.104604
283.2000,0.879,206.636,0.124619
283.1000,2.31643,205.816,0.112784
283.0000,1.29038,205.874,0.113619
282.9000,1.72335,205.716,0.111343
282.8000,0.804208,206.103,0.116924
282.7000,1.02227,206.551,0.123394
282.6000,2.12487,206.009,0.115566
282.5000,2.10438,204.545,0.0943664
282.4000,0.971154,204.317,0.0910568
282.3000,1.30627,205.926,0.114371
282.2000,0.623494,204.76,0.0974918
282.1000,1.3992,206.036,0.115959
282.0000,0.0430812,205.668,0.110638
281.9000,1.62117,206.455,0.122007
281.8000,0.144661,206.274,0.119393
281.7000,0.086174,206.386,0.12101
281.6000,0.717953,205.475,0.107852
281.5000,2.20646,205.516,0.108442
281.4000,2.75185,205.818,0.112816
281.3000,-1.14448,205.749,0.111818
281.2000,-0.31334,205.749,0.111818
281.1000,0.84307,205.253,0.104637
281.0000,1.78084,205.481,0.107934
280.9000,0.627348,205.4,0.10677
280.8000,-0.221885,205.821,0.112849
280.7000,1.11198,205.643,0.110278
280.6000,-0.131867,206.106,0.116973
280.5000,1.63005,205.643,0.110278
280.4000,1.37094,205.795,0.112473
280.3000,1.40768,205.928,0.114404
280.2000,1.18256,205.638,0.110212
280.1000,0.623655,206.432,0.12168
280.0000,0.0152065,206.126,0.117267
279.9000,1.27662,205.28,0.105031
279.8000,-0.727292,205.686,0.1109
279.7000,-0.462757,206.107,0.116989
279.6000,0.821077,206.415,0.121435
279.5000,0.80444,205.501,0.108229
279.4000,0.226816,205.174,0.103488
279.3000,-1.262,205.578,0.109344
279.2000,1.01806,205.806,0.112636
279.1000,0.738283,206.112,0.117055
279.0000,3.41441,206.146,0.117545
278.9000,0.267535,205.823,0.112882
278.8000,1.06418,204.686,0.0964229
278.7000,-0.0881899,205.869,0.113553
278.6000,-0.91295,206.353,0.120536
278.5000,1.82038,205.295,0.105244
278.4000,-0.0664983,206.474,0.122284
278.3000,0.638702,205.639,0.110229
278.2000,-1.22395,205.908,0.11411
278.1000,1.64129,205.687,0.110917
278.0000,1.59042,206.392,0.121092
277.9000,0.564463,205.598,0.109639
277.8000,-0.74602,206.494,0.122562
277.7000,2.2433,206.266,0.119278
277.6000,1.7746,206.104,0.11694
277.5000,-2.64182,205.56,0.109082
277.4000,-0.452852,205.944,0.114634
277.3000,0.380261,205.307,0.105425
277.2000,0.842821,206.191,0.118199
277.1000,-0.27303,206.609,0.124227
277.0000,-0.587153,205.131,0.102864
276.9000,1.00787,205.485,0.108
276.8000,0.0842895,205.896,0.113946
276.7000,1.69244,205.881,0.113717
276.6000,0.568251,205.43,0.107196
276.5000,0.572467,206.565,0.12359
276.4000,1.27778,205.951,0.114732
276.3000,0.715451,205.455,0.107557
276.2000,1.24816,207.031,0.130293
276.1000,0.652721,205.248,0.104572
276.0000,1.18003,205.361,0.106196
275.9000,0.646304,205.077,0.102093
275.8000,-0.553156,206.272,0.11936
275.7000,-0.621248,207.626,0.138838
275.6000,1.52946,206.401,0.121222
275.5000,0.308461,206.5,0.12266
275.4000,0.343146,205.226,0.104243
275.3000,0.292083,205.902,0.114028
275.2000,0.864851,205.331,0.105769
275.1000,-0.154089,206.04,0.116024
275.0000,0.0288915,206.632,0.124553
274.9000,0.761587,207.143,0.131906
274.8000,-0.119874,206.323,0.120095
274.7000,0.949725,206.445,0.121859
274.6000,1.20773,206.109,0.117022
274.5000,1.42687,207.053,0.130619
274.4000,-0.503005,205.367,0.106294
274.3000,-1.03139,207.011,0.130016
274.2000,-1.56831,206.531,0.1231
274.1000,0.795164,206.514,0.122856
274.0000,0.182438,207.093,0.131189
273.9000,-1.18244,206.746,0.126201
273.8000,0.0143875,206.175,0.11797
273.7000,1.27356,205.61,0.109803
273.6000,-1.60411,206.555,0.123443
273.5000,1.73616,204.753,0.0973929
273.4000,-0.151577,205.912,0.114175
273.3000,-0.773106,207.155,0.132085
273.2000,0.489937,205.544,0.108852
273.1000,2.0159,206.051,0.116171
273.0000,0.273766,205.893,0.113897
272.9000,1.85966,205.705,0.111179
272.8000,0.46735,206.472,0.122252
272.7000,0.686796,205.847,0.113226
272.6000,0.685065,205.204,0.103931
272.5000,0.689716,205.261,0.104752
272.4000,1.92249,206.534,0.12315
272.3000,0.899634,205.372,0.10636
272.2000,-1.14687,206.205,0.118396
272.1000,0.602865,206.051,0.116171
272.0000,1.28644,207.033,0.130326
271.9000,-0.519021,206.377,0.120879
271.8000,-1.00236,205.946,0.114666
271.7000,0.900368,205.563,0.109131
271.6000,1.0483,206.453,0.121974
271.5000,2.22242,205.836,0.113079
271.4000,0.760566,206.028,0.115844
271.3000,-1.5489,207.184,0.132492
271.2000,0.392644,206.665,0.125027
271.1000,1.26256,207.544,0.137667
271.0000,0.973358,205.841,0.113144
270.9000,-1.12233,206.104,0.11694
270.8000,-0.92774,206.251,0.119066
270.7000,0.888714,206.898,0.128386
270.6000,-0.136898,207.954,0.143549
270.5000,1.10024,208.26,0.147929
270.4000,1.10481,206.718,0.125793
270.3000,-0.826674,206.326,0.120144
270.2000,0.758958,206.292,0.119654
270.1000,-0.459947,205.978,0.115125
270.0000,1.85727,205.756,0.111916
269.9000,0.713199,206.461,0.122088
269.8000,0.701882,206.353,0.120536
269.7000,1.12037,207.107,0.131385
269.6000,-0.308406,206.65,0.124814
269.5000,-0.099455,206.502,0.122676
269.4000,-0.605249,206.088,0.116711
269.3000,0.935206,207.897,0.142737
269.2000,1.74616,206.889,0.128256
269.1000,0.732835,208.324,0.148838
269.0000,0.619084,205.678,0.110786
268.9000,2.13549,206.959,0.129267
268.8000,-1.03811,206.228,0.118739
268.7000,2.92879,207.188,0.132557
268.6000,0.140779,206.533,0.123133
268.5000,0.426443,206.81,0.127115
268.4000,0.023983,206.56,0.123525
268.3000,0.551275,206.574,0.123721
268.2000,0.546923,206.938,0.128957
268.1000,1.34421,206.554,0.123427
268.0000,1.23092,207.133,0.131759
267.9000,-0.390045,207.791,0.14121
267.8000,-1.58679,207.267,0.133697
267.7000,0.080176,207.405,0.135666
267.6000,0.83711,205.502,0.108246
267.5000,1.78613,206.222,0.118641
267.4000,0.93529,207.031,0.130293
267.3000,0.68922,207.415,0.135813
267.2000,0.681196,206.585,0.123884
267.1000,0.220081,206.911,0.128566
267.0000,1.34321,207.083,0.131043
266.9000,-0.524807,206.889,0.128256
266.8000,0.194692,206.794,0.126886
266.7000,0.834994,206.667,0.125059
266.6000,0.631396,207.968,0.143744
266.5000,-0.200509,207.475,0.136675
266.4000,0.796972,207.126,0.131662
266.3000,1.97776,207.151,0.13202
266.2000,0.487314,207.777,0.141015
266.1000,-0.943813,206.419,0.121484
266.0000,1.27536,207.828,0.141746
265.9000,-0.879847,208.078,0.145318
265.8000,0.575955,208.68,0.15394
265.7000,0.938464,208.091,0.145513
265.6000,0.668936,207.916,0.142997
265.5000,1.31176,206.916,0.128647
265.4000,0.198806,207.198,0.132704
265.3000,1.42433,208.433,0.15041
265.2000,1.5737,207.998,0.144182
265.1000,0.404403,207.709,0.14004
265.0000,1.36235,208.016,0.144442
264.9000,0.517166,207.93,0.143208
264.8000,1.88463,207.18,0.132444
264.7000,0.603867,209.211,0.161508
264.6000,1.47157,207.884,0.142542
264.5000,0.663738,207.091,0.131157
264.4000,1.07393,207.025,0.130212
264.3000,-0.0584663,207.688,0.139732
264.2000,0.483674,208.464,0.150847
264.1000,0.743366,208.389,0.149778
264.0000,0.699412,207.213,0.132916
263.9000,2.72417,208.739,0.154782
263.8000,0.648295,208.226,0.147443
263.7000,1.41333,207.694,0.139813
263.6000,1.71657,207.363,0.135064
263.5000,-0.101529,208.021,0.144506
263.4000,0.446486,208.192,0.146956
263.3000,-0.0381938,208.429,0.150345
263.2000,0.440747,208.098,0.14561
263.1000,0.368911,208.027,0.144588
263.0000,-0.212861,208.049,0.144912
262.9000,-0.807177,208.313,0.148692
262.8000,-0.538541,207.578,0.138155
262.7000,1.57729,208.168,0.146616
262.6000,0.721213,209.084,0.159699
262.5000,0.499719,208.219,0.147346
262.4000,0.408794,208.535,0.151868
262.3000,2.20519,208.966,0.158017
262.2000,0.527371,208.328,0.148902
262.1000,-0.643637,208.092,0.145529
262.0000,0.23517,208.154,0.146405
261.9000,1.5251,208.001,0.144215
261.8000,-0.174604,207.897,0.142737
261.7000,1.60224,208.527,0.151754
261.6000,0.105805,208.388,0.149761
261.5000,0.96891,208.351,0.149226
261.4000,2.97958,209.134,0.16041
261.3000,0.671245,208.229,0.147492
261.2000,1.34768,209.45,0.164915
261.1000,-0.870566,207.488,0.13687
261.0000,-2.02177,208.802,0.155672
260.9000,-0.804211,208.791,0.155526
260.8000,-0.242558,208.706,0.154313
260.7000,0.125747,208.603,0.152839
260.6000,-1.21387,208.611,0.152953
260.5000,-0.209591,209.046,0.159165
260.4000,-0.185966,208.88,0.156788
260.3000,1.0061,208.764,0.155138
260.2000,-1.80976,209.448,0.164883
260.1000,0.819266,209.101,0.159941
260.0000,0.595986,208.946,0.157726
259.9000,0.503454,208.658,0.153617
259.8000,0.104195,208.9,0.157079
259.7000,1.44735,208.599,0.152775
259.6000,1.9102,208.934,0.157565
259.5000,1.04992,209.496,0.165577
259.4000,0.959853,209.27,0.162348
259.3000,2.18087,209.674,0.16811
259.2000,-1.17536,209.381,0.163931
259.1000,0.343383,209.382,0.163947
259.0000,-0.803233,210.04,0.173314
258.9000,-0.634592,209.129,0.160345
258.8000,-1.80534,209.15,0.160636
258.7000,0.703673,208.904,0.157128
258.6000,-0.463871,209.504,0.16569
258.5000,0.0819672,209.843,0.170511
258.4000,0.0942249,209.488,0.165464
258.3000,0.699593,210.374,0.178061
258.2000,0.402197,209.492,0.165513
258.1000,-0.747709,209.125,0.16028
258.0000,0.917564,210.117,0.174409
257.9000,-0.366846,209.197,0.161315
257.8000,-0.869061,209.696,0.168416
257.7000,0.723006,208.702,0.154248
257.6000,2.22411,209.91,0.171462
257.5000,1.42224,209.81,0.170044
257.4000,3.07055,209.398,0.164173
257.3000,-0.309341,210.424,0.178769
257.2000,2.46632,210.61,0.181404
257.1000,1.93685,209.63,0.167481
257.0000,0.606434,209.651,0.167787
256.9000,0.0678873,210.962,0.186397
256.8000,-0.127932,210.879,0.18521
256.7000,2.1283,209.139,0.160491
256.6000,1.32824,209.927,0.171704
256.5000,0.209418,210.414,0.178624
256.4000,-0.741675,210.455,0.179203
256.3000,-1.24773,209.93,0.171752
256.2000,0.729691,209.556,0.166432
256.1000,0.951396,209.02,0.158794
256.0000,-0.960162,209.937,0.171849
255.9000,0.163628,209.922,0.171639
255.8000,0.367955,210.97,0.18651
255.7000,0.590623,210.257,0.176388
255.6000,1.41708,211.107,0.188451
255.5000,0.819788,211.181,0.189493
255.4000,1.26471,210.904,0.185563
255.3000,1.58312,210.605,0.18134
255.2000,1.08537,210.346,0.177659
255.1000,0.128164,211.174,0.189397
255.0000,0.0489667,210.15,0.174876
254.9000,-0.183095,211.098,0.188322
254.8000,0.567975,210.747,0.183348
254.7000,1.07458,210.676,0.182336
254.6000,-0.376334,210.406,0.178511
254.5000,-0.123855,210.858,0.184921
254.4000,0.0257572,210.504,0.179894
254.3000,1.81076,211.371,0.192185
254.2000,0.788969,210.924,0.185852
254.1000,0.148563,210.391,0.178302
254.0000,0.878638,210.723,0.183011
253.9000,0.524463,211.041,0.187504
253.8000,2.30882,210.543,0.180456
253.7000,2.06851,210.675,0.18232
253.6000,0.203872,211.106,0.188435
253.5000,0.842114,210.977,0.186606
253.4000,0.986702,211.14,0.188916
253.3000,0.69175,211.198,0.189733
253.2000,-0.722037,211.037,0.187456
253.1000,-0.333966,211.052,0.187665
253.0000,2.26606,211.48,0.193722
252.9000,0.0516713,211.13,0.188771
252.8000,0.0466326,211.26,0.190615
252.7000,1.05507,211.313,0.191352
252.6000,0.235007,211.163,0.189236
252.5000,-0.889768,211.382,0.192329
252.4000,0.902817,211.473,0.193626
252.3000,0.369857,211.135,0.188835
252.2000,1.05352,211.76,0.197675
252.1000,1.25896,211.417,0.192826
252.0000,1.49185,211.597,0.195371
251.9000,-0.448873,211.997,0.201016
251.8000,2.72365,211.745,0.197467
251.7000,-0.17164,211.795,0.198171
251.6000,-1.01425,211.621,0.195707
251.5000,-1.25508,211.999,0.201048
251.4000,1.82219,212.023,0.201384
251.3000,0.0782593,211.652,0.196155
251.2000,1.59478,212.154,0.203237
251.1000,-1.29688,211.973,0.200681
251.0000,1.07363,211.897,0.19961
250.9000,0.532975,211.594,0.195323
250.8000,-0.122249,212.676,0.210575
250.7000,2.02508,212.314,0.205488
250.6000,2.09877,212.022,0.201368
250.5000,0.627629,212.071,0.202055
250.4000,0.318089,212.09,0.202326
250.3000,0.091774,211.909,0.199769
250.2000,1.0114,211.816,0.198458
250.1000,0.335445,212.069,0.202039
250.0000,0.149353,211.615,0.195627
249.9000,1.4325,211.893,0.199546
249.8000,-0.00726599,212.272,0.204897
249.7000,0.798618,212.59,0.209364
249.6000,1.26995,212.629,0.209922
249.5000,0.159386,212.076,0.202134
249.4000,-0.774388,213.652,0.224287
249.3000,1.73997,212.354,0.206046
249.2000,-1.4851,211.962,0.200521
249.1000,0.201912,212.311,0.20544
249.0000,2.44133,211.935,0.200137
248.9000,-0.731061,212.418,0.206955
248.8000,1.99769,212.167,0.203412
248.7000,1.59144,211.739,0.197371
248.6000,0.855254,212.38,0.206413
248.5000,0.348201,212.476,0.207769
248.4000,0.987659,212.548,0.208774
248.3000,0.21027,212.297,0.205248
248.2000,1.58881,212.142,0.203061
248.1000,0.953898,212.721,0.211213
248.0000,0.109097,212.361,0.206142
247.9000,0.946773,212.9,0.213729
247.8000,1.8782,213.127,0.216913
247.7000,0.815131,213.182,0.217692
247.6000,-0.0360635,213.341,0.219918
247.5000,0.502263,212.884,0.213507
247.4000,-1.10801,213.145,0.217167
247.3000,0.499731,213.531,0.222588
247.2000,-1.09697,213.136,0.21704
247.1000,1.42829,213.554,0.222906
247.0000,0.183836,213.259,0.218774
246.9000,0.553945,213.133,0.217008
246.8000,-0.467683,214.092,0.230443
246.7000,1.14254,213.558,0.222969
246.6000,-0.897478,213.101,0.216547
246.5000,0.667085,213.028,0.215528
246.4000,1.05056,213.899,0.227747
246.3000,0.265655,213.539,0.222699
246.2000,1.32892,213.286,0.219155
246.1000,0.320079,213.338,0.219887
246.0000,0.793868,213.408,0.220856
245.9000,1.54031,213.746,0.225605
245.8000,2.60078,213.866,0.227287
245.7000,1.70739,213.903,0.227794
245.6000,0.215259,213.731,0.225383
245.5000,1.46513,213.897,0.227715
245.4000,-0.709413,214.032,0.229602
245.3000,1.04612,213.846,0.227001
245.2000,-0.251968,213.857,0.22716
245.1000,2.39058,213.646,0.224192
245.0000,1.90297,214.178,0.231647
244.9000,-0.527924,213.919,0.228017
244.8000,1.20397,214.213,0.232138
244.7000,-0.112578,213.184,0.217724
244.6000,2.03871,214.306,0.233437
244.5000,1.69278,214.117,0.230791
244.4000,0.298149,213.949,0.228445
244.3000,0.344222,214.068,0.23011
244.2000,1.08865,214.695,0.238865
244.1000,0.528969,214.638,0.238075
244.0000,1.2617,213.899,0.227747
243.9000,1.05853,214.655,0.238312
243.8000,-0.0895597,214.575,0.237189
243.7000,0.784324,214.474,0.23578
243.6000,-0.0529001,214.482,0.235891
243.5000,1.60644,214.18,0.231679
243.4000,-0.0159718,214.903,0.241774
243.3000,1.04336,214.407,0.234846
243.2000,1.30811,214.6,0.237537
243.1000,0.616442,214.174,0.231584
243.0000,0.847401,214.123,0.230871
242.9000,0.19991,214.802,0.240367
242.8000,0.773607,214.537,0.236666
242.7000,2.10941,214.805,0.240399
242.6000,0.475345,214.502,0.236176
242.5000,0.553904,214.617,0.237774
242.4000,-0.961385,214.936,0.242232
242.3000,1.70207,215.329,0.24771
242.2000,-0.330423,215.613,0.251652
242.1000,-0.631941,215.007,0.243227
242.0000,0.937824,215.915,0.255857
241.9000,1.32553,215.333,0.247758
241.8000,0.234549,216.054,0.257793
241.7000,-0.676824,214.833,0.240794
241.6000,-0.344422,214.771,0.239925
241.5000,-1.0476,215.89,0.255511
241.4000,-0.502453,215.505,0.250155
241.3000,0.462348,215.775,0.253905
241.2000,0.0371104,216.462,0.263452
241.1000,1.19876,215.807,0.254362
241.0000,-0.739196,216.367,0.262132
240.9000,1.03726,216.084,0.258202
240.8000,-0.363414,216.065,0.257934
240.7000,1.99114,216.359,0.262022
240.6000,0.602449,216.312,0.261362
240.5000,-0.0149708,215.462,0.249556
240.4000,-1.24907,216.554,0.264724
240.3000,1.44443,216.818,0.268381
240.2000,1.04948,216.723,0.267063
240.1000,2.00562,216.369,0.262164
240.0000,0.994089,216.101,0.258438
239.9000,0.485848,216.627,0.265729
239.8000,0.151088,215.963,0.256518
239.7000,-0.458512,216.916,0.269729
239.6000,0.406887,216.142,0.259004
239.5000,0.340073,217.078,0.271971
239.4000,-0.400646,216.811,0.268287
239.3000,0.472631,215.25,0.246606
239.2000,-0.970315,217.228,0.274055
239.1000,0.196869,217.346,0.275683
239.0000,-0.894302,216.708,0.266859
238.9000,-0.138281,217.378,0.276122
238.8000,0.409794,217.431,0.276857
238.7000,-0.332748,217.576,0.27886
238.6000,0.524226,216.856,0.268898
238.5000,-0.455048,217.948,0.283986
238.4000,1.86215,217.625,0.279532
238.3000,-0.172214,217.855,0.282705
238.2000,-1.01431,217.902,0.283362
238.1000,-0.755476,218.438,0.290743
238.0000,1.55515,218.148,0.28675
237.9000,1.04633,218.249,0.288139
237.8000,2.07491,217.918,0.28358
237.7000,0.271218,218.097,0.286048
237.6000,-0.0329242,218.155,0.286844
237.5000,1.60188,218.097,0.286048
237.4000,1.38218,218.66,0.293798
237.3000,2.6353,219.076,0.29951
237.2000,3.49648,219.109,0.299961
237.1000,0.326862,218.612,0.293128
237.0000,1.35613,218.045,0.28533
236.9000,-0.0735827,219.005,0.29853
236.8000,-0.128442,218.462,0.291071
236.7000,1.25368,218.304,0.288888
236.6000,0.00544703,219.205,0.301283
236.5000,2.78173,219.761,0.308892
236.4000,1.28911,220.797,0.323059
236.3000,0.674833,219.669,0.307635
236.2000,2.69879,219.782,0.309187
236.1000,1.32019,219.327,0.302946
236.0000,1.37562,219.158,0.30063
235.9000,0.761205,219.437,0.304453
235.8000,0.975456,220.401,0.317646
235.7000,1.06903,220.524,0.319333
235.6000,-0.157488,219.762,0.308908
235.5000,0.771486,220.069,0.313109
235.4000,3.45002,219.558,0.306114
235.3000,-0.0736122,219.011,0.298608
235.2000,0.267236,219.003,0.298499
235.1000,2.00717,219.967,0.311714
235.0000,2.18859,219.879,0.310505
234.9000,-0.0341742,220.067,0.313078
234.8000,-1.3997,221.125,0.327522
234.7000,0.16598,220.46,0.318451
234.6000,-0.256752,220.716,0.321946
234.5000,2.41975,221.747,0.335986
234.4000,0.254132,220.74,0.322271
234.3000,0.763577,220.688,0.32156
234.2000,1.63636,220.801,0.323105
234.1000,0.904839,220.557,0.319781
234.0000,2.94475,219.432,0.30439
233.9000,-0.513279,220.763,0.322595
233.8000,2.12814,221.133,0.32763
233.7000,0.657327,220.63,0.320771
233.6000,1.53836,220.444,0.318234
233.5000,0.843276,221.008,0.325932
233.4000,0.441477,221.259,0.329343
233.3000,0.193495,221.25,0.329219
233.2000,1.79469,222.481,0.34595
233.1000,0.617138,220.766,0.322626
233.0000,4.36558,221.523,0.332935
232.9000,-1.6535,222.06,0.340233
232.8000,1.14835,221.986,0.339233
232.7000,1.10691,221.886,0.337879
232.6000,-1.08943,222.057,0.340202
232.5000,0.881073,221.892,0.337956
232.4000,1.17453,222.02,0.339695
232.3000,0.100985,222.144,0.341371
232.2000,0.526644,222.025,0.339756
232.1000,0.367749,222.239,0.342662
232.0000,-0.928519,222.962,0.352455
231.9000,0.707734,222.766,0.349803
231.8000,-0.578586,222.74,0.34945
231.7000,1.60531,222.384,0.344629
231.6000,1.95885,223.255,0.356423
231.5000,0.92749,223.198,0.355658
231.4000,0.552298,222.523,0.346518
231.3000,0.674881,222.672,0.348529
231.2000,1.15209,222.524,0.346534
231.1000,1.65701,224.269,0.370103
231.0000,0.918851,222.917,0.351858
230.9000,0.464537,223.223,0.355995
230.8000,1.05336,223.566,0.360617
230.7000,0.251347,223.399,0.358368
230.6000,1.84361,223.306,0.357112
230.5000,2.67655,223.741,0.362987
230.4000,0.496904,223.313,0.357204
230.3000,0.689584,223.3,0.357036
230.2000,1.06492,222.842,0.35083
230.1000,3.71385,223.543,0.360311
230.0000,2.17596,223.452,0.359087
229.9000,-0.0369221,223.52,0.360005
229.8000,-1.69964,223.391,0.358261
229.7000,1.89468,223.388,0.358215
229.6000,-0.75502,223.725,0.362773
229.5000,0.685679,223.976,0.366149
229.4000,1.30825,224.275,0.370179
229.3000,-1.77558,224.091,0.367707
229.2000,0.732104,224.18,0.368897
229.1000,0.248037,224.82,0.377509
229.0000,3.25427,224.015,0.366684
228.9000,1.27197,224.278,0.370225
228.8000,-0.767589,224.978,0.37964
228.7000,1.07939,225.168,0.38218
228.6000,-2.60685,224.82,0.377509
228.5000,1.91934,224.76,0.376702
228.4000,1.81934,225.001,0.379944
228.3000,0.749657,225.547,0.38727
228.2000,2.27946,225.417,0.385524
228.1000,0.940763,225.879,0.391717
228.0000,1.32856,225.563,0.387483
227.9000,0.620185,225.972,0.39296
227.8000,1.20691,226.035,0.393794
227.7000,0.0646472,226.172,0.395627
227.6000,1.81028,226.317,0.397566
227.5000,0.150358,226.124,0.394991
227.4000,0.406269,226.388,0.39852
227.3000,0.193388,226.373,0.398323
227.2000,1.14147,226.459,0.399473
227.1000,0.844361,226.812,0.404177
227.0000,-0.455158,227.426,0.412359
226.9000,2.18232,227.113,0.408195
226.8000,0.816834,227.599,0.414666
226.7000,-0.919323,228.113,0.421487
226.6000,0.232698,227.692,0.415902
226.5000,0.550786,227.748,0.41664
226.4000,-0.0837816,227.803,0.417378
226.3000,1.00706,227.186,0.409161
226.2000,1.51179,227.308,0.410791
226.1000,-0.0331321,227.8,0.417333
226.0000,1.32351,227.822,0.417634
225.9000,1.16828,227.14,0.408557
225.8000,1.95728,227.265,0.410217
225.7000,-1.5943,228.171,0.422269
225.6000,-0.581475,228.316,0.424194
225.5000,0.31916,227.779,0.417062
225.4000,0.313552,228.136,0.421803
225.3000,1.10766,228.667,0.428835
225.2000,0.834013,228.354,0.42469
225.1000,0.688221,228.113,0.421487
225.0000,0.876884,227.794,0.417257
224.9000,2.2603,228.843,0.431177
224.8000,0.975531,229.095,0.434506
224.7000,-0.443953,229.058,0.434011
224.6000,3.46529,228.993,0.433157
224.5000,2.53838,229.957,0.445895
224.4000,0.32554,230.299,0.450406
224.3000,0.0728162,230.064,0.4473
224.2000,0.537447,230.04,0.446986
224.1000,2.5092,230.338,0.450913
224.0000,1.56482,230.216,0.449301
223.9000,1.25966,229.663,0.442008
223.8000,1.23867,230.583,0.454135
223.7000,0.460354,229.4,0.438536
223.6000,0.723229,229.539,0.440377
223.5000,0.422778,229.985,0.446269
223.4000,2.96793,229.797,0.443788
223.3000,0.772194,230.348,0.451047
223.2000,1.31842,230.426,0.452077
223.1000,2.01131,231.123,0.46124
223.0000,0.0810601,229.664,0.442023
222.9000,0.688843,230.636,0.454836
222.8000,0.301191,231.247,0.462862
222.7000,1.46898,231.209,0.462371
222.6000,0.898833,231.379,0.464602
222.5000,1.80594,231.023,0.45993
222.4000,0.816402,231.854,0.470826
222.3000,0.557726,231.251,0.462921
222.2000,0.68706,231.931,0.471835
222.1000,-0.93711,231.86,0.4709
222.0000,1.88338,231.626,0.467841
221.9000,1.51299,231.887,0.471256
221.8000,1.13135,232.129,0.474431
221.7000,1.87819,231.559,0.466965
221.6000,0.991585,231.894,0.471345
221.5000,0.604175,231.77,0.469727
221.4000,3.37485,232.23,0.47575
221.3000,-1.43412,232.295,0.476595
221.2000,0.17748,233.052,0.486481
221.1000,1.3647,232.929,0.484884
221.0000,0.805078,232.332,0.477084
220.9000,1.2622,232.69,0.481763
220.8000,0.0634093,233.075,0.486791
220.7000,1.39492,232.829,0.483583
220.6000,0.773769,233.518,0.492565
220.5000,1.72925,232.937,0.484988
220.4000,2.19426,232.448,0.478595
220.3000,-0.153407,233.129,0.487486
220.2000,-0.635136,234.096,0.500082
220.1000,1.76372,232.828,0.483568
220.0000,2.73279,233.728,0.495293
219.9000,1.1873,234.346,0.50332
219.8000,2.75717,234.146,0.50073
219.7000,-1.20752,233.842,0.496782
219.6000,0.367837,234.189,0.501289
219.5000,1.36898,234.585,0.506423
219.4000,-0.0630406,234.602,0.506643
219.3000,2.25203,233.944,0.498108
219.2000,1.60606,234.935,0.510962
219.1000,2.84012,234.833,0.509641
219.0000,1.03398,234.118,0.500362
218.9000,0.318252,235.045,0.512386
218.8000,1.69715,235.283,0.515467
218.7000,2.2667,234.898,0.510492
218.6000,-1.09725,234.928,0.510874
218.5000,2.42635,235.369,0.516581
218.4000,0.439724,235.028,0.512166
218.3000,-0.810176,235.494,0.518208
218.2000,2.39556,236.172,0.52696
218.1000,2.38907,235.178,0.514118
218.0000,0.860513,236.035,0.52519
217.9000,-0.285282,235.261,0.515188
217.8000,0.563956,235.885,0.52326
217.7000,0.501252,236.787,0.534889
217.6000,1.61427,235.881,0.523201
217.5000,2.26784,236.935,0.536784
217.4000,3.88909,236.599,0.532466
217.3000,2.26759,236.311,0.528757
217.2000,-0.197478,236.524,0.531503
217.1000,1.93843,237.408,0.542873
217.0000,0.878221,235.843,0.522718
216.9000,-1.05587,236.909,0.536449
216.8000,1.75284,236.603,0.53251
216.7000,1.9653,237.384,0.542567
216.6000,2.23654,236.18,0.527062
216.5000,1.36867,237.146,0.539509
216.4000,-1.04454,237.831,0.548298
216.3000,0.565641,237.928,0.549548
216.2000,1.6498,237.299,0.541476
216.1000,1.36883,237.944,0.549751
216.0000,2.41752,237.708,0.546728
215.9000,2.97026,238.062,0.551262
215.8000,0.723564,237.67,0.546234
215.7000,0.505434,238.693,0.559341
215.6000,-0.452325,237.591,0.545216
215.5000,-1.30315,237.61,0.545463
215.4000,2.05008,238.463,0.556399
215.3000,-1.32526,238.29,0.554179
215.2000,1.90715,238.593,0.558066
215.1000,0.955171,238.617,0.558371
215.0000,0.166861,239.056,0.563975
214.9000,1.03868,239.155,0.565249
214.8000,0.277474,239.285,0.566898
214.7000,-0.0955303,238.819,0.560949
214.6000,2.66201,239.138,0.565032
214.5000,1.17288,239.524,0.569947
214.4000,0.258883,238.704,0.559486
214.3000,2.34847,238.953,0.562658
214.2000,1.41829,239.041,0.563787
214.1000,2.84477,239.315,0.567288
214.0000,0.995326,239.856,0.574178
213.9000,0.514703,239.001,0.563281
213.8000,0.114721,239.366,0.567939
213.7000,1.71937,239.986,0.575838
213.6000,-1.04643,239.817,0.573688
213.5000,-0.884502,240.031,0.576415
213.4000,-0.634049,239.24,0.566334
213.3000,0.377429,240.387,0.580941
213.2000,0.301139,239.35,0.567736
213.1000,1.78073,240.237,0.579039
213.0000,0.312445,241.005,0.588783
212.9000,1.0364,240.676,0.584612
212.8000,2.87298,240.197,0.57852
212.7000,3.49714,240.921,0.587719
212.6000,1.42765,241.203,0.591298
212.5000,2.10816,241.042,0.589258
212.4000,3.32872,241.292,0.592433
212.3000,4.60876,240.204,0.578606
212.2000,1.05316,240.787,0.586022
212.1000,2.17649,241.018,0.588956
212.0000,2.33464,241.487,0.594902
211.9000,1.26542,241.965,0.600953
211.8000,-0.327312,242.278,0.604906
211.7000,2.69557,242.063,0.602185
211.6000,1.70211,242.925,0.613069
211.5000,-2.24403,242.286,0.605006
211.4000,2.40973,242.32,0.605435
211.3000,2.81002,242.319,0.605421
211.2000,4.96277,242.148,0.603259
211.1000,3.783,243.166,0.61611
211.0000,5.2421,243.174,0.61621
210.9000,1.13736,242.718,0.610455
210.8000,0.388716,243.417,0.619262
210.7000,4.38643,243.787,0.623921
210.6000,0.24476,243.296,0.617736
210.5000,1.57896,243.008,0.614111
210.4000,0.536441,243.719,0.623066
210.3000,1.91996,244.178,0.62883
210.2000,0.825851,243.496,0.62026
210.1000,-0.0960212,243.767,0.623665
210.0000,2.36758,243.934,0.625757
209.9000,1.93946,244.647,0.634713
209.8000,1.80011,243.639,0.622055
209.7000,2.81558,244.748,0.635976
209.6000,3.62384,244.365,0.631176
209.5000,2.04185,244.591,0.634003
209.4000,1.36773,245.03,0.639508
209.3000,2.97433,244.817,0.636842
209.2000,-0.0574164,245.165,0.641195
209.1000,1.25257,246.291,0.655256
209.0000,2.29372,245.38,0.643887
208.9000,-0.136999,246.238,0.654593
208.8000,-0.0844771,245.974,0.651301
208.7000,1.07592,245.989,0.651485
208.6000,1.61462,245.473,0.645048
208.5000,0.00112444,246.448,0.657204
208.4000,2.23417,246.09,0.652742
208.3000,3.70441,245.978,0.651343
208.2000,-0.0640135,246.465,0.657416
208.1000,-0.0039734,246.213,0.654282
208.0000,2.72009,247.153,0.665971
207.9000,-0.142814,247.486,0.670108
207.8000,1.07965,247.625,0.671838
207.7000,2.08627,247.801,0.674016
207.6000,3.42417,247.46,0.669785
207.5000,3.62514,248.214,0.67914
207.4000,1.01344,247.795,0.673946
207.3000,2.34279,247.693,0.672681
207.2000,1.25281,248.206,0.679041
207.1000,2.1232,248.224,0.679266
207.0000,5.03367,248.047,0.677063
206.9000,4.09599,248.294,0.680122
206.8000,1.2723,248.414,0.681608
206.7000,0.992929,248.309,0.680318
206.6000,1.45682,248.853,0.687044
206.5000,0.626112,249.063,0.689632
206.4000,1.78624,248.892,0.687519
206.3000,1.48975,249.575,0.69595
206.2000,3.88853,250.034,0.701602
206.1000,0.285635,249.402,0.693813
206.0000,-0.697064,249.888,0.699802
205.9000,3.01228,249.79,0.698602
205.8000,2.25609,249.819,0.698951
205.7000,-0.251096,250.376,0.70581
205.6000,0.939135,250.074,0.70209
205.5000,2.36032,250.625,0.708873
205.4000,-0.132152,250.715,0.709972
205.3000,1.58519,251.054,0.71413
205.2000,1.01578,251.595,0.720767
205.1000,5.00817,251.353,0.717797
205.0000,1.29773,251.068,0.714311
204.9000,3.74915,251.787,0.72311
204.8000,-0.0458651,251.046,0.714033
204.7000,3.76422,252.588,0.732899
204.6000,0.489601,252.086,0.726769
204.5000,2.24571,252.697,0.734226
204.4000,1.71448,252.419,0.730838
204.3000,4.82738,252.339,0.729856
204.2000,0.465108,252.633,0.733452
204.1000,1.88068,252.861,0.73623
204.0000,1.61592,253.486,0.743848
203.9000,1.15263,253.468,0.743627
203.8000,1.65859,254.076,0.75101
203.7000,6.86513,253.681,0.746219
203.6000,0.984203,254.039,0.75057
203.5000,-0.316075,254.072,0.750969
203.4000,0.771289,254.405,0.755012
203.3000,1.41088,254.771,0.759449
203.2000,4.20577,255.023,0.762496
203.1000,2.37664,254.429,0.755301
203.0000,1.13108,255.478,0.768006
202.9000,1.78075,255.456,0.767732
202.8000,2.28571,255.323,0.766129
202.7000,1.512,254.785,0.759614
202.6000,1.41458,255.856,0.772565
202.5000,0.231334,255.637,0.769923
202.4000,-0.0388661,255.495,0.768212
202.3000,2.21692,256.605,0.781597
202.2000,1.18308,255.97,0.773946
202.1000,0.295919,256.158,0.776216
202.0000,0.513399,256.733,0.783138
201.9000,2.03186,257.916,0.797353
201.8000,-1.36524,257.649,0.794158
201.7000,1.94467,257.311,0.790089
201.6000,1.91756,257.82,0.796212
201.5000,3.80458,258.024,0.798658
201.4000,1.8808,258.767,0.807545
201.3000,1.99123,258.079,0.79931
201.2000,-0.309455,258.487,0.804196
201.1000,3.45659,258.787,0.80779
201.0000,0.601569,258.84,0.808426
200.9000,3.80873,258.846,0.808494
200.8000,-0.761721,258.824,0.808237
200.7000,2.9983,259.514,0.81648
200.6000,1.46994,259.421,0.815371
200.5000,1.30253,259.687,0.818534
200.4000,0.676823,260.96,0.833692
200.3000,1.85986,260.149,0.824044
200.2000,0.414278,260.379,0.826782
200.1000,4.56354,260.746,0.831148
200.0000,1.50974,260.787,0.831633
199.9000,3.33498,261.298,0.837701
199.8000,1.09534,261.016,0.834352
199.7000,1.6658,261.087,0.835199
199.6000,0.285888,261.092,0.835253
199.5000,3.95672,261.889,0.844712
199.4000,0.239224,261.412,0.839058
199.3000,2.29255,262.193,0.848306
199.2000,-1.06435,261.651,0.841893
199.1000,1.39704,261.787,0.843504
199.0000,0.953921,262.149,0.847783
198.9000,1.89945,262.117,0.847408
198.8000,1.17799,262.916,0.85685
198.7000,-0.068619,262.67,0.853946
198.6000,2.87231,262.793,0.855405
198.5000,1.008,262.851,0.856087
198.4000,5.13404,263.088,0.858882
198.3000,-0.32584,262.609,0.853223
198.2000,3.1144,263.734,0.866494
198.1000,5.1444,263.655,0.86556
198.0000,2.9595,263.011,0.857973
197.9000,2.19713,263.478,0.863478
197.8000,0.821821,264.145,0.871334
197.7000,-0.150663,264.09,0.870681
197.6000,0.925367,263.81,0.867388
197.5000,-0.826374,264.159,0.871494
197.4000,2.71439,265.095,0.882482
197.3000,2.79434,264.143,0.871307
197.2000,1.40637,264.247,0.872533
197.1000,-0.0685036,265.061,0.882084
197.0000,2.65259,264.511,0.875635
196.9000,-0.987315,264.805,0.87908
196.8000,0.00438843,264.668,0.877471
196.7000,1.0644,265.024,0.881659
196.6000,1.39423,265.351,0.885483
196.5000,-0.828009,265.568,0.888031
196.4000,1.65432,265.066,0.88215
196.3000,2.708,265.929,0.892247
196.2000,3.6583,265.345,0.885417
196.1000,1.66398,265.512,0.887368
196.0000,0.0544701,265.62,0.888641
195.9000,0.208004,265.922,0.892167
195.8000,2.79212,266.049,0.893651
195.7000,-0.593849,266.252,0.896021
195.6000,0.384687,265.886,0.891743
195.5000,-2.19867,266.277,0.896312
195.4000,2.71121,266.341,0.897066
195.3000,3.72746,266.069,0.893889
195.2000,0.901227,266.096,0.894207
195.1000,1.97081,266.398,0.897728
195.0000,1.40879,266.436,0.898178
194.9000,-4.24228,266.896,0.903544
194.8000,2.53665,266.264,0.896167
194.7000,2.72213,266.429,0.898098
194.6000,-0.017616,266.695,0.901193
194.5000,-2.57712,266.933,0.903967
194.4000,3.22124,266.846,0.902963
194.3000,-0.0919999,266.476,0.898641
194.2000,-0.056196,266.266,0.896193
194.1000,3.71992,266.44,0.898217
194.0000,-0.393727,266.765,0.902012
193.9000,-2.06581,267.448,0.909972
193.8000,0.110248,267.057,0.90542
193.7000,-1.45589,267.255,0.90773
193.6000,1.60637,267.899,0.915217
193.5000,2.37673,267.404,0.909458
193.4000,-1.16535,269.155,0.929779
193.3000,3.08497,267.778,0.913808
193.2000,3.2501,267.548,0.911132
193.1000,1.77939,266.767,0.902039
193.0000,-0.217771,267.753,0.913518
192.9000,3.31736,267.975,0.916099
192.8000,4.4617,267.28,0.90802
192.7000,1.36763,267.838,0.914506
192.6000,1.79916,267.25,0.907664
192.5000,0.276172,268.019,0.916613
192.4000,-0.277788,267.876,0.914953
192.3000,1.43032,267.899,0.915217
192.2000,1.01096,268.315,0.920047
192.1000,1.48786,268.085,0.917376
192.0000,2.40765,267.745,0.913426
191.9000,4.03215,267.992,0.916297
191.8000,1.24783,268.097,0.917521
191.7000,-1.53323,268.282,0.919665
191.6000,3.40356,269.04,0.928454
191.5000,1.90936,267.735,0.913307
191.4000,5.73942,267.887,0.915072
191.3000,3.2739,268.512,0.922334
191.2000,1.81839,268.46,0.92173
191.1000,1.28478,268.64,0.923819
191.0000,1.69459,268.998,0.927969
190.9000,2.33913,268.982,0.927785
190.8000,3.0661,269.446,0.933149
190.7000,-0.770959,268.438,0.92148
190.6000,1.67895,269.243,0.930802
190.5000,0.375442,268.919,0.92705
190.4000,1.8541,269.131,0.929504
190.3000,2.93072,269.105,0.929202
190.2000,0.294667,268.376,0.920757
190.1000,-0.385215,268.988,0.927851
190.0000,-1.08721,269.624,0.935206

##### Extended Information
[Comments]
Sample name,CC.SJ.9_28_22_PHOSPHATEBUFFER_CONTROL
Comment,CONTROL
User,CARYN CARHART
Division
Company,Saint Mary's College

[Detailed Information]
Creation date,9/28/2022 1:59 PM

Data array type,Linear data array * 3
Horizontal axis,Wavelength [nm]
Vertical axis(1),CD [mdeg]
Vertical axis(2),HT [V]
Vertical axis(3),Abs
Start,320 nm
End,190 nm
Data interval,0.1 nm
Data points,1301    

[Measurement Information]
Instrument name,J-1500
Model name,J-1500
Serial No.,B051061638

Detector,PM-539
Detector S/N,B051061638
  Lock-in amp.,X mode
  HT volt,Auto

Accessory,PTC-517
Accessory S/N,B026561646
  Temperature,25.08 C
  Control sensor,Holder
  Monitor sensor,Holder

Measurement date,9/28/2022 1:59 PM

Photometric mode,CD, HT, Abs
Measure range,320 - 190 nm
Data pitch,0.1 nm
CD scale,20 mdeg/0.05 dOD
FL scale,20 mdeg/0.05 dOD
D.I.T.,8 msec
Bandwidth,2.00 nm
Start mode,Immediately
Scanning mode,Continuous
Scanning speed,200 nm/min
Baseline correction,None
Shutter control,Auto
No. of cycle,1/1
N2 Flowmeter,Manual

Solvent,NaPO4 buffer

