TITLE,CC.SJ.9_28_22_PHOSPHATEBUFFER_PROTEIN
DATA TYPE,
ORIGIN,JASCO
OWNER,
DATE,22/09/28
TIME,14:12:26
SPECTROMETER/DATA SYSTEM,
LOCALE,1033
RESOLUTION,
DELTAX,-0.1
XUNITS,NANOMETERS
YUNITS,CD [mdeg]
Y2UNITS,HT [V]
Y3UNITS,ABSORBANCE
FIRSTX,  320.0000
LASTX,  190.0000
NPOINTS,    1301
FIRSTY,     1.33800
MAXY,    45.48457
MINY,   -70.93571
XYDATA
320.0000,1.338,208.744,0.154847
319.9000,0.605825,208.597,0.152742
319.8000,1.9057,208.552,0.152111
319.7000,1.58841,208.256,0.147865
319.6000,1.58651,208.367,0.149453
319.5000,0.654162,208.297,0.148465
319.4000,2.05972,209.118,0.160184
319.3000,2.05261,208.819,0.155915
319.2000,1.5453,207.556,0.137846
319.1000,1.46071,207.187,0.132541
319.0000,0.601746,208.327,0.148886
318.9000,2.37054,208.203,0.147119
318.8000,3.22555,207.646,0.13913
318.7000,1.85161,209.079,0.159634
318.6000,1.06949,207.703,0.139943
318.5000,2.78566,208.301,0.148513
318.4000,1.25134,209.326,0.163156
318.3000,1.86151,208.905,0.157144
318.2000,1.24584,209.035,0.159004
318.1000,1.9344,207.836,0.14186
318.0000,1.97076,208.235,0.147573
317.9000,1.52927,208.223,0.147394
317.8000,1.2087,208.413,0.150118
317.7000,-0.182058,208.19,0.146924
317.6000,2.60984,209.223,0.161686
317.5000,2.42436,206.871,0.127995
317.4000,1.64512,208.291,0.148367
317.3000,0.176845,208.982,0.158244
317.2000,1.17366,208.921,0.157371
317.1000,1.28676,208.569,0.152354
317.0000,-0.0531337,207.619,0.13874
316.9000,0.888904,208.531,0.151803
316.8000,1.63478,208.231,0.147508
316.7000,2.00197,206.879,0.128109
316.6000,0.611104,208.542,0.151965
316.5000,1.11883,208.173,0.146681
316.4000,-0.0936775,208.226,0.147443
316.3000,1.15997,208.713,0.15441
316.2000,1.8144,209.024,0.158842
316.1000,2.11207,208.193,0.146973
316.0000,1.20897,207.814,0.141535
315.9000,1.8251,208.339,0.149064
315.8000,-0.40472,207.669,0.139455
315.7000,1.57602,208.291,0.148367
315.6000,1.21435,208.425,0.150296
315.5000,0.211364,208.007,0.144312
315.4000,1.56076,207.524,0.137374
315.3000,2.28064,207.671,0.139488
315.2000,1.83326,207.439,0.136154
315.1000,0.787199,207.958,0.143598
315.0000,2.24061,207.756,0.140707
314.9000,2.11358,207.95,0.143484
314.8000,2.61219,207.908,0.142883
314.7000,1.39477,209.185,0.161137
314.6000,-1.00489,207.62,0.138756
314.5000,2.3648,208.954,0.15784
314.4000,1.20254,207.334,0.134658
314.3000,1.82685,207.03,0.130277
314.2000,2.60822,207.227,0.133111
314.1000,1.9023,207.925,0.143127
314.0000,0.460583,207.97,0.143776
313.9000,2.16553,207.697,0.139862
313.8000,2.04327,208.084,0.145415
313.7000,-0.0629014,207.697,0.139862
313.6000,-0.756407,208.002,0.144231
313.5000,2.10904,207.689,0.139748
313.4000,0.516755,207.269,0.133713
313.3000,0.514742,207.695,0.139829
313.2000,0.952647,207.849,0.142039
313.1000,-0.0624079,207.88,0.142493
313.0000,2.08402,207.884,0.142542
312.9000,2.34773,206.819,0.127245
312.8000,3.55928,207.357,0.134983
312.7000,2.14243,207.626,0.138838
312.6000,1.09828,208.547,0.15203
312.5000,0.57953,207.849,0.142039
312.4000,0.590567,208.277,0.148173
312.3000,0.944176,207.179,0.132427
312.2000,0.0417134,207.75,0.140625
312.1000,0.441228,208.048,0.144896
312.0000,-1.14084,207.96,0.14363
311.9000,1.73017,207.578,0.138155
311.8000,0.0482743,207.916,0.142997
311.7000,2.21566,208.722,0.154539
311.6000,2.28455,207.542,0.137635
311.5000,-0.404973,207.777,0.141015
311.4000,1.43022,207.5,0.137033
311.3000,0.437287,207.126,0.131662
311.2000,1.91916,208.207,0.147167
311.1000,0.617552,208.29,0.148351
311.0000,2.30114,207.723,0.140236
310.9000,0.845141,208.503,0.151398
310.8000,1.40301,208.004,0.144263
310.7000,0.674368,207.218,0.132981
310.6000,1.11953,207.408,0.135715
310.5000,0.899494,208.441,0.150523
310.4000,1.24416,207.965,0.143711
310.3000,0.511785,207.598,0.138448
310.2000,1.80148,207.69,0.139764
310.1000,-0.551352,207.145,0.131939
310.0000,0.449232,208.215,0.147281
309.9000,0.882106,207.851,0.142071
309.8000,0.056474,207.469,0.136594
309.7000,3.46671,207.371,0.135178
309.6000,0.535016,207.243,0.133339
309.5000,-0.0236039,208.19,0.146924
309.4000,1.28595,206.772,0.126576
309.3000,1.32384,207.662,0.139358
309.2000,0.55954,207.502,0.137066
309.1000,0.868013,208.404,0.149988
309.0000,1.16282,209.087,0.159747
308.9000,2.20353,208.144,0.146275
308.8000,1.56596,208.461,0.150798
308.7000,-0.101774,207.698,0.139878
308.6000,1.26599,207.824,0.141681
308.5000,1.93911,207.776,0.140999
308.4000,0.0801052,207.558,0.137862
308.3000,-0.208097,208.032,0.144669
308.2000,1.18493,207.495,0.136968
308.1000,0.961369,206.273,0.119376
308.0000,0.428188,207.158,0.132118
307.9000,-0.0283669,208.501,0.151382
307.8000,1.5979,207.014,0.130049
307.7000,0.473493,209.084,0.159699
307.6000,-1.12062,207.485,0.136822
307.5000,2.78935,207.237,0.133258
307.4000,1.9558,207.502,0.137066
307.3000,0.29663,207.359,0.135015
307.2000,0.241409,207.28,0.133876
307.1000,1.0078,208.693,0.154118
307.0000,1.8742,207.933,0.14324
306.9000,1.31944,207.575,0.138106
306.8000,1.85557,208.403,0.149972
306.7000,1.36359,208.444,0.150555
306.6000,1.50774,207.809,0.14147
306.5000,-0.547303,208.503,0.151398
306.4000,1.05235,209.508,0.165739
306.3000,0.537101,207.368,0.135146
306.2000,0.632427,207.283,0.133925
306.1000,-0.259167,208.723,0.154555
306.0000,-1.26497,208.291,0.148367
305.9000,2.1257,207.186,0.132525
305.8000,2.09093,207.203,0.132769
305.7000,0.733212,207.193,0.132623
305.6000,0.710877,206.721,0.125842
305.5000,1.73034,207.917,0.143013
305.4000,0.0223714,207.095,0.131222
305.3000,-0.395544,207.558,0.137862
305.2000,1.57245,208.491,0.151236
305.1000,0.797417,207.704,0.139959
305.0000,1.40713,209.185,0.161137
304.9000,2.21395,208.36,0.149356
304.8000,0.864369,208.14,0.14621
304.7000,1.06798,207.777,0.141015
304.6000,1.34873,208.156,0.146437
304.5000,1.3877,208.367,0.149453
304.4000,0.237334,207.308,0.134283
304.3000,1.23929,207.554,0.137814
304.2000,-0.111472,207.435,0.136106
304.1000,0.917058,206.852,0.127718
304.0000,-0.182657,207.539,0.137602
303.9000,0.830718,207.831,0.141779
303.8000,1.56938,207.697,0.139862
303.7000,-0.113738,207.52,0.137326
303.6000,0.263364,207.372,0.135195
303.5000,2.0599,208.548,0.152046
303.4000,1.72374,207.258,0.133567
303.3000,0.53478,207.015,0.130065
303.2000,0.991537,207.298,0.134137
303.1000,1.42853,207.11,0.131434
303.0000,1.48801,207.27,0.13373
302.9000,1.77746,208.525,0.151722
302.8000,0.823862,208.302,0.148529
302.7000,-0.712537,207.454,0.136382
302.6000,2.26689,207.292,0.134056
302.5000,1.91741,207.735,0.140414
302.4000,1.49105,207.992,0.144085
302.3000,2.0021,207.925,0.143127
302.2000,1.26345,207.725,0.140268
302.1000,1.62785,207.087,0.131108
302.0000,1.61097,207.581,0.138204
301.9000,1.48165,208.207,0.147167
301.8000,-0.233878,206.966,0.129365
301.7000,1.49608,208.176,0.14673
301.6000,2.52285,207.304,0.134218
301.5000,0.756215,208.271,0.148092
301.4000,1.49309,207.74,0.140479
301.3000,2.58531,207.398,0.135569
301.2000,1.10474,207.373,0.135211
301.1000,2.24272,207.493,0.136935
301.0000,0.964491,207.823,0.141665
300.9000,0.441915,206.335,0.120275
300.8000,1.09463,207.431,0.136041
300.7000,1.47546,207.467,0.136561
300.6000,2.36322,208.218,0.14733
300.5000,0.442914,207.737,0.14043
300.4000,-0.113922,207.419,0.135878
300.3000,2.26096,207.21,0.132867
300.2000,3.30962,206.883,0.128174
300.1000,0.388573,207.834,0.141827
300.0000,-0.100393,207.17,0.132297
299.9000,-0.143507,207.109,0.131417
299.8000,1.21171,206.817,0.127213
299.7000,1.91076,207.762,0.140788
299.6000,1.13213,206.788,0.126805
299.5000,3.11002,207.687,0.139715
299.4000,1.65438,207.709,0.14004
299.3000,-0.215601,208.574,0.152418
299.2000,0.219391,206.686,0.125337
299.1000,0.0952512,206.898,0.128386
299.0000,1.91181,207.071,0.13088
298.9000,0.546079,207.521,0.137342
298.8000,0.395408,207.58,0.138187
298.7000,0.61158,208.694,0.154135
298.6000,0.681215,206.997,0.129804
298.5000,0.572232,207.042,0.130456
298.4000,1.67534,207.246,0.133388
298.3000,0.396803,207.443,0.13622
298.2000,-0.159339,206.847,0.127653
298.1000,1.47154,207.239,0.13329
298.0000,0.120536,207.386,0.135406
297.9000,0.368795,207.498,0.137
297.8000,2.74858,206.644,0.124733
297.7000,-0.212266,207.392,0.135487
297.6000,0.864325,207.185,0.132509
297.5000,1.41434,206.912,0.128582
297.4000,0.817647,207.02,0.130147
297.3000,2.06167,207.083,0.131043
297.2000,1.44189,207.369,0.135162
297.1000,1.77524,206.631,0.124537
297.0000,1.30074,207.138,0.131841
296.9000,1.7824,207.817,0.141584
296.8000,2.12896,206.994,0.129772
296.7000,0.901701,208.295,0.148432
296.6000,-0.741504,206.199,0.118314
296.5000,1.90698,206.69,0.125385
296.4000,0.84205,207.06,0.130717
296.3000,1.17072,207.11,0.131434
296.2000,2.05436,206.99,0.129707
296.1000,0.403791,207.308,0.134283
296.0000,2.55959,207.955,0.143565
295.9000,0.147244,207.112,0.131466
295.8000,0.0396058,206.674,0.125157
295.7000,1.14452,207.36,0.135032
295.6000,1.4439,206.639,0.124651
295.5000,0.101116,207.065,0.130782
295.4000,2.89517,207.156,0.132102
295.3000,0.115124,208.423,0.150264
295.2000,0.0579557,207.043,0.130473
295.1000,1.91743,206.892,0.128305
295.0000,2.47779,207.588,0.138301
294.9000,0.84096,207.235,0.133225
294.8000,2.3919,206.216,0.118559
294.7000,0.444809,206.945,0.129055
294.6000,-0.0107527,206.889,0.128256
294.5000,0.418617,206.119,0.117153
294.4000,2.12953,207.524,0.137374
294.3000,2.85551,207.604,0.138529
294.2000,0.422839,206.813,0.127164
294.1000,0.253482,206.844,0.127604
294.0000,1.2728,206.03,0.115877
293.9000,0.178301,206.715,0.125745
293.8000,0.0522071,206.749,0.126234
293.7000,-1.00051,206.117,0.117136
293.6000,0.708098,206.701,0.125549
293.5000,1.13704,206.902,0.128436
293.4000,1.45665,206.88,0.128126
293.3000,-0.022361,207.11,0.131434
293.2000,-0.145145,206.328,0.120177
293.1000,0.225571,207.119,0.131564
293.0000,-1.41496,207.287,0.133974
292.9000,1.19706,206.599,0.12408
292.8000,0.965234,206.749,0.126234
292.7000,1.25111,207.007,0.129951
292.6000,1.99444,208.009,0.144328
292.5000,1.03819,207.483,0.136789
292.4000,3.19757,207.22,0.133014
292.3000,0.697218,206.866,0.12793
292.2000,0.737061,206.151,0.117627
292.1000,1.52376,206.733,0.126006
292.0000,2.15086,206.971,0.12943
291.9000,0.693685,206.426,0.121582
291.8000,0.438019,207.047,0.130521
291.7000,0.77934,206.48,0.122366
291.6000,0.525338,206.532,0.123117
291.5000,-0.582724,206.736,0.126054
291.4000,1.77546,205.9,0.113995
291.3000,1.18575,206.87,0.127979
291.2000,1.3208,206.647,0.124766
291.1000,1.93268,207.846,0.142006
291.0000,1.3531,206.993,0.129756
290.9000,1.40036,206.922,0.128729
290.8000,1.47764,207.249,0.133437
290.7000,2.28049,207.289,0.134007
290.6000,0.757202,206.9,0.128419
290.5000,-0.147159,205.821,0.112849
290.4000,0.621522,207.06,0.130717
290.3000,0.414278,205.942,0.114601
290.2000,3.21461,206.319,0.120046
290.1000,1.61731,206.394,0.121124
290.0000,1.87916,207.816,0.141568
289.9000,2.05347,206.141,0.11748
289.8000,1.28512,207.1,0.131287
289.7000,2.18182,206.304,0.119834
289.6000,0.914826,207.42,0.135894
289.5000,0.862904,207.503,0.137082
289.4000,1.4424,207.764,0.14082
289.3000,2.42652,208.527,0.151754
289.2000,1.72408,206.328,0.120177
289.1000,0.653793,208.171,0.146648
289.0000,0.849054,207.291,0.134039
288.9000,1.86338,207.118,0.131548
288.8000,1.22821,207.158,0.132118
288.7000,-1.79849,207.603,0.138512
288.6000,0.315599,206.769,0.126527
288.5000,2.25294,206.886,0.128207
288.4000,2.12559,207.485,0.136822
288.3000,1.64949,205.748,0.111801
288.2000,-0.862956,207.258,0.133567
288.1000,0.673949,208.575,0.152434
288.0000,-0.162671,207.53,0.137472
287.9000,0.837554,207.572,0.138074
287.8000,0.18933,207.877,0.142445
287.7000,0.387204,207.97,0.143776
287.6000,1.39627,207.354,0.134934
287.5000,2.23407,207.553,0.137797
287.4000,0.811651,207.007,0.129951
287.3000,0.77964,207.994,0.144117
287.2000,-0.109892,207.938,0.143322
287.1000,1.85728,207.127,0.131678
287.0000,1.67332,208.18,0.146778
286.9000,-0.133578,207.643,0.139081
286.8000,1.25442,207.868,0.142315
286.7000,0.95928,207.346,0.13482
286.6000,1.41873,206.902,0.128436
286.5000,1.55058,208.631,0.153228
286.4000,0.871777,207.427,0.135992
286.3000,1.13921,207.469,0.136594
286.2000,0.114665,206.89,0.128272
286.1000,0.208736,207.647,0.139147
286.0000,0.701765,207.803,0.141389
285.9000,-0.229601,207.22,0.133014
285.8000,0.955693,208.075,0.145286
285.7000,0.789058,207.841,0.141925
285.6000,1.3442,207.679,0.139602
285.5000,0.289412,207.796,0.141275
285.4000,0.293878,207.773,0.14095
285.3000,1.88145,207.169,0.132281
285.2000,-0.775599,207.594,0.138383
285.1000,0.0941749,207.423,0.135927
285.0000,0.225883,207.454,0.136382
284.9000,2.99393,207.095,0.131222
284.8000,0.300961,207.79,0.141194
284.7000,1.7628,208.129,0.146048
284.6000,0.169689,208.015,0.144425
284.5000,0.56434,206.504,0.122709
284.4000,0.937512,207.751,0.140642
284.3000,-0.46802,207.226,0.133095
284.2000,0.900828,207.633,0.138952
284.1000,1.15062,207.252,0.133469
284.0000,0.407243,206.805,0.12705
283.9000,0.692119,207.681,0.139634
283.8000,1.3417,207.425,0.135959
283.7000,0.433487,207.32,0.134446
283.6000,0.496967,207.576,0.138123
283.5000,0.690154,207.776,0.140999
283.4000,0.470601,207.76,0.140772
283.3000,1.6708,207.968,0.143744
283.2000,1.73296,207.41,0.135748
283.1000,-0.348615,207.845,0.14199
283.0000,0.999678,207.747,0.140577
282.9000,1.21117,208.319,0.148773
282.8000,1.42464,207.818,0.1416
282.7000,1.07173,207.928,0.143175
282.6000,1.72348,207.354,0.134934
282.5000,1.1542,208.159,0.146486
282.4000,0.99039,207.417,0.135846
282.3000,1.46784,207.746,0.140561
282.2000,0.19121,207.764,0.14082
282.1000,0.527408,207.368,0.135146
282.0000,-0.788314,207.895,0.142705
281.9000,2.26068,207.868,0.142315
281.8000,0.925519,207.562,0.137927
281.7000,-0.287731,207.776,0.140999
281.6000,1.83713,207.942,0.14337
281.5000,0.845273,207.432,0.136057
281.4000,1.97894,207.22,0.133014
281.3000,2.3031,207.548,0.137732
281.2000,0.843531,208.309,0.148627
281.1000,1.38596,207.451,0.136334
281.0000,0.207143,206.602,0.124129
280.9000,0.968282,207.681,0.139634
280.8000,1.20634,207.587,0.138285
280.7000,0.0353404,207.601,0.13848
280.6000,-0.41705,207.917,0.143013
280.5000,1.40045,208.043,0.144815
280.4000,3.44693,207.959,0.143614
280.3000,0.356251,207.747,0.140577
280.2000,0.660833,208.006,0.144296
280.1000,-0.568248,208.033,0.144685
280.0000,-0.532276,207.609,0.138594
279.9000,1.20582,207.772,0.140934
279.8000,1.34275,207.76,0.140772
279.7000,1.29524,207.955,0.143565
279.6000,0.590716,207.69,0.139764
279.5000,1.03948,207.738,0.140447
279.4000,-0.113086,207.808,0.141454
279.3000,2.24189,207.696,0.139846
279.2000,1.46904,208.657,0.1536
279.1000,0.0897612,207.696,0.139846
279.0000,1.25348,208.454,0.150701
278.9000,-0.17341,208.026,0.144571
278.8000,-1.35046,207.724,0.140252
278.7000,-0.755469,208.002,0.144231
278.6000,0.384446,207.246,0.133388
278.5000,1.24251,207.486,0.136838
278.4000,0.875804,208.68,0.15394
278.3000,0.449307,208.15,0.146356
278.2000,1.00385,207.708,0.140024
278.1000,-0.0505565,208.442,0.150539
278.0000,1.41982,207.45,0.136317
277.9000,0.748975,207.561,0.137911
277.8000,-0.200065,207.867,0.142299
277.7000,-1.70366,208.437,0.150458
277.6000,1.72978,207.611,0.138626
277.5000,-0.797347,208.175,0.146713
277.4000,1.11829,208.51,0.151511
277.3000,-0.125463,206.585,0.123884
277.2000,-0.215678,207.326,0.134544
277.1000,1.17631,208.291,0.148367
277.0000,0.283054,207.85,0.142055
276.9000,-0.33758,208.573,0.152402
276.8000,0.406842,208.037,0.144734
276.7000,0.0724391,208.24,0.147638
276.6000,-1.14047,207.924,0.14311
276.5000,0.451498,208.275,0.14814
276.4000,0.183354,207.143,0.131906
276.3000,1.13113,208.642,0.15339
276.2000,1.77363,208.49,0.15122
276.1000,2.50699,208.081,0.145367
276.0000,0.876766,208.214,0.147265
275.9000,1.92352,208.054,0.144977
275.8000,2.481,207.936,0.143289
275.7000,0.391782,208.171,0.146648
275.6000,1.09566,208.283,0.148254
275.5000,0.128241,208.322,0.148821
275.4000,0.105077,208.317,0.14874
275.3000,2.01986,207.365,0.135097
275.2000,0.777929,207.788,0.141162
275.1000,-0.13878,207.883,0.142526
275.0000,0.702701,208.351,0.149226
274.9000,1.05994,207.705,0.139975
274.8000,0.683262,207.845,0.14199
274.7000,0.754248,207.735,0.140414
274.6000,0.8548,208.781,0.155381
274.5000,0.442599,207.833,0.141811
274.4000,0.968788,208.407,0.150037
274.3000,1.09402,207.86,0.142201
274.2000,-0.147879,208.711,0.154377
274.1000,-0.969883,208.44,0.150507
274.0000,1.59303,207.551,0.137765
273.9000,1.03799,208.105,0.145707
273.8000,0.399339,208.354,0.149275
273.7000,1.49184,208.651,0.153519
273.6000,1.25625,207.374,0.135227
273.5000,-0.28425,207.912,0.142948
273.4000,-0.0418299,207.903,0.142818
273.3000,0.357783,208.828,0.156044
273.2000,-0.829836,207.039,0.130408
273.1000,0.847601,208.789,0.155494
273.0000,0.00194689,207.559,0.137879
272.9000,0.456047,207.597,0.138431
272.8000,0.0311768,209.232,0.161815
272.7000,1.13755,207.517,0.137277
272.6000,-0.044995,208.134,0.146129
272.5000,0.8118,209.509,0.165755
272.4000,-0.502634,208.228,0.147476
272.3000,1.56901,207.893,0.142672
272.2000,0.609803,209.008,0.158616
272.1000,1.08405,209.1,0.159925
272.0000,0.559164,207.995,0.144133
271.9000,0.175677,206.547,0.123329
271.8000,0.0809974,207.858,0.142168
271.7000,1.36645,208.043,0.144815
271.6000,0.410879,209.161,0.160797
271.5000,-0.412349,209.492,0.165513
271.4000,-0.771843,209.471,0.165222
271.3000,-0.535132,207.739,0.140463
271.2000,-0.172411,208.78,0.155365
271.1000,0.24156,209.181,0.161088
271.0000,0.975627,207.59,0.138334
270.9000,0.602415,208.05,0.144928
270.8000,2.28556,208.296,0.148448
270.7000,0.552476,208.019,0.144474
270.6000,0.859644,208.615,0.153001
270.5000,1.51397,208.182,0.146811
270.4000,0.0940124,208.167,0.1466
270.3000,1.45616,207.752,0.140658
270.2000,-0.913305,207.511,0.137195
270.1000,0.405703,208.58,0.152499
270.0000,-0.540755,208.743,0.154831
269.9000,-0.399792,208.235,0.147573
269.8000,1.11011,208.445,0.150572
269.7000,0.0923706,208.611,0.152953
269.6000,1.26568,208.421,0.150231
269.5000,1.43387,207.925,0.143127
269.4000,1.7882,208.041,0.144799
269.3000,-0.354532,208.278,0.148189
269.2000,0.980003,207.981,0.143938
269.1000,2.03042,209.172,0.160959
269.0000,0.478127,208.569,0.152354
268.9000,1.57132,207.751,0.140642
268.8000,2.05796,209.323,0.163107
268.7000,-0.0114391,208.782,0.155397
268.6000,1.70383,208.55,0.152078
268.5000,-1.74661,207.641,0.139065
268.4000,1.34509,208.824,0.155996
268.3000,0.0199824,207.979,0.143906
268.2000,1.04844,208.762,0.155106
268.1000,-0.246592,208.663,0.153698
268.0000,0.868531,208.335,0.149
267.9000,1.99121,208.438,0.150474
267.8000,-0.618614,208.83,0.156077
267.7000,-0.555135,208.343,0.149113
267.6000,0.321019,208.027,0.144588
267.5000,0.897639,208.879,0.156772
267.4000,-0.218012,208.666,0.15373
267.3000,-1.04414,209.162,0.160814
267.2000,1.25919,208.658,0.153617
267.1000,1.56862,208.62,0.153082
267.0000,-0.857997,208.895,0.156998
266.9000,0.602569,208.368,0.149469
266.8000,0.808098,209.01,0.158648
266.7000,0.709458,209.093,0.159828
266.6000,1.07493,208.756,0.155025
266.5000,0.467517,209.221,0.161654
266.4000,0.709791,208.905,0.157144
266.3000,-1.2332,208.849,0.156351
266.2000,-0.375454,209.358,0.163608
266.1000,-0.480123,208.737,0.15475
266.0000,0.333847,209.118,0.160184
265.9000,0.816587,209.131,0.160377
265.8000,0.775215,209.249,0.162058
265.7000,0.751451,209.513,0.165819
265.6000,0.169592,209.295,0.162704
265.5000,1.27945,209.255,0.162138
265.4000,0.595146,209.091,0.159796
265.3000,-1.99782,209.097,0.159893
265.2000,0.332721,209.513,0.165819
265.1000,-1.45368,209.216,0.161589
265.0000,0.887654,208.784,0.155413
264.9000,0.129932,209.315,0.162994
264.8000,0.0198163,209.394,0.164125
264.7000,0.837524,208.779,0.155348
264.6000,-1.00972,209.427,0.164592
264.5000,0.289759,209.136,0.160442
264.4000,0.224335,209.034,0.158987
264.3000,1.81275,209.534,0.166109
264.2000,1.4488,209.266,0.1623
264.1000,0.491406,209.557,0.166448
264.0000,-1.45314,209.851,0.170624
263.9000,0.0166385,209.446,0.164867
263.8000,-1.42807,209.284,0.162558
263.7000,-0.960883,209.583,0.166819
263.6000,0.874021,209.133,0.160393
263.5000,0.683192,210.39,0.178286
263.4000,0.0629497,209.301,0.1628
263.3000,-0.730166,208.933,0.157548
263.2000,-1.1954,209.921,0.171623
263.1000,0.804365,210.064,0.173652
263.0000,-0.736625,209.893,0.17122
262.9000,-1.30018,209.763,0.169367
262.8000,1.72331,211.047,0.1876
262.7000,1.74174,209.283,0.162542
262.6000,-0.415667,209.886,0.171124
262.5000,1.34893,209.485,0.165416
262.4000,-2.37088,209.343,0.163398
262.3000,-0.0176865,210.235,0.176083
262.2000,-0.730906,210.415,0.17864
262.1000,1.1039,209.8,0.169899
262.0000,0.390916,210.898,0.185483
261.9000,0.636458,208.987,0.158325
261.8000,0.0281118,210.625,0.181613
261.7000,-0.528804,210.661,0.182127
261.6000,0.21414,209.994,0.172654
261.5000,0.892259,209.596,0.166997
261.4000,-0.697361,210.251,0.176308
261.3000,0.951892,210.244,0.176211
261.2000,1.53046,210.468,0.179396
261.1000,0.627573,209.965,0.172251
261.0000,1.40482,210.928,0.185916
260.9000,0.576056,211.004,0.186991
260.8000,0.124523,210.37,0.177997
260.7000,-0.549322,211.111,0.188499
260.6000,-1.417,209.911,0.171478
260.5000,-0.916347,209.995,0.17267
260.4000,2.09413,209.802,0.169931
260.3000,-2.41423,209.095,0.15986
260.2000,1.51155,210.204,0.175648
260.1000,-0.0327769,210.845,0.184729
260.0000,0.618383,210.812,0.184263
259.9000,0.431044,210.692,0.182561
259.8000,3.02938,209.157,0.160749
259.7000,-0.0869713,210.653,0.182015
259.6000,0.0889319,210.104,0.174216
259.5000,1.44919,211.018,0.187183
259.4000,0.526172,210.074,0.173797
259.3000,-0.167262,210.45,0.179138
259.2000,0.762708,210.186,0.175391
259.1000,0.341576,210.097,0.174119
259.0000,1.84283,210.516,0.180071
258.9000,-1.94645,209.844,0.170528
258.8000,0.186853,210.635,0.181758
258.7000,0.568334,210.177,0.175262
258.6000,1.10372,210.721,0.182979
258.5000,0.117214,211.345,0.191816
258.4000,-0.262817,211.385,0.192377
258.3000,1.6648,211.146,0.188996
258.2000,0.574234,211.182,0.189509
258.1000,0.471309,211.558,0.194827
258.0000,0.932228,212.043,0.201671
257.9000,-0.81774,211.586,0.195211
257.8000,1.7716,211.315,0.191384
257.7000,1.2963,211.016,0.187152
257.6000,0.0349304,211.23,0.190182
257.5000,-1.45309,211.388,0.192425
257.4000,1.78785,211.482,0.193754
257.3000,0.663637,211.347,0.191832
257.2000,0.894967,211.195,0.189685
257.1000,1.30515,210.751,0.183396
257.0000,2.58342,211.485,0.193786
256.9000,0.340467,210.995,0.186863
256.8000,0.32319,211.179,0.189461
256.7000,-0.0478449,211.506,0.19409
256.6000,0.89025,210.564,0.180746
256.5000,0.204578,212.319,0.205552
256.4000,-1.35186,211.584,0.195195
256.3000,1.33985,212.471,0.20769
256.2000,1.54606,211.285,0.190967
256.1000,1.03945,211.805,0.198315
256.0000,-0.1628,211.633,0.195883
255.9000,-0.120236,210.992,0.186815
255.8000,0.634011,212.398,0.206668
255.7000,0.341838,211.596,0.195355
255.6000,-1.00658,213.602,0.223589
255.5000,0.666526,211.903,0.199689
255.4000,0.611778,212.59,0.209364
255.3000,1.38272,211.325,0.191528
255.2000,0.840586,212.561,0.208965
255.1000,0.636908,212.388,0.206525
255.0000,-0.130905,210.718,0.18293
254.9000,0.655438,211.614,0.195611
254.8000,-1.42765,211.06,0.187777
254.7000,-0.721933,211.599,0.195403
254.6000,1.73511,211.554,0.194763
254.5000,0.802291,211.715,0.197035
254.4000,0.578927,211.514,0.194203
254.3000,-0.701415,211.589,0.195259
254.2000,-0.729267,212.199,0.203859
254.1000,2.40607,212.144,0.203093
254.0000,-1.41269,212.841,0.212901
253.9000,0.0236756,212.727,0.211292
253.8000,-0.576838,212.346,0.205935
253.7000,0.342039,212.646,0.210161
253.6000,-0.298939,212.407,0.206796
253.5000,2.1969,212.433,0.207163
253.4000,-0.447439,213.226,0.218313
253.3000,0.279938,212.976,0.214796
253.2000,-1.54257,211.782,0.197979
253.1000,0.396477,212.626,0.209874
253.0000,-0.463415,212.984,0.214908
252.9000,1.04535,212.821,0.212615
252.8000,-0.236706,212.869,0.213299
252.7000,0.157462,213.184,0.217724
252.6000,1.04947,212.681,0.210655
252.5000,0.820787,212.418,0.206955
252.4000,-0.845821,212.055,0.201831
252.3000,0.628295,212.399,0.206684
252.2000,-0.664477,213.642,0.224144
252.1000,-0.145775,211.669,0.196395
252.0000,-0.45377,212.168,0.203428
251.9000,0.0978837,213.018,0.215385
251.8000,0.755542,213.417,0.220984
251.7000,1.1833,212.238,0.204418
251.6000,0.260973,213.059,0.215958
251.5000,0.821579,213.139,0.217088
251.4000,0.0875452,213.759,0.22578
251.3000,-0.189981,213.974,0.228794
251.2000,1.01609,212.178,0.203572
251.1000,0.960483,212.518,0.208359
251.0000,-0.125084,213.253,0.218694
250.9000,-2.02276,212.817,0.212567
250.8000,0.620617,213.89,0.22762
250.7000,-1.13574,212.535,0.208598
250.6000,-1.0943,213.758,0.225764
250.5000,-0.19271,213.556,0.222937
250.4000,-0.887517,214.179,0.231663
250.3000,0.153034,212.933,0.214191
250.2000,0.938461,212.969,0.214701
250.1000,0.516551,214.096,0.230506
250.0000,0.969077,213.835,0.226843
249.9000,-0.9698,212.912,0.213905
249.8000,1.16173,213.859,0.227176
249.7000,0.170883,213.479,0.221857
249.6000,0.654327,214.147,0.231219
249.5000,-0.170787,213.883,0.227525
249.4000,-1.52832,212.858,0.21314
249.3000,0.0754837,214.714,0.239134
249.2000,-0.515957,213.584,0.223335
249.1000,-1.20695,214.152,0.231282
249.0000,0.964172,213.821,0.226652
248.9000,-0.558834,213.715,0.22516
248.8000,-0.167334,214.039,0.229697
248.7000,0.0993161,214.6,0.237537
248.6000,1.16551,213.006,0.215226
248.5000,0.405273,213.601,0.223573
248.4000,-0.567247,213.354,0.220109
248.3000,0.0684076,214.749,0.239624
248.2000,0.175985,213.587,0.223367
248.1000,-1.65364,213.42,0.221031
248.0000,-1.38979,214.552,0.236872
247.9000,-5.28957,215.924,0.255983
247.8000,-1.973,214.724,0.239276
247.7000,-2.11988,214.178,0.231647
247.6000,0.665166,213.985,0.228952
247.5000,-0.0277486,215.369,0.248262
247.4000,0.521128,214.022,0.22946
247.3000,-0.389653,215.032,0.243575
247.2000,-2.01454,215.254,0.246669
247.1000,0.622311,215.262,0.246779
247.0000,-1.49302,215.932,0.256094
246.9000,-1.62187,216.346,0.261834
246.8000,-0.888309,215.049,0.243812
246.7000,-2.50207,215.377,0.248373
246.6000,-2.90783,214.884,0.241505
246.5000,-1.17659,214.839,0.240873
246.4000,-2.57393,215.054,0.243875
246.3000,-0.515278,214.681,0.238676
246.2000,-1.06491,215.285,0.247095
246.1000,-0.444559,214.78,0.240051
246.0000,-1.10442,216.152,0.259145
245.9000,-1.10185,215.06,0.243954
245.8000,0.149185,214.682,0.238691
245.7000,0.0482599,214.989,0.242975
245.6000,-3.53395,216.828,0.268522
245.5000,-2.48508,215.052,0.243843
245.4000,-2.35742,215.92,0.25592
245.3000,-1.11383,215.736,0.253369
245.2000,-3.41901,216.963,0.270388
245.1000,-1.02452,216.304,0.261252
245.0000,-3.05057,214.989,0.242975
244.9000,-1.94592,214.636,0.238043
244.8000,-3.45624,214.626,0.237901
244.7000,-0.890397,215.236,0.246417
244.6000,-2.51036,215.861,0.255102
244.5000,-1.85272,215.401,0.248704
244.4000,-2.95647,215.729,0.253275
244.3000,-2.36822,216.817,0.268365
244.2000,-3.47419,214.678,0.238628
244.1000,-0.224563,216.169,0.259381
244.0000,-2.2558,215.192,0.245801
243.9000,-2.42266,217.219,0.27393
243.8000,-2.91608,216.782,0.267879
243.7000,-3.61708,215.546,0.250722
243.6000,-1.59235,217.227,0.274039
243.5000,-3.99692,216.959,0.270325
243.4000,-3.11537,216.766,0.267659
243.3000,-2.4654,216.716,0.266969
243.2000,-2.19805,216.192,0.259696
243.1000,-4.65824,217.044,0.271501
243.0000,-2.75634,215.775,0.253905
242.9000,-2.75357,216.925,0.269855
242.8000,-3.6121,217.09,0.272143
242.7000,-2.18148,215.648,0.252141
242.6000,-4.48327,216.737,0.267251
242.5000,-4.50787,217.923,0.283643
242.4000,-3.51259,217.574,0.278828
242.3000,-3.88514,217.323,0.27537
242.2000,-3.265,217.559,0.278625
242.1000,-5.74277,217.91,0.283471
242.0000,-6.11728,217.73,0.280986
241.9000,-5.48453,217.831,0.282377
241.8000,-5.53587,217.718,0.280814
241.7000,-4.04205,217.712,0.280736
241.6000,-4.58657,218.137,0.286594
241.5000,-4.67379,218.97,0.298048
241.4000,-5.29685,218.127,0.286453
241.3000,-6.80416,218.179,0.287171
241.2000,-3.9554,219.135,0.300319
241.1000,-6.18948,219.583,0.306456
241.0000,-7.7347,218.083,0.285845
240.9000,-6.99853,218.877,0.296772
240.8000,-6.15256,218.655,0.29372
240.7000,-5.01753,219.11,0.299977
240.6000,-7.64541,218.949,0.297768
240.5000,-8.08785,220.121,0.313822
240.4000,-8.09155,219.944,0.311404
240.3000,-5.61953,218.804,0.295776
240.2000,-7.00576,219.909,0.310924
240.1000,-7.87676,220.694,0.321652
240.0000,-6.71489,219.834,0.3099
239.9000,-7.73878,219.884,0.310583
239.8000,-8.72878,220.288,0.316098
239.7000,-7.5558,219.246,0.301842
239.6000,-8.11104,220.38,0.317368
239.5000,-8.62674,220.501,0.319008
239.4000,-11.8235,220.437,0.318142
239.3000,-8.8319,220.068,0.313094
239.2000,-9.0497,220.559,0.319812
239.1000,-11.7068,221.226,0.328895
239.0000,-10.3273,219.96,0.311621
238.9000,-8.94557,221.78,0.336432
238.8000,-7.28298,221.448,0.331918
238.7000,-9.89368,221.342,0.330484
238.6000,-10.5078,222.116,0.341002
238.5000,-10.3575,221.995,0.339356
238.4000,-11.0331,222.63,0.347961
238.3000,-10.8635,222.049,0.340095
238.2000,-12.3053,222.724,0.349235
238.1000,-11.5826,222.496,0.34615
238.0000,-13.1637,222.47,0.345797
237.9000,-11.0198,221.933,0.33851
237.8000,-9.95053,222.611,0.347716
237.7000,-13.8648,223.181,0.355428
237.6000,-12.3303,223.133,0.35477
237.5000,-13.8225,223.719,0.362681
237.4000,-11.9794,223.132,0.354754
237.3000,-12.964,224.235,0.369645
237.2000,-12.7976,223.019,0.353237
237.1000,-15.0332,224.676,0.375575
237.0000,-14.4107,222.74,0.34945
236.9000,-17.947,223.926,0.365477
236.8000,-15.8855,224.474,0.372863
236.7000,-16.0479,224.933,0.379031
236.6000,-15.7401,224.971,0.379534
236.5000,-13.971,225.456,0.38604
236.4000,-17.6057,225.782,0.390412
236.3000,-17.4965,225.258,0.383397
236.2000,-15.9576,226.899,0.40534
236.1000,-18.021,226.076,0.394354
236.0000,-16.4703,224.9,0.37859
235.9000,-19.0408,226.073,0.394309
235.8000,-16.8724,226.512,0.400169
235.7000,-17.5354,226.647,0.401985
235.6000,-20.5454,226.089,0.394521
235.5000,-18.3701,227.359,0.41147
235.4000,-20.7078,226.91,0.405491
235.3000,-21.2644,227.276,0.410368
235.2000,-21.3696,227.267,0.410247
235.1000,-19.7706,228.204,0.422705
235.0000,-22.9233,227.104,0.408074
234.9000,-21.349,227.313,0.410851
234.8000,-20.4821,227.902,0.418688
234.7000,-23.4245,228.815,0.430802
234.6000,-21.9345,228.259,0.423427
234.5000,-24.3012,229.095,0.434506
234.4000,-23.1639,229.256,0.436634
234.3000,-23.9824,229.757,0.44325
234.2000,-22.9446,229.787,0.443653
234.1000,-22.7781,229.674,0.442158
234.0000,-24.6282,230.532,0.453464
233.9000,-24.7512,230.27,0.450017
233.8000,-25.1203,231.352,0.464245
233.7000,-25.9179,230.293,0.450316
233.6000,-27.4635,231.672,0.468436
233.5000,-27.0958,231.02,0.459886
233.4000,-24.8329,230.83,0.457384
233.3000,-25.4423,232.264,0.476195
233.2000,-27.299,231.84,0.470648
233.1000,-29.826,231.87,0.471034
233.0000,-26.0937,232.331,0.477069
232.9000,-30.1846,231.656,0.468228
232.8000,-29.3302,231.781,0.469876
232.7000,-29.1187,233.031,0.486215
232.6000,-32.0266,233.22,0.488682
232.5000,-32.883,233.438,0.491517
232.4000,-32.0665,233.236,0.488889
232.3000,-31.2494,233.7,0.494925
232.2000,-30.3088,233.045,0.486392
232.1000,-34.1731,234.072,0.499773
232.0000,-31.4693,234.258,0.502187
231.9000,-34.5626,234.462,0.504835
231.8000,-33.5115,234.808,0.509318
231.7000,-35.7878,235.732,0.521284
231.6000,-35.1104,236.275,0.528289
231.5000,-33.2224,235.331,0.516097
231.4000,-33.9523,236.54,0.531707
231.3000,-35.6442,236.008,0.524839
231.2000,-36.7763,236.192,0.527223
231.1000,-34.4752,236.657,0.533211
231.0000,-35.341,235.86,0.522937
230.9000,-37.6409,236.936,0.536799
230.8000,-37.7619,236.64,0.532992
230.7000,-40.4739,236.005,0.52481
230.6000,-40.5934,238.302,0.554339
230.5000,-37.6609,236.92,0.536595
230.4000,-38.9794,237.386,0.542582
230.3000,-38.9837,237.989,0.550332
230.2000,-39.3952,239.365,0.567924
230.1000,-41.3391,239.371,0.567996
230.0000,-40.6649,238.743,0.559979
229.9000,-42.478,238.362,0.555108
229.8000,-40.8096,238.008,0.550565
229.7000,-42.2003,238.486,0.556689
229.6000,-42.9921,238.997,0.563223
229.5000,-41.8144,239.535,0.570092
229.4000,-43.4025,240.126,0.577626
229.3000,-44.8154,239.62,0.571175
229.2000,-44.7936,239.099,0.564525
229.1000,-45.201,240.146,0.577871
229.0000,-44.6872,240.383,0.580883
228.9000,-49.0127,240.401,0.581114
228.8000,-45.934,240.778,0.585907
228.7000,-46.6429,241.069,0.589603
228.6000,-45.2441,242.368,0.606036
228.5000,-47.7763,242.921,0.613012
228.4000,-48.5566,241.597,0.596294
228.3000,-49.5062,242.115,0.602844
228.2000,-47.411,242.626,0.609297
228.1000,-48.0432,242.766,0.611069
228.0000,-48.6769,244.191,0.628987
227.9000,-48.3628,242.941,0.613269
227.8000,-49.8526,243.044,0.614568
227.7000,-51.8853,244.429,0.631972
227.6000,-49.5146,242.82,0.611741
227.5000,-51.2038,244.27,0.629982
227.4000,-51.2423,244.813,0.636785
227.3000,-51.9228,244.272,0.63001
227.2000,-53.069,246.456,0.657303
227.1000,-49.3755,244.61,0.634244
227.0000,-50.1311,245.12,0.640629
226.9000,-55.4027,247.159,0.666056
226.8000,-54.5993,246.353,0.656019
226.7000,-54.6285,247.031,0.664465
226.6000,-51.5327,246.068,0.652474
226.5000,-54.3518,247.551,0.670924
226.4000,-52.9672,247.808,0.6741
226.3000,-54.7354,247.386,0.668871
226.2000,-51.7003,247.367,0.668631
226.1000,-53.2289,247.335,0.668238
226.0000,-53.8569,247.215,0.666746
225.9000,-54.8676,247.767,0.673594
225.8000,-55.8221,248.963,0.688401
225.7000,-55.5801,247.847,0.674592
225.6000,-54.3729,249.226,0.691646
225.5000,-56.5018,249.528,0.695363
225.4000,-53.8709,250.327,0.705211
225.3000,-59.3613,249.011,0.688989
225.2000,-54.2707,250.046,0.701755
225.1000,-59.2104,250.127,0.702745
225.0000,-59.2097,248.305,0.680262
224.9000,-61.7875,250.067,0.702006
224.8000,-57.9922,251.075,0.714394
224.7000,-58.5342,251.91,0.724621
224.6000,-58.4746,251.238,0.716395
224.5000,-60.0205,251.488,0.719449
224.4000,-61.5053,251.994,0.725647
224.3000,-58.0901,252.019,0.725951
224.2000,-57.1881,252.396,0.730562
224.1000,-59.0514,252.417,0.730811
224.0000,-59.0876,252.798,0.735456
223.9000,-60.4287,252.609,0.733162
223.8000,-60.3293,253.272,0.741242
223.7000,-61.0156,253.62,0.745474
223.6000,-61.1516,254.446,0.755507
223.5000,-59.5121,254.155,0.751973
223.4000,-60.2253,253.893,0.748794
223.3000,-62.8352,254.53,0.756524
223.2000,-61.4258,254.647,0.757939
223.1000,-59.4455,255.072,0.763086
223.0000,-58.7258,255.729,0.771032
222.9000,-64.9947,256.001,0.774315
222.8000,-59.6515,256.542,0.780846
222.7000,-63.9787,256.06,0.775026
222.6000,-61.1492,256.745,0.783289
222.5000,-62.436,257.475,0.792063
222.4000,-63.6927,256.664,0.782306
222.3000,-60.4585,257.17,0.788401
222.2000,-61.2079,257.721,0.795015
222.1000,-62.3637,257.88,0.796932
222.0000,-62.5041,257.921,0.797421
221.9000,-59.2985,258.228,0.801102
221.8000,-61.5823,257.746,0.795314
221.7000,-63.1506,258.844,0.808467
221.6000,-61.0236,259.534,0.81671
221.5000,-61.2954,259.401,0.815127
221.4000,-59.9802,260.03,0.822626
221.3000,-64.0071,260.012,0.822411
221.2000,-60.9684,260.431,0.827402
221.1000,-61.1237,260.568,0.829033
221.0000,-60.6673,261.236,0.836961
220.9000,-59.3761,261.639,0.841745
220.8000,-59.6841,261.786,0.843491
220.7000,-58.3392,262.132,0.847582
220.6000,-62.8355,261.626,0.841597
220.5000,-60.5352,262.85,0.856074
220.4000,-57.0514,262.576,0.852835
220.3000,-61.8893,262.975,0.857545
220.2000,-60.0472,262.796,0.855432
220.1000,-58.282,263.297,0.861341
220.0000,-59.7094,263.272,0.861047
219.9000,-62.2558,263.877,0.868175
219.8000,-59.7251,264.654,0.877311
219.7000,-63.6703,264.084,0.870614
219.6000,-58.3979,264.719,0.878069
219.5000,-63.3724,264.198,0.87196
219.4000,-61.6953,265.567,0.888018
219.3000,-61.1967,265.835,0.891147
219.2000,-58.6547,266.39,0.897635
219.1000,-61.9292,266.299,0.896577
219.0000,-59.7771,266.201,0.895425
218.9000,-60.9203,266.657,0.900756
218.8000,-63.8707,266.846,0.902963
218.7000,-61.8587,267.493,0.9105
218.6000,-60.1111,267.796,0.914018
218.5000,-60.2747,267.939,0.915678
218.4000,-59.9985,268.146,0.918087
218.3000,-61.6068,268.51,0.922308
218.2000,-62.6534,268.132,0.917929
218.1000,-62.8681,268.728,0.924844
218.0000,-63.0587,269.848,0.937799
217.9000,-57.6746,268.762,0.925238
217.8000,-60.0904,269.716,0.93628
217.7000,-58.9197,270.736,0.948047
217.6000,-60.4281,270.01,0.93967
217.5000,-56.249,270.235,0.942273
217.4000,-61.0588,271.066,0.951843
217.3000,-59.0664,271.418,0.955897
217.2000,-60.2412,270.743,0.948125
217.1000,-61.9426,272.371,0.966836
217.0000,-58.2712,271.863,0.961
216.9000,-58.5001,272.852,0.97234
216.8000,-61.1744,273.456,0.979246
216.7000,-58.9547,273.842,0.983658
216.6000,-59.7238,273.751,0.982623
216.5000,-61.6265,273.637,0.981317
216.4000,-58.9172,274.163,0.987316
216.3000,-57.5483,274.407,0.990105
216.2000,-60.4006,274.79,0.994466
216.1000,-61.6007,274.675,0.99315
216.0000,-61.807,275.526,1.00282
215.9000,-62.1458,276.394,1.01267
215.8000,-57.5249,276.195,1.01042
215.7000,-60.1232,276.202,1.0105
215.6000,-60.2344,277.232,1.02215
215.5000,-61.3352,276.957,1.01904
215.4000,-60.0333,277.572,1.02599
215.3000,-58.5776,278.06,1.03149
215.2000,-61.4457,278.144,1.03244
215.1000,-61.5491,278.736,1.0391
215.0000,-60.8418,278.451,1.0359
214.9000,-57.9101,278.684,1.03851
214.8000,-61.7396,279.865,1.05178
214.7000,-61.1161,279.59,1.04869
214.6000,-62.2351,280.227,1.05583
214.5000,-63.046,280.626,1.06029
214.4000,-58.9097,281.124,1.06586
214.3000,-61.0733,280.773,1.06194
214.2000,-62.0869,280.943,1.06384
214.1000,-59.5756,282.105,1.0768
214.0000,-58.5942,282.741,1.08387
213.9000,-59.6636,282.861,1.08521
213.8000,-61.358,283.641,1.09386
213.7000,-59.3064,283.29,1.08996
213.6000,-56.9355,283.9,1.09673
213.5000,-62.1368,284.411,1.10239
213.4000,-61.794,284.663,1.10517
213.3000,-54.8383,284.99,1.10878
213.2000,-62.4928,285.602,1.11553
213.1000,-60.5995,285.228,1.11141
213.0000,-62.3208,286.069,1.12067
212.9000,-61.0296,285.958,1.11945
212.8000,-63.6857,286.928,1.13011
212.7000,-61.9796,287.068,1.13165
212.6000,-60.9668,287.151,1.13256
212.5000,-57.475,287.284,1.13402
212.4000,-61.857,288.42,1.14646
212.3000,-58.7882,288.702,1.14954
212.2000,-63.9368,289.31,1.15617
212.1000,-58.4156,289.961,1.16327
212.0000,-65.5481,290.563,1.16981
211.9000,-57.7343,291.023,1.1748
211.8000,-64.1294,291.226,1.177
211.7000,-63.9223,292.024,1.18565
211.6000,-64.9491,292.759,1.19359
211.5000,-60.4124,292.542,1.19125
211.4000,-65.0904,293.428,1.20081
211.3000,-63.279,293.877,1.20564
211.2000,-63.8292,293.989,1.20685
211.1000,-65.0314,295.164,1.21947
211.0000,-62.3905,294.647,1.21392
210.9000,-68.3831,296.071,1.22917
210.8000,-59.0914,296.455,1.23328
210.7000,-62.6712,296.567,1.23448
210.6000,-64.1453,298.835,1.25863
210.5000,-60.8001,296.676,1.23564
210.4000,-68.5725,297.785,1.24746
210.3000,-60.2655,298.457,1.25461
210.2000,-63.4798,299.198,1.26247
210.1000,-60.8927,300.297,1.27411
210.0000,-61.0263,300.128,1.27232
209.9000,-66.2795,300.751,1.27891
209.8000,-69.3042,302.159,1.29373
209.7000,-70.9357,302.169,1.29384
209.6000,-64.1385,303.471,1.3075
209.5000,-66.3204,304.482,1.31809
209.4000,-65.15,304.289,1.31606
209.3000,-56.4953,305.998,1.3339
209.2000,-61.7027,306.366,1.33771
209.1000,-63.3068,307.151,1.34587
209.0000,-62.3104,307.521,1.34971
208.9000,-65.6421,307.979,1.35445
208.8000,-66.0825,308.207,1.3568
208.7000,-63.9971,309.553,1.3707
208.6000,-64.5385,310.331,1.37871
208.5000,-60.9348,310.718,1.38269
208.4000,-66.7168,312.202,1.3979
208.3000,-67.4539,312.44,1.40034
208.2000,-63.7353,313.044,1.40651
208.1000,-60.9422,313.593,1.41211
208.0000,-63.9033,315.619,1.43271
207.9000,-63.5794,315.601,1.43253
207.8000,-65.7872,316.886,1.44553
207.7000,-67.9156,317.654,1.45329
207.6000,-60.1479,318.027,1.45705
207.5000,-61.0877,319.087,1.46771
207.4000,-64.0957,320.272,1.4796
207.3000,-68.971,320.489,1.48177
207.2000,-63.3507,321.604,1.49292
207.1000,-57.3277,322.911,1.50594
207.0000,-63.6796,323.049,1.50731
206.9000,-51.6819,324.051,1.51726
206.8000,-53.4651,325.229,1.52893
206.7000,-59.7746,325.954,1.53609
206.6000,-60.1477,326.68,1.54326
206.5000,-56.2351,327.564,1.55195
206.4000,-60.2021,329.128,1.56729
206.3000,-64.5652,329.961,1.57544
206.2000,-51.8815,331.136,1.5869
206.1000,-52.5317,331.982,1.59514
206.0000,-52.0002,333.256,1.6075
205.9000,-55.9102,333.75,1.61228
205.8000,-52.6614,335.081,1.62514
205.7000,-54.5455,336.526,1.63905
205.6000,-48.0207,336.658,1.64033
205.5000,-43.5767,338.786,1.66071
205.4000,-47.4432,338.947,1.66225
205.3000,-48.4582,340.218,1.67438
205.2000,-48.5311,342.248,1.69365
205.1000,-46.4522,343.338,1.70397
205.0000,-37.0522,345.424,1.72363
204.9000,-44.5628,346.114,1.73012
204.8000,-41.7437,347.11,1.73945
204.7000,-38.1752,348.553,1.75295
204.6000,-35.2002,349.543,1.76218
204.5000,-35.7202,350.752,1.77342
204.4000,-38.1342,352.214,1.78696
204.3000,-34.8852,352.853,1.79287
204.2000,-36.5654,355.059,1.81319
204.1000,-36.1408,356.383,1.82534
204.0000,-34.375,357.59,1.83638
203.9000,-31.1624,359.071,1.84989
203.8000,-25.9273,361.054,1.86789
203.7000,-25.4023,361.694,1.87369
203.6000,-26.8295,363.589,1.89079
203.5000,-22.9488,365.227,1.90552
203.4000,-23.673,366.372,1.91578
203.3000,-22.8174,367.593,1.92669
203.2000,-21.7726,369.102,1.94014
203.1000,-16.1723,370.787,1.9551
203.0000,-17.3313,372.103,1.96674
202.9000,-16.1737,374.274,1.98587
202.8000,-21.2414,375.446,1.99617
202.7000,-13.1064,376.803,2.00804
202.6000,-17.2905,378.349,2.02154
202.5000,-18.7064,379.315,2.02994
202.4000,-15.4504,381.168,2.04602
202.3000,-8.69933,383.15,2.06314
202.2000,-7.22152,384.962,2.07873
202.1000,-11.7536,387.668,2.10189
202.0000,1.93438,389.397,2.11662
201.9000,-0.194127,390.026,2.12196
201.8000,-5.05159,393.179,2.14865
201.7000,-4.46913,395.072,2.16459
201.6000,10.0058,395.954,2.17199
201.5000,4.48941,398.459,2.19294
201.4000,12.466,400.82,2.21259
201.3000,4.37869,402.602,2.22734
201.2000,12.4871,404.597,2.24381
201.1000,7.32069,405.661,2.25256
201.0000,19.106,407.188,2.26509
200.9000,7.60998,409.628,2.28502
200.8000,15.4124,410.555,2.29256
200.7000,-8.91074,412.858,2.31125
200.6000,16.0403,415.29,2.33089
200.5000,20.5259,416.831,2.34328
200.4000,6.7212,420.487,2.37254
200.3000,17.9178,422.134,2.38565
200.2000,6.20006,424.295,2.40278
200.1000,9.38955,427.138,2.42521
200.0000,26.1402,428.757,2.43792
199.9000,14.596,431.894,2.46244
199.8000,18.4899,432.739,2.46903
199.7000,22.014,435.579,2.49107
199.6000,19.0557,437.967,2.5095
199.5000,22.1459,439.621,2.52222
199.4000,26.0415,441.544,2.53696
199.3000,21.3844,444.412,2.55884
199.2000,25.9411,446.332,2.57342
199.1000,34.1032,448.047,2.5864
199.0000,26.1801,450.032,2.60137
198.9000,25.0475,453.047,2.624
198.8000,24.2309,455.856,2.64497
198.7000,34.2678,458.274,2.66294
198.6000,35.8762,460.235,2.67745
198.5000,27.2719,462.426,2.69361
198.4000,32.6317,465.676,2.71744
198.3000,36.1402,468.219,2.736
198.2000,30.8918,470.506,2.75262
198.1000,44.4325,472.973,2.77046
198.0000,29.2926,474.836,2.78389
197.9000,45.4846,478.143,2.80761
197.8000,24.6011,479.76,2.81916
197.7000,37.1409,483.056,2.8426
197.6000,32.188,485.169,2.85756
197.5000,26.7677,487.916,2.87692
197.4000,30.1868,490.13,2.89245
197.3000,27.4891,493.211,2.91397
197.2000,20.607,494.56,2.92336
197.1000,41.4364,496.793,2.93886
197.0000,37.9143,499.639,2.95851
196.9000,26.6823,502.366,2.97726
196.8000,41.0264,504.833,2.99415
196.7000,37.5954,509.521,3.02605
196.6000,32.5454,511.352,3.03844
196.5000,39.1261,514.227,3.05782
196.4000,36.3859,516.785,3.07499
196.3000,35.8519,519.68,3.09434
196.2000,36.9636,523.841,3.12197
196.1000,39.0351,525.497,3.13293
196.0000,35.0527,528.458,3.15243
195.9000,32.7556,530.906,3.16848
195.8000,35.6888,533.67,3.18654
195.7000,44.0169,536.402,3.2043
195.6000,33.0946,539.112,3.22185
195.5000,20.3747,540.564,3.23122
195.4000,40.6026,544.156,3.25431
195.3000,39.3644,546.331,3.26823
195.2000,30.5235,548.499,3.28206
195.1000,26.27,550.928,3.2975
195.0000,32.0202,553.865,3.31609
194.9000,38.0167,555.141,3.32413
194.8000,18.6296,557.043,3.33611
194.7000,32.9085,559.387,3.35081
194.6000,42.5422,562.46,3.37001
194.5000,39.4113,563.583,3.377
194.4000,36.1453,566.875,3.39743
194.3000,25.3617,569.85,3.41582
194.2000,43.5486,571.148,3.42381
194.1000,35.4197,574.477,3.44424
194.0000,43.3782,577.594,3.46327
193.9000,28.5343,579.963,3.47769
193.8000,21.1366,583.419,3.49862
193.7000,34.7238,584.738,3.50658
193.6000,34.8809,587.851,3.52532
193.5000,21.4705,589.682,3.5363
193.4000,27.0779,591.746,3.54863
193.3000,27.7582,593.268,3.55771
193.2000,30.7645,595.166,3.569
193.1000,25.502,597.452,3.58256
193.0000,37.5409,599.707,3.59589
192.9000,15.7163,601.769,3.60804
192.8000,22.6663,603.78,3.61986
192.7000,16.4144,606.717,3.63706
192.6000,23.5576,608.91,3.64986
192.5000,26.3507,611.681,3.66597
192.4000,15.5365,614.45,3.68201
192.3000,9.68792,617.174,3.69773
192.2000,10.9212,619.591,3.71163
192.1000,21.5621,621.703,3.72373
192.0000,21.7679,623.49,3.73395
191.9000,32.0773,625.744,3.74681
191.8000,22.0874,628.806,3.7642
191.7000,15.195,631.014,3.7767
191.6000,30.028,632.468,3.78491
191.5000,11.509,634.357,3.79555
191.4000,-0.485404,636.851,3.80956
191.3000,17.357,640.171,3.82813
191.2000,16.9154,642.435,3.84075
191.1000,16.0418,645.804,3.85947
191.0000,15.9293,649.006,3.87718
190.9000,18.4389,652.24,3.89498
190.8000,22.5046,655.321,3.91188
190.7000,34.9759,658.444,3.92894
190.6000,13.4759,662.09,3.94876
190.5000,21.3971,664.75,3.96317
190.4000,1.72678,667.405,3.9775
190.3000,29.6826,670.139,3.99221
190.2000,13.7352,672.789,4.00642
190.1000,27.0766,674.565,4.01591
190.0000,15.3829,677.758,4.03292

##### Extended Information
[Comments]
Sample name,CC.SJ.9_28_22_PHOSPHATEBUFFER_PROTEIN
Comment,TEST 1 TUBE 1
User,CARYN CARHART
Division
Company,Saint Mary's College

[Detailed Information]
Creation date,9/28/2022 2:12 PM

Data array type,Linear data array * 3
Horizontal axis,Wavelength [nm]
Vertical axis(1),CD [mdeg]
Vertical axis(2),HT [V]
Vertical axis(3),Abs
Start,320 nm
End,190 nm
Data interval,0.1 nm
Data points,1301    

[Measurement Information]
Instrument name,J-1500
Model name,J-1500
Serial No.,B051061638

Detector,PM-539
Detector S/N,B051061638
  Lock-in amp.,X mode
  HT volt,Auto

Accessory,PTC-517
Accessory S/N,B026561646
  Temperature,26.44 C
  Control sensor,Holder
  Monitor sensor,Holder

Measurement date,9/28/2022 2:12 PM

CD Overload detect,972
Photometric mode,CD, HT, Abs
Measure range,320 - 190 nm
Data pitch,0.1 nm
CD scale,20 mdeg/0.05 dOD
FL scale,20 mdeg/0.05 dOD
D.I.T.,8 msec
Bandwidth,2.00 nm
Start mode,Immediately
Scanning mode,Continuous
Scanning speed,200 nm/min
Baseline correction,None
Shutter control,Auto
No. of cycle,1/1
N2 Flowmeter,Manual

Solvent,NaPO4 buffer

