TITLE,CC.SJ.9_28_22_PHOSPHATEBUFFER_CONTROL
DATA TYPE,
ORIGIN,JASCO
OWNER,
DATE,22/09/28
TIME,13:58:08
SPECTROMETER/DATA SYSTEM,
LOCALE,1033
RESOLUTION,
DELTAX,-0.1
XUNITS,NANOMETERS
YUNITS,CD [mdeg]
Y2UNITS,HT [V]
Y3UNITS,ABSORBANCE
FIRSTX,  320.0000
LASTX,  190.0000
NPOINTS,    1301
FIRSTY,    -0.19391
MAXY,     6.42178
MINY,    -3.32288
XYDATA
320.0000,-0.193906,208.503,0.151398
319.9000,0.460169,208.644,0.153422
319.8000,-0.220092,208.212,0.147248
319.7000,0.0637697,208.236,0.147589
319.6000,1.65826,208.419,0.150199
319.5000,1.43996,208.292,0.148384
319.4000,1.1498,208.324,0.148838
319.3000,1.0007,207.771,0.140918
319.2000,0.689071,208.558,0.152192
319.1000,-0.901975,207.883,0.142526
319.0000,2.37913,208.448,0.15062
318.9000,2.21373,208.219,0.147346
318.8000,2.06554,208.073,0.145253
318.7000,0.0273891,208.304,0.148562
318.6000,0.701593,208.49,0.15122
318.5000,1.04968,208.225,0.147427
318.4000,0.792798,207.95,0.143484
318.3000,0.75701,208.685,0.154005
318.2000,0.629757,208.622,0.153098
318.1000,1.27437,207.707,0.140008
318.0000,1.43246,208.746,0.154879
317.9000,1.95487,208.053,0.144961
317.8000,1.33865,208.18,0.146778
317.7000,1.40964,208.236,0.147589
317.6000,0.564567,208.122,0.145951
317.5000,1.37817,208.273,0.148108
317.4000,0.81151,208.339,0.149064
317.3000,0.0453717,207.714,0.140105
317.2000,-0.565262,207.922,0.143094
317.1000,1.54631,207.861,0.142217
317.0000,1.18096,207.686,0.139699
316.9000,0.223849,208.507,0.151463
316.8000,-0.50344,208.317,0.14874
316.7000,1.65618,208.361,0.149372
316.6000,0.79106,207.844,0.141974
316.5000,-0.608846,207.845,0.14199
316.4000,-0.66656,207.36,0.135032
316.3000,0.355696,208.2,0.14707
316.2000,1.76585,208.069,0.145188
316.1000,0.997987,208.274,0.148124
316.0000,1.53137,208.086,0.145432
315.9000,0.497952,207.563,0.137943
315.8000,1.50484,207.602,0.138496
315.7000,-0.369095,207.865,0.142266
315.6000,0.891482,207.808,0.141454
315.5000,0.0120968,208.319,0.148773
315.4000,0.996323,208.052,0.144945
315.3000,0.660282,208.112,0.145805
315.2000,-0.737468,207.807,0.141438
315.1000,0.468392,207.406,0.135683
315.0000,-1.85263,207.417,0.135846
314.9000,0.676218,207.701,0.139927
314.8000,1.48811,207.95,0.143484
314.7000,1.77326,207.63,0.138903
314.6000,0.116392,207.561,0.137911
314.5000,-0.334987,207.75,0.140625
314.4000,1.10723,207.964,0.143695
314.3000,1.50015,207.636,0.138984
314.2000,-1.34574,207.609,0.138594
314.1000,0.92437,208.016,0.144442
314.0000,0.241036,207.593,0.138366
313.9000,-0.0333009,207.766,0.140853
313.8000,2.49364,207.61,0.13861
313.7000,0.556547,207.312,0.134332
313.6000,0.0734646,206.473,0.122268
313.5000,0.293977,208.039,0.144766
313.4000,1.73796,208.503,0.151398
313.3000,2.0827,207.399,0.135585
313.2000,-0.392888,208.355,0.149291
313.1000,-1.31417,207.061,0.130733
313.0000,2.8319,207.501,0.137049
312.9000,0.917851,207.186,0.132525
312.8000,1.46647,207.171,0.132313
312.7000,2.67332,206.421,0.121517
312.6000,0.385899,207.551,0.137765
312.5000,-0.826852,207.428,0.136008
312.4000,1.15344,207.262,0.133616
312.3000,1.3057,207.39,0.135455
312.2000,2.41438,207.637,0.139
312.1000,1.87244,207.997,0.144166
312.0000,1.05924,208.397,0.149891
311.9000,1.73926,206.928,0.12881
311.8000,1.95376,206.792,0.126854
311.7000,1.8683,207.39,0.135455
311.6000,2.88825,208.032,0.144669
311.5000,1.0495,207.2,0.13272
311.4000,1.63468,207.833,0.141811
311.3000,1.90454,207.333,0.134641
311.2000,0.92693,207.674,0.139537
311.1000,-0.563702,207.508,0.137147
311.0000,-0.559496,207.499,0.137017
310.9000,1.14016,207.554,0.137814
310.8000,1.64071,207.49,0.136886
310.7000,-0.133803,207.444,0.136236
310.6000,-0.0132317,207.348,0.134853
310.5000,1.43483,207.367,0.13513
310.4000,0.976824,207.065,0.130782
310.3000,-0.269462,207.834,0.141827
310.2000,3.09146,207.364,0.135081
310.1000,1.09416,207.764,0.14082
310.0000,1.40731,207.186,0.132525
309.9000,1.05527,207.456,0.136398
309.8000,0.232362,207.59,0.138334
309.7000,1.92135,207.544,0.137667
309.6000,1.62865,207.177,0.132395
309.5000,1.37547,207.696,0.139846
309.4000,-0.922004,207.527,0.137423
309.3000,0.843681,207.772,0.140934
309.2000,-0.405964,208.369,0.149486
309.1000,1.53573,207.681,0.139634
309.0000,0.709739,207.762,0.140788
308.9000,-0.481503,207.213,0.132916
308.8000,2.17504,207.948,0.143468
308.7000,0.963269,207.756,0.140707
308.6000,1.36044,207.948,0.143468
308.5000,-0.308369,207.411,0.135764
308.4000,0.322954,207.377,0.135276
308.3000,0.561692,207.164,0.132216
308.2000,-0.469123,207.351,0.134902
308.1000,0.86316,207.153,0.132053
308.0000,1.3879,207.263,0.133632
307.9000,0.868564,207.456,0.136398
307.8000,0.912131,207.988,0.144036
307.7000,1.53526,207.571,0.138057
307.6000,1.18896,207.996,0.14415
307.5000,1.0292,207.524,0.137374
307.4000,-0.451284,207.282,0.133909
307.3000,0.794739,206.848,0.127669
307.2000,1.86235,207.627,0.138854
307.1000,0.804049,207.003,0.129902
307.0000,-0.662618,208.028,0.144604
306.9000,0.0141595,207.406,0.135683
306.8000,1.26374,207.99,0.144068
306.7000,-0.864863,207.419,0.135878
306.6000,1.36264,207.713,0.140089
306.5000,0.938373,207.794,0.141259
306.4000,-0.491138,207.522,0.137358
306.3000,1.39895,207.8,0.14134
306.2000,-2.19573,207.822,0.141649
306.1000,1.41409,207.515,0.137244
306.0000,0.517526,207.677,0.139569
305.9000,0.615078,207.377,0.135276
305.8000,1.57588,207.107,0.131385
305.7000,0.881905,207.18,0.132444
305.6000,0.438484,207.019,0.13013
305.5000,2.36616,207.9,0.14277
305.4000,0.476932,207.462,0.136496
305.3000,1.3504,207.674,0.139537
305.2000,0.857264,207.33,0.134592
305.1000,-0.233205,208.22,0.147362
305.0000,-0.122129,207.391,0.135471
304.9000,0.104418,207.145,0.131939
304.8000,0.877858,206.878,0.128093
304.7000,1.03674,208.275,0.14814
304.6000,-1.29511,207.885,0.142558
304.5000,0.728926,207.45,0.136317
304.4000,1.34575,207.585,0.138252
304.3000,1.54948,207.525,0.137391
304.2000,1.20654,207.381,0.135325
304.1000,1.08897,207.193,0.132623
304.0000,1.22944,207.789,0.141178
303.9000,0.382836,207.324,0.134511
303.8000,0.381339,206.721,0.125842
303.7000,0.634549,206.824,0.127327
303.6000,1.98587,207.136,0.131808
303.5000,1.82881,207.4,0.135602
303.4000,0.724474,207.11,0.131434
303.3000,1.18811,207.49,0.136886
303.2000,1.77995,207.326,0.134544
303.1000,1.94283,206.839,0.127539
303.0000,0.64445,207.339,0.134723
302.9000,1.13922,206.64,0.124667
302.8000,1.08557,206.989,0.12969
302.7000,1.06546,206.862,0.127865
302.6000,0.446951,207.384,0.135374
302.5000,1.49908,207.305,0.134234
302.4000,0.436345,207.263,0.133632
302.3000,0.746893,206.504,0.122709
302.2000,1.02965,206.776,0.126625
302.1000,-0.378343,207.633,0.138952
302.0000,2.9436,207.333,0.134641
301.9000,2.83346,207.234,0.133209
301.8000,1.18005,207.18,0.132444
301.7000,-0.418881,207.299,0.134153
301.6000,0.55436,206.938,0.128957
301.5000,-0.138846,207.1,0.131287
301.4000,-0.00859445,206.621,0.12439
301.3000,1.31888,206.749,0.126234
301.2000,0.677984,206.78,0.126691
301.1000,-0.952456,206.929,0.128826
301.0000,0.923749,206.989,0.12969
300.9000,-1.04096,206.818,0.127229
300.8000,0.594937,206.7,0.125532
300.7000,-0.166854,206.727,0.125924
300.6000,1.36295,206.828,0.127376
300.5000,-0.185896,207.093,0.131189
300.4000,1.52875,207.212,0.132899
300.3000,0.122057,206.695,0.125467
300.2000,1.79586,206.398,0.12119
300.1000,1.52583,206.729,0.125956
300.0000,0.384025,207.232,0.133193
299.9000,1.04151,206.5,0.12266
299.8000,-0.245932,206.852,0.127718
299.7000,1.2812,206.724,0.125875
299.6000,1.19652,206.376,0.120863
299.5000,0.975077,207.264,0.133649
299.4000,0.537118,206.938,0.128957
299.3000,1.27122,206.317,0.120013
299.2000,0.49426,206.974,0.129478
299.1000,-0.0641133,206.59,0.12395
299.0000,-1.24012,207.124,0.131629
298.9000,0.0514987,206.729,0.125956
298.8000,0.0841611,206.87,0.127979
298.7000,-1.30122,205.966,0.114944
298.6000,1.65105,206.368,0.120749
298.5000,-0.309287,207.144,0.131922
298.4000,1.10172,206.039,0.116008
298.3000,-0.869609,206.93,0.128843
298.2000,1.0657,207.354,0.134934
298.1000,1.35197,206.839,0.127539
298.0000,1.35773,207.375,0.135243
297.9000,0.20506,206.659,0.124945
297.8000,-0.172164,206.684,0.125304
297.7000,-0.939165,206.358,0.120602
297.6000,-0.668056,207.326,0.134544
297.5000,0.875669,206.7,0.125532
297.4000,-0.457394,206.682,0.125271
297.3000,1.84725,206.781,0.126707
297.2000,0.975435,206.489,0.122496
297.1000,2.18883,206.606,0.124178
297.0000,0.892499,207.085,0.131075
296.9000,0.0647515,206.273,0.119376
296.8000,1.73532,206.329,0.120193
296.7000,3.05389,206.764,0.126462
296.6000,-0.460268,206.116,0.11712
296.5000,0.0278043,207.025,0.130212
296.4000,1.01206,206.953,0.129169
296.3000,2.39682,206.785,0.126756
296.2000,0.864196,206.583,0.123851
296.1000,1.20097,206.345,0.120422
296.0000,0.694407,206.843,0.127587
295.9000,-0.268747,206.523,0.122986
295.8000,0.864297,206.858,0.127816
295.7000,0.630189,206.24,0.118902
295.6000,-1.27703,206.176,0.117987
295.5000,0.263128,206.489,0.122496
295.4000,2.25111,206.966,0.129365
295.3000,0.688201,206.15,0.117611
295.2000,-0.0979262,206.803,0.127017
295.1000,-0.254555,207.026,0.130228
295.0000,0.405455,206.321,0.120079
294.9000,2.05681,205.884,0.113766
294.8000,-1.32531,206.188,0.11815
294.7000,0.549196,206.082,0.116629
294.6000,-0.687615,206.116,0.11712
294.5000,0.463254,206.832,0.127441
294.4000,0.600886,206.792,0.126854
294.3000,1.5415,206.812,0.127147
294.2000,-1.246,205.941,0.114584
294.1000,1.13788,205.951,0.114732
294.0000,0.151048,206.097,0.116842
293.9000,1.36024,206.513,0.122839
293.8000,1.53723,206.341,0.120357
293.7000,1.33278,206.23,0.118755
293.6000,0.230806,206.644,0.124733
293.5000,-0.554881,206.42,0.1215
293.4000,0.116484,206.838,0.127522
293.3000,-0.33546,206.406,0.121304
293.2000,-0.0396074,206.699,0.125516
293.1000,1.91285,206.258,0.119164
293.0000,2.05721,206.364,0.1207
292.9000,1.30995,206.316,0.119997
292.8000,-0.589834,206.199,0.118314
292.7000,0.737792,206.839,0.127539
292.6000,2.20892,206.227,0.118722
292.5000,1.8126,206.148,0.117578
292.4000,1.65383,205.755,0.111899
292.3000,0.767529,206.202,0.118363
292.2000,0.893333,205.976,0.115092
292.1000,1.57232,206.12,0.117169
292.0000,1.96121,205.586,0.109458
291.9000,0.329059,205.423,0.107098
291.8000,0.817478,205.642,0.110261
291.7000,1.56531,206.049,0.116155
291.6000,1.05054,205.765,0.112047
291.5000,-0.384737,205.239,0.10444
291.4000,0.892926,206.14,0.117463
291.3000,1.46534,205.537,0.108754
291.2000,-0.687281,204.598,0.0951396
291.1000,1.6295,204.848,0.0987739
291.0000,0.347129,205.031,0.101419
290.9000,1.52108,206.069,0.116433
290.8000,0.583341,205.34,0.1059
290.7000,0.798603,205.941,0.114584
290.6000,1.39585,205.91,0.114143
290.5000,1.74426,206.59,0.12395
290.4000,2.17969,205.374,0.106393
290.3000,-0.384871,206.013,0.115632
290.2000,2.23857,205,0.100976
290.1000,-0.693673,205.801,0.112571
290.0000,1.73928,206.183,0.118085
289.9000,1.05898,206.814,0.12718
289.8000,0.660219,206.545,0.123297
289.7000,0.0501416,205.161,0.103308
289.6000,0.431483,205.933,0.11447
289.5000,2.33871,207.189,0.132574
289.4000,0.282831,206.006,0.115534
289.3000,-0.143432,205.689,0.11095
289.2000,-0.358723,205.768,0.112096
289.1000,0.557231,205.621,0.109967
289.0000,1.21235,206.038,0.115991
288.9000,1.03439,205.892,0.11388
288.8000,0.889232,206.576,0.123753
288.7000,0.432799,205.365,0.106261
288.6000,0.604836,205.689,0.11095
288.5000,-0.294036,205.306,0.105408
288.4000,0.571117,207.166,0.132232
288.3000,1.01077,206.255,0.119115
288.2000,0.473622,206.296,0.119719
288.1000,1.13852,206.281,0.119491
288.0000,0.71422,206.431,0.121664
287.9000,0.153952,205.742,0.111719
287.8000,-0.573057,206.366,0.120716
287.7000,1.31073,206.424,0.121565
287.6000,0.991299,205.259,0.104719
287.5000,1.48376,205.048,0.101666
287.4000,-0.0207196,206.523,0.122986
287.3000,1.20128,206.213,0.11851
287.2000,1.33941,206.006,0.115534
287.1000,1.34077,205.695,0.111032
287.0000,0.977097,206.502,0.122676
286.9000,1.25989,206.112,0.117055
286.8000,0.569666,205.849,0.113259
286.7000,-0.275437,206.026,0.115812
286.6000,-0.36298,205.986,0.115239
286.5000,0.742686,205.632,0.11013
286.4000,0.399978,205.643,0.110278
286.3000,0.472478,205.629,0.110081
286.2000,-0.475869,206.096,0.116826
286.1000,1.04467,206.831,0.127424
286.0000,0.898835,206.171,0.117905
285.9000,1.19536,206.026,0.115812
285.8000,-0.973138,206.18,0.118036
285.7000,0.113849,205.606,0.109753
285.6000,1.76514,206.247,0.119
285.5000,0.144879,206.368,0.120749
285.4000,0.00932606,205.485,0.108
285.3000,0.733371,206.027,0.115828
285.2000,-0.143455,207.01,0.13
285.1000,0.53482,205.521,0.108524
285.0000,0.644563,205.94,0.114568
284.9000,1.09338,205.907,0.114093
284.8000,1.07065,206.015,0.115664
284.7000,0.87911,206.081,0.116613
284.6000,-0.402516,206.581,0.123819
284.5000,-0.48825,206.31,0.119915
284.4000,-0.388495,206.014,0.115648
284.3000,1.26214,205.793,0.112456
284.2000,0.322542,205.843,0.113177
284.1000,0.146541,205.474,0.107836
284.0000,0.75622,206.173,0.117938
283.9000,1.34187,206.097,0.116842
283.8000,0.751799,205.724,0.111457
283.7000,-0.657395,205.74,0.111687
283.6000,-0.125649,206.168,0.117872
283.5000,0.271943,206.086,0.116679
283.4000,0.359622,206.703,0.125581
283.3000,0.053593,206.061,0.116319
283.2000,-0.700996,205.362,0.106212
283.1000,0.214871,205.447,0.107442
283.0000,2.02911,206.54,0.123231
282.9000,0.0963631,206.251,0.119066
282.8000,0.145332,205.365,0.106261
282.7000,0.893357,206.24,0.118902
282.6000,-0.458353,205.736,0.111621
282.5000,-0.0666279,206.291,0.119638
282.4000,0.370232,206.843,0.127587
282.3000,0.563244,205.919,0.114273
282.2000,2.3388,205.941,0.114584
282.1000,0.761859,204.683,0.0963734
282.0000,0.993355,205.852,0.113308
281.9000,-0.187164,206.039,0.116008
281.8000,-0.381481,205.912,0.114175
281.7000,0.957429,204.919,0.099793
281.6000,0.710985,206.099,0.116875
281.5000,1.07939,207.127,0.131678
281.4000,2.33047,206.061,0.116319
281.3000,1.82961,206.54,0.123231
281.2000,2.04227,206.513,0.122839
281.1000,1.60229,205.666,0.110622
281.0000,2.38814,205.819,0.112833
280.9000,0.443394,205.672,0.110704
280.8000,0.473419,205.598,0.109639
280.7000,1.61644,205.788,0.112374
280.6000,0.0287177,206.844,0.127604
280.5000,1.57649,205.087,0.10224
280.4000,0.211942,205.575,0.109294
280.3000,0.102249,205.98,0.115157
280.2000,0.893009,207.262,0.133616
280.1000,-0.14135,205.739,0.11167
280.0000,1.93419,205.823,0.112882
279.9000,-0.0120367,205.722,0.111424
279.8000,0.0459544,205.158,0.103258
279.7000,0.706477,205.749,0.111818
279.6000,-0.607179,205.784,0.112325
279.5000,0.356271,206.286,0.119572
279.4000,2.06579,206.089,0.116727
279.3000,0.825866,205.838,0.113095
279.2000,0.649886,206.218,0.118592
279.1000,0.814412,205.529,0.108639
279.0000,1.74419,205.593,0.109557
278.9000,0.900122,205.689,0.11095
278.8000,1.32221,205.836,0.113079
278.7000,0.106007,206.074,0.116515
278.6000,0.0205084,205.833,0.113029
278.5000,0.508858,205.768,0.112096
278.4000,2.18993,206.261,0.119213
278.3000,0.784845,205.649,0.110376
278.2000,0.0191856,206.59,0.12395
278.1000,0.764108,206.23,0.118755
278.0000,-1.40526,206.093,0.116777
277.9000,1.18475,206.437,0.121745
277.8000,1.67069,205.925,0.114355
277.7000,0.310586,206.094,0.116793
277.6000,1.98964,206.562,0.123541
277.5000,0.115692,206.072,0.116482
277.4000,0.432045,206.428,0.121615
277.3000,1.46509,205.11,0.102569
277.2000,-0.0212569,206.245,0.118984
277.1000,2.06216,206.269,0.119327
277.0000,0.993657,205.548,0.108901
276.9000,1.38924,205.853,0.113324
276.8000,0.896286,205.912,0.114175
276.7000,1.8092,206.025,0.115795
276.6000,-0.0661901,206.167,0.117856
276.5000,1.06767,205.703,0.111146
276.4000,-0.715191,205.508,0.108328
276.3000,0.0268364,206.059,0.116286
276.2000,-0.383876,206.217,0.118575
276.1000,0.882603,206.052,0.116188
276.0000,2.49923,206.443,0.121827
275.9000,1.29287,205.814,0.112751
275.8000,-1.18093,206.028,0.115844
275.7000,1.6198,206.3,0.119768
275.6000,1.55651,205.682,0.110851
275.5000,-0.462433,206.477,0.122317
275.4000,-0.251056,206.125,0.117251
275.3000,0.852539,205.903,0.114044
275.2000,0.442095,206.19,0.118183
275.1000,0.651654,205.903,0.114044
275.0000,2.37839,205.664,0.110589
274.9000,1.1018,206,0.115435
274.8000,0.502037,206.231,0.118771
274.7000,1.42023,205.686,0.1109
274.6000,2.25043,205.92,0.11429
274.5000,-0.48898,205.994,0.115353
274.4000,-0.337642,205.349,0.106032
274.3000,1.35985,205.81,0.112702
274.2000,-0.548415,206.248,0.119017
274.1000,1.09799,205.882,0.113733
274.0000,1.43002,206.121,0.117186
273.9000,-0.0368314,205.926,0.114371
273.8000,-0.866439,206.153,0.117643
273.7000,-0.732959,206.333,0.120242
273.6000,-0.0972181,206.145,0.117529
273.5000,0.604494,205.989,0.115288
273.4000,2.16366,206.693,0.125435
273.3000,1.32615,206.379,0.120912
273.2000,0.539539,206.536,0.123166
273.1000,1.31042,206.685,0.12532
273.0000,-0.516268,206.275,0.119409
272.9000,0.496857,206.559,0.123509
272.8000,-0.152349,206.049,0.116155
272.7000,-1.31945,206.08,0.116597
272.6000,-1.3072,205.791,0.112424
272.5000,0.217335,206.242,0.118935
272.4000,-0.65114,205.838,0.113095
272.3000,1.55988,206.107,0.116989
272.2000,-0.0734903,206.39,0.121075
272.1000,1.44807,206.468,0.122186
272.0000,0.844488,206.642,0.1247
271.9000,1.91167,206.599,0.12408
271.8000,0.566318,206.783,0.126723
271.7000,1.39543,207.074,0.130913
271.6000,0.315375,205.41,0.106917
271.5000,-0.686209,206.137,0.117415
271.4000,0.331733,206.247,0.119
271.3000,2.92425,206.236,0.118853
271.2000,1.5486,206.656,0.124896
271.1000,1.55618,205.809,0.112686
271.0000,0.71041,206.676,0.12519
270.9000,0.800638,206.767,0.126495
270.8000,1.9631,206.447,0.121892
270.7000,1.50008,206.844,0.127604
270.6000,2.23235,206.679,0.125239
270.5000,-0.146637,206.652,0.124847
270.4000,0.78332,206.857,0.1278
270.3000,-0.0838616,206.695,0.125467
270.2000,1.41386,206.571,0.123672
270.1000,0.217839,206.797,0.126935
270.0000,1.02737,206.274,0.119393
269.9000,1.24893,206.26,0.119196
269.8000,0.792393,206.421,0.121517
269.7000,0.64823,206.41,0.121353
269.6000,0.251086,206.492,0.122545
269.5000,0.101715,206.786,0.126772
269.4000,0.446842,206.48,0.122366
269.3000,1.27628,206.466,0.12217
269.2000,-0.185858,206.907,0.128517
269.1000,0.489341,207.204,0.132786
269.0000,0.177463,207.345,0.134804
268.9000,-0.855073,207.286,0.133958
268.8000,-1.0033,207.073,0.130896
268.7000,2.54322,207.42,0.135894
268.6000,0.952727,207.656,0.139277
268.5000,0.127111,207.42,0.135894
268.4000,-0.0701817,207.311,0.134316
268.3000,0.338648,206.567,0.123623
268.2000,1.4926,206.923,0.128745
268.1000,0.334591,206.739,0.126103
268.0000,-0.992568,207.352,0.134918
267.9000,0.171908,207.436,0.136122
267.8000,0.572504,207.413,0.13578
267.7000,0.897474,207.163,0.132199
267.6000,1.42447,207.088,0.131124
267.5000,-0.0760779,207.411,0.135764
267.4000,-1.56981,206.932,0.128876
267.3000,-0.0287658,206.8,0.126968
267.2000,-0.10548,207.571,0.138057
267.1000,2.99175,207.545,0.137683
267.0000,-0.622958,207.807,0.141438
266.9000,0.494352,206.886,0.128207
266.8000,0.688033,207.104,0.131352
266.7000,-0.426699,207.844,0.141974
266.6000,0.843169,207.614,0.138675
266.5000,-0.674864,208.377,0.149599
266.4000,-0.133448,206.614,0.124292
266.3000,0.0941971,207.45,0.136317
266.2000,-0.578447,207.675,0.139553
266.1000,0.820637,207.911,0.142932
266.0000,0.14979,207.565,0.137976
265.9000,0.686576,208.072,0.145237
265.8000,0.328769,207.697,0.139862
265.7000,0.847811,207.544,0.137667
265.6000,0.0142619,207.829,0.141762
265.5000,-0.419299,208.377,0.149599
265.4000,1.09794,207.798,0.141308
265.3000,1.2876,207.121,0.131597
265.2000,0.814475,207.633,0.138952
265.1000,1.12833,207.993,0.144101
265.0000,1.72328,207.274,0.133795
264.9000,0.710235,207.995,0.144133
264.8000,-0.68169,207.528,0.137439
264.7000,-1.60678,207.775,0.140983
264.6000,0.0471202,207.52,0.137326
264.5000,0.549367,208.143,0.146259
264.4000,-0.292507,208.06,0.145058
264.3000,1.05177,207.309,0.1343
264.2000,0.648074,207.655,0.13926
264.1000,1.24851,208.066,0.145156
264.0000,1.37296,207.948,0.143468
263.9000,0.492941,208.164,0.146551
263.8000,-0.771799,207.945,0.143419
263.7000,-0.0847353,208.62,0.153082
263.6000,-0.500935,207.792,0.141227
263.5000,0.0220269,208.337,0.149032
263.4000,0.881027,208.19,0.146924
263.3000,0.0266132,208.363,0.149405
263.2000,0.99819,207.576,0.138123
263.1000,-0.605892,208.987,0.158325
263.0000,0.559237,208.36,0.149356
262.9000,1.05241,209.511,0.165787
262.8000,1.97991,207.936,0.143289
262.7000,1.66992,207.281,0.133893
262.6000,1.28235,208.52,0.151641
262.5000,0.760718,208.359,0.14934
262.4000,-0.578022,208.636,0.153309
262.3000,0.69645,208.825,0.156012
262.2000,-0.431228,208.897,0.157031
262.1000,2.07047,208.205,0.147135
262.0000,0.433972,209.436,0.164722
261.9000,1.0979,208.999,0.158486
261.8000,-1.45777,208.475,0.151009
261.7000,0.983103,209.142,0.160523
261.6000,0.471124,208.566,0.152305
261.5000,0.694298,208.863,0.156546
261.4000,0.316642,208.385,0.149713
261.3000,-0.743145,208.522,0.151673
261.2000,0.25782,208.422,0.150248
261.1000,-1.46843,209.698,0.168448
261.0000,0.538228,208.65,0.153503
260.9000,0.986206,208.895,0.156998
260.8000,1.24343,208.48,0.151074
260.7000,-0.715521,208.627,0.153179
260.6000,0.0421827,208.733,0.154685
260.5000,0.461194,208.717,0.154458
260.4000,-0.0501159,209.217,0.161605
260.3000,-0.878975,209.357,0.163592
260.2000,1.277,209.358,0.163608
260.1000,-2.21655,209.016,0.158729
260.0000,0.713757,209.329,0.163188
259.9000,-0.985721,209.006,0.158583
259.8000,0.419864,209.335,0.163285
259.7000,-1.04026,208.87,0.156643
259.6000,0.765922,209.431,0.164641
259.5000,0.183818,209.374,0.163834
259.4000,0.944129,209.144,0.160555
259.3000,0.705117,209.655,0.167836
259.2000,-0.0712177,208.728,0.15462
259.1000,0.887267,209.347,0.163446
259.0000,0.688119,209.324,0.163123
258.9000,0.265496,209.594,0.166965
258.8000,0.241832,209.033,0.158971
258.7000,-0.564985,209.415,0.164415
258.6000,1.54519,209.617,0.167303
258.5000,-0.0474497,209.631,0.167497
258.4000,1.16398,209.833,0.170366
258.3000,0.705069,209.858,0.170721
258.2000,0.712556,210.126,0.174538
258.1000,0.385083,209.716,0.168706
258.0000,0.228268,209.264,0.162268
257.9000,0.147304,209.74,0.169045
257.8000,-0.61399,209.817,0.170141
257.7000,0.365172,209.772,0.169496
257.6000,1.13164,210.312,0.177177
257.5000,0.731032,209.983,0.172509
257.4000,0.763126,210.235,0.176083
257.3000,0.512387,210.34,0.177579
257.2000,0.46749,209.027,0.158891
257.1000,1.83452,210.771,0.183685
257.0000,-1.09275,210.166,0.175101
256.9000,1.57362,210.734,0.183155
256.8000,0.701627,210.336,0.177514
256.7000,1.39174,210.296,0.176951
256.6000,0.39423,209.931,0.171768
256.5000,-0.346621,210.232,0.176034
256.4000,-0.362831,209.38,0.163915
256.3000,0.813589,209.863,0.170801
256.2000,0.579932,210.368,0.177965
256.1000,2.17201,209.965,0.172251
256.0000,0.0208568,210.487,0.179653
255.9000,0.69597,210.398,0.178399
255.8000,0.739473,210.752,0.183412
255.7000,0.461831,210.279,0.17671
255.6000,-0.426171,210.913,0.185692
255.5000,-1.07261,210.117,0.174409
255.4000,-0.098363,210.102,0.1742
255.3000,0.51206,210.809,0.184231
255.2000,0.802193,210.754,0.183444
255.1000,1.52558,210.744,0.1833
255.0000,1.55666,210.609,0.181388
254.9000,1.89748,210.381,0.178158
254.8000,1.99672,210.289,0.176855
254.7000,0.425587,210.65,0.181967
254.6000,-0.166921,210.825,0.184456
254.5000,1.12437,211.23,0.190182
254.4000,-0.0205414,210.788,0.183926
254.3000,0.31306,210.855,0.184873
254.2000,-0.857004,211.733,0.197291
254.1000,0.725175,210.969,0.186494
254.0000,0.199159,211.094,0.188258
253.9000,1.12887,211.499,0.193994
253.8000,-0.00179969,211.906,0.199738
253.7000,-1.47974,211.118,0.188595
253.6000,0.32529,210.795,0.184022
253.5000,1.51642,211.357,0.191976
253.4000,1.20994,211.367,0.192121
253.3000,1.33486,211.43,0.193018
253.2000,-0.536294,211.141,0.188932
253.1000,-0.374897,211.855,0.199018
253.0000,1.61347,211.56,0.194843
252.9000,-0.418508,211.773,0.197851
252.8000,1.5513,211.441,0.193162
252.7000,1.63925,211.635,0.195915
252.6000,-0.267287,211.566,0.194939
252.5000,0.39517,211.705,0.196891
252.4000,1.1352,211.388,0.192425
252.3000,0.566693,211.822,0.198554
252.2000,3.37354,211.861,0.199098
252.1000,1.32304,212.144,0.203093
252.0000,0.723029,211.659,0.196251
251.9000,0.0264089,211.284,0.190951
251.8000,-1.13254,212.122,0.202773
251.7000,0.0214268,211.481,0.193738
251.6000,1.44695,212.348,0.205966
251.5000,0.702527,212.326,0.205647
251.4000,0.0159118,212.275,0.204929
251.3000,1.13604,211.932,0.200105
251.2000,1.93871,212.048,0.201735
251.1000,-1.13953,211.749,0.197515
251.0000,1.4084,211.91,0.199786
250.9000,1.21016,211.682,0.196571
250.8000,1.15268,211.565,0.194923
250.7000,-0.139979,213.352,0.220077
250.6000,2.70477,212.141,0.203045
250.5000,-1.35167,211.979,0.20076
250.4000,0.472781,212.252,0.20461
250.3000,-0.821738,212.985,0.214923
250.2000,0.0677878,212.473,0.207721
250.1000,0.732824,212.563,0.208997
250.0000,-0.00545118,212.499,0.208088
249.9000,-0.67664,212.442,0.207291
249.8000,-1.5702,212.315,0.205503
249.7000,0.493714,212.191,0.203747
249.6000,0.334215,212.316,0.205519
249.5000,0.335966,212.066,0.201991
249.4000,0.888023,212.388,0.206525
249.3000,-1.0937,212.729,0.211324
249.2000,-0.266475,213.05,0.215831
249.1000,-0.160002,212.957,0.214525
249.0000,0.836031,211.8,0.198235
248.9000,1.6266,213.247,0.218599
248.8000,1.27741,212.366,0.206222
248.7000,0.218687,213.164,0.217438
248.6000,0.537557,213.298,0.219314
248.5000,0.481091,213.114,0.216738
248.4000,2.46813,212.48,0.207817
248.3000,2.54145,212.472,0.207705
248.2000,-1.47812,213.473,0.221778
248.1000,1.3213,212.849,0.213013
248.0000,-0.490131,213.045,0.215767
247.9000,0.187948,212.286,0.205089
247.8000,-0.48159,213.273,0.218964
247.7000,-0.200475,212.542,0.208694
247.6000,0.443059,212.798,0.212296
247.5000,2.65667,213.148,0.217215
247.4000,1.04422,212.658,0.21032
247.3000,-1.02904,213.09,0.216404
247.2000,0.617592,212.757,0.211722
247.1000,-0.53087,213.078,0.216229
247.0000,2.32923,213.788,0.226192
246.9000,0.356269,213.138,0.217072
246.8000,1.52768,213.274,0.21898
246.7000,0.54464,213.469,0.221714
246.6000,-0.765217,213.734,0.225431
246.5000,2.44788,213.877,0.22743
246.4000,1.58931,213.086,0.21634
246.3000,-0.486656,213.28,0.21906
246.2000,-0.679804,213.93,0.228175
246.1000,-0.445752,213.716,0.225176
246.0000,1.08441,214.461,0.235606
245.9000,-0.877697,213.394,0.220666
245.8000,0.267238,213.937,0.22827
245.7000,0.978028,213.366,0.220268
245.6000,2.61678,214.606,0.237632
245.5000,1.03263,213.479,0.221857
245.4000,2.05254,213.244,0.218567
245.3000,2.07713,213.344,0.219966
245.2000,0.539612,213.814,0.226557
245.1000,2.04224,213.827,0.226732
245.0000,0.564319,214.127,0.230934
244.9000,1.69916,213.428,0.221142
244.8000,1.23608,213.851,0.227065
244.7000,0.356926,213.698,0.224922
244.6000,0.237002,214.567,0.237078
244.5000,-0.235616,214.108,0.230665
244.4000,0.216705,213.533,0.22262
244.3000,1.07102,213.898,0.227731
244.2000,-0.04876,214.663,0.238423
244.1000,1.05568,213.996,0.229095
244.0000,0.0016347,214.544,0.236762
243.9000,1.68699,214.282,0.233104
243.8000,-0.605798,214.49,0.236002
243.7000,-1.18329,214.29,0.233215
243.6000,-0.258932,214.698,0.238913
243.5000,-0.294385,214.987,0.242943
243.4000,1.10752,214.874,0.241363
243.3000,1.0962,214.398,0.23472
243.2000,2.90457,214.672,0.238549
243.1000,-0.235986,214.535,0.236635
243.0000,-0.16754,214.5,0.236144
242.9000,0.388802,215.31,0.247442
242.8000,-0.742726,213.97,0.22873
242.7000,1.45377,214.792,0.240225
242.6000,2.3305,213.929,0.228159
242.5000,0.20595,214.006,0.229238
242.4000,1.82628,215.286,0.247111
242.3000,1.6699,216.033,0.257494
242.2000,-0.365973,214.913,0.241916
242.1000,1.15367,216.367,0.262132
242.0000,1.37914,214.77,0.239909
241.9000,-0.309401,215.415,0.248909
241.8000,1.13567,215.384,0.248468
241.7000,2.18554,214.749,0.239624
241.6000,0.792202,214.707,0.239039
241.5000,1.45027,215.573,0.251101
241.4000,1.44327,216.189,0.259664
241.3000,1.02762,216.179,0.259523
241.2000,0.996404,215.792,0.254141
241.1000,0.793169,215.924,0.255983
241.0000,-0.686842,216.221,0.260105
240.9000,2.1372,215.952,0.256377
240.8000,0.311458,216.257,0.260608
240.7000,2.14469,215.708,0.252976
240.6000,1.93373,216.749,0.267424
240.5000,-0.751562,215.29,0.247158
240.4000,1.29059,214.612,0.237711
240.3000,0.917671,216.467,0.263515
240.2000,0.0115309,215.141,0.245091
240.1000,-0.230455,216.479,0.263687
240.0000,0.595729,216.765,0.267644
239.9000,1.30262,217.039,0.271438
239.8000,0.754822,216.993,0.270796
239.7000,0.172467,216.937,0.270027
239.6000,0.119828,216.572,0.264975
239.5000,0.688449,216.378,0.262289
239.4000,2.11978,216.137,0.258941
239.3000,1.71764,216.419,0.262855
239.2000,0.993665,217.357,0.27584
239.1000,-0.677498,217.265,0.274556
239.0000,-0.900659,217.244,0.274274
238.9000,-0.554017,216.817,0.268365
238.8000,0.215277,217.103,0.272316
238.7000,-2.2245,217.258,0.274462
238.6000,1.12161,217.325,0.275386
238.5000,0.180443,218.433,0.290665
238.4000,-0.491829,217.987,0.284533
238.3000,0.547308,217.87,0.282909
238.2000,1.06117,217.931,0.283752
238.1000,0.71803,218.453,0.290946
238.0000,0.648918,219.211,0.30136
237.9000,-0.212585,218.223,0.28778
237.8000,1.56729,219.743,0.308644
237.7000,-0.616076,217.83,0.282362
237.6000,-0.197662,218.693,0.29425
237.5000,-1.57291,218.688,0.294172
237.4000,1.07439,218.373,0.289839
237.3000,-1.36289,218.696,0.294281
237.2000,0.536729,218.611,0.293112
237.1000,0.135988,218.052,0.285423
237.0000,1.81536,218.374,0.289855
236.9000,0.945884,218.149,0.286766
236.8000,0.0805957,218.561,0.292427
236.7000,-0.15781,219.244,0.301811
236.6000,2.13611,219.017,0.298701
236.5000,1.20923,217.986,0.284517
236.4000,0.732462,218.654,0.293704
236.3000,1.46031,219.185,0.301003
236.2000,0.800845,219.513,0.305493
236.1000,0.234327,218.697,0.294296
236.0000,3.0005,218.862,0.29657
235.9000,0.351807,219.713,0.30824
235.8000,-0.678431,219.269,0.302153
235.7000,-1.46229,220.047,0.312815
235.6000,0.457831,219.454,0.304686
235.5000,-0.688846,219.558,0.306114
235.4000,1.57206,219.864,0.310304
235.3000,1.06656,220.382,0.317383
235.2000,1.83831,219.772,0.309047
235.1000,2.43114,220.805,0.323167
235.0000,-0.205782,219.709,0.308178
234.9000,2.46118,220.164,0.314411
234.8000,0.401745,220.407,0.317724
234.7000,0.2122,220.201,0.314922
234.6000,1.25459,220.137,0.314039
234.5000,0.0871838,220.829,0.323492
234.4000,3.13666,221.007,0.325916
234.3000,0.82223,221.263,0.329405
234.2000,1.15442,220.59,0.32023
234.1000,1.34003,220.907,0.324558
234.0000,0.940837,221.067,0.326735
233.9000,0.442222,220.65,0.321049
233.8000,0.021154,221.427,0.331641
233.7000,-0.0778866,220.65,0.321049
233.6000,-0.68642,221.423,0.331579
233.5000,2.18523,221.448,0.331918
233.4000,1.79787,222.181,0.341879
233.3000,0.690642,221.375,0.330931
233.2000,-0.0111864,221.534,0.333089
233.1000,1.01205,221.608,0.334091
233.0000,1.63096,221.24,0.329096
232.9000,1.12837,221.464,0.332134
232.8000,1.59773,221.86,0.337525
232.7000,-0.50666,221.796,0.336648
232.6000,-0.374532,221.468,0.332196
232.5000,1.37,222.412,0.345013
232.4000,0.65728,221.494,0.33255
232.3000,-1.17613,221.797,0.336663
232.2000,-0.520054,221.782,0.336463
232.1000,-0.121521,221.802,0.33674
232.0000,1.32545,222.274,0.343139
231.9000,-1.0341,221.942,0.338633
231.8000,1.90923,222.958,0.35241
231.7000,1.28923,222.694,0.348836
231.6000,2.1273,223.149,0.354984
231.5000,0.40407,223.087,0.354157
231.4000,0.858254,223.1,0.354325
231.3000,0.631449,222.716,0.349128
231.2000,0.675264,222.742,0.349481
231.1000,2.03389,222.616,0.347777
231.0000,-0.00843647,223.306,0.357112
230.9000,0.0833898,224.063,0.367325
230.8000,0.393397,222.926,0.35198
230.7000,2.00637,223.968,0.366042
230.6000,1.1553,223.248,0.356332
230.5000,-0.867612,223.522,0.360035
230.4000,0.578178,223.265,0.356561
230.3000,0.995789,222.928,0.351995
230.2000,0.7754,223.75,0.363109
230.1000,2.11411,224.181,0.368913
230.0000,1.11716,224.186,0.368989
229.9000,2.02429,223.471,0.359347
229.8000,0.522392,224.454,0.372588
229.7000,0.876924,224.375,0.371521
229.6000,0.172912,223.154,0.35506
229.5000,1.02442,224.521,0.373488
229.4000,1.70889,224.028,0.366852
229.3000,0.709524,223.987,0.366302
229.2000,-0.0832322,224.769,0.376824
229.1000,-1.30537,224.454,0.372588
229.0000,1.82166,223.292,0.356929
228.9000,1.15596,224.293,0.370423
228.8000,-0.185146,224.743,0.376474
228.7000,1.30232,225.471,0.386253
228.6000,3.49275,224.762,0.376733
228.5000,2.14772,224.814,0.377433
228.4000,1.85722,225.381,0.385038
228.3000,0.50862,225.604,0.38803
228.2000,1.31185,225.344,0.384551
228.1000,-0.0726591,225.094,0.381192
228.0000,-0.124283,225.858,0.391429
227.9000,0.180076,225.126,0.381617
227.8000,1.62063,227.257,0.410112
227.7000,0.273949,226.638,0.401863
227.6000,2.06019,225.985,0.393127
227.5000,0.0592328,226.625,0.401682
227.4000,0.00649206,226.467,0.399579
227.3000,3.01879,226.18,0.395733
227.2000,0.934667,226.206,0.396082
227.1000,-0.832291,226.246,0.396627
227.0000,0.748515,227.361,0.4115
226.9000,3.04042,227.8,0.417333
226.8000,0.394786,226.266,0.396885
226.7000,2.19729,226.617,0.401576
226.6000,-1.29236,227.094,0.407938
226.5000,-0.435119,226.746,0.4033
226.4000,2.68878,227.782,0.417092
226.3000,0.884628,227.178,0.409055
226.2000,1.76423,227.843,0.417905
226.1000,1.3706,227.26,0.410157
226.0000,1.04161,227.606,0.414756
225.9000,1.90747,227.735,0.416474
225.8000,3.35103,228.168,0.422224
225.7000,1.14716,227.955,0.419395
225.6000,1.36942,228.893,0.431837
225.5000,0.910771,228.173,0.422284
225.4000,1.71105,228.443,0.425877
225.3000,0.0560704,228.927,0.432287
225.2000,0.779129,228.253,0.423352
225.1000,0.361678,229.115,0.434776
225.0000,-0.842398,228.697,0.429241
224.9000,2.06122,228.147,0.421938
224.8000,2.17656,229.128,0.434941
224.7000,0.582096,230.006,0.446538
224.6000,-0.197653,229.891,0.445029
224.5000,0.182316,229.801,0.443833
224.4000,0.359097,229.132,0.435001
224.3000,1.38969,230.043,0.447031
224.2000,1.3802,228.638,0.42846
224.1000,0.97422,228.548,0.427259
224.0000,-0.502829,229.962,0.445955
223.9000,1.61407,230.06,0.447255
223.8000,1.73624,230.12,0.448047
223.7000,2.46896,229.181,0.435645
223.6000,2.92402,229.92,0.445402
223.5000,1.45788,229.806,0.443908
223.4000,0.984564,230.972,0.45926
223.3000,3.01342,229.924,0.445462
223.2000,2.14185,229.242,0.436454
223.1000,-0.152046,230.685,0.455477
223.0000,0.383757,230.904,0.458367
222.9000,-0.277764,231.173,0.461895
222.8000,1.25077,231.239,0.462758
222.7000,1.6745,230.722,0.455968
222.6000,3.50902,231.597,0.467455
222.5000,0.0525267,230.86,0.457786
222.4000,1.71445,231.47,0.465791
222.3000,3.58161,232.103,0.47409
222.2000,1.59173,231.159,0.461716
222.1000,2.39306,232.134,0.47449
222.0000,-1.24263,231.851,0.470781
221.9000,0.487358,232.115,0.474238
221.8000,1.44989,232.043,0.473304
221.7000,1.03909,232.328,0.477025
221.6000,1.83178,231.624,0.467812
221.5000,0.039409,231.261,0.463055
221.4000,0.64497,232.198,0.475335
221.3000,-0.388433,233.116,0.487323
221.2000,3.2763,232.42,0.47824
221.1000,1.91981,232.141,0.474579
221.0000,0.592941,232.556,0.480017
220.9000,1.72321,233.282,0.48948
220.8000,2.08553,233.044,0.486377
220.7000,3.50624,233.067,0.486688
220.6000,0.0696423,233.107,0.487205
220.5000,3.78662,233.261,0.489214
220.4000,1.484,232.766,0.482755
220.3000,0.109897,232.756,0.482621
220.2000,3.56064,233.852,0.4969
220.1000,-0.168396,233.819,0.496473
220.0000,0.987519,234.225,0.50176
219.9000,0.356135,234.389,0.503879
219.8000,1.46931,233.458,0.491783
219.7000,2.07143,235.173,0.514044
219.6000,0.443647,233.931,0.497932
219.5000,0.74261,233.557,0.493067
219.4000,1.62769,233.896,0.497475
219.3000,0.407493,234.619,0.506864
219.2000,2.62897,234.458,0.504776
219.1000,0.187631,235.302,0.515716
219.0000,0.168621,234.878,0.510228
218.9000,1.28383,234.886,0.510331
218.8000,2.87541,235.085,0.512914
218.7000,3.04,235.232,0.514807
218.6000,-1.3593,234.1,0.500126
218.5000,-0.442912,235.343,0.516244
218.4000,-0.56345,235.091,0.512988
218.3000,1.27812,235.04,0.512327
218.2000,-1.16084,235.354,0.516391
218.1000,0.352662,235.605,0.519643
218.0000,-0.882344,236.315,0.528801
217.9000,3.69711,236.06,0.525512
217.8000,1.30161,235.719,0.521108
217.7000,3.22149,236.715,0.533955
217.6000,1.30427,236.044,0.525308
217.5000,0.271201,236.233,0.527749
217.4000,1.31524,236.327,0.528962
217.3000,0.480934,236.327,0.528962
217.2000,1.04051,236.331,0.529005
217.1000,0.849703,236.382,0.529663
217.0000,2.55583,237.056,0.538344
216.9000,0.369299,237.582,0.545099
216.8000,1.77109,237.48,0.54379
216.7000,-0.0170144,236.759,0.534524
216.6000,4.37501,236.707,0.533853
216.5000,2.42157,238.593,0.558066
216.4000,1.40968,237.467,0.54363
216.3000,0.22102,237.047,0.538227
216.2000,-0.663859,237.578,0.545056
216.1000,1.42449,238.335,0.55476
216.0000,4.15545,238.615,0.558341
215.9000,2.41847,239.158,0.565278
215.8000,-1.18347,238.197,0.552989
215.7000,0.994034,237.59,0.545201
215.6000,0.0632396,238.574,0.55782
215.5000,1.82424,238.433,0.556007
215.4000,0.995001,238.6,0.558153
215.3000,1.87494,238.538,0.557356
215.2000,0.557246,238.464,0.556413
215.1000,0.281872,239.316,0.567302
215.0000,-0.845726,238.51,0.556993
214.9000,2.70944,238.981,0.56302
214.8000,2.21668,238.991,0.56315
214.7000,1.92248,239.172,0.565466
214.6000,2.50214,238.862,0.5615
214.5000,-0.115112,238.941,0.562513
214.4000,2.05818,239.453,0.569051
214.3000,0.420933,239.907,0.574828
214.2000,1.38002,239.61,0.571045
214.1000,1.60798,239.798,0.573442
214.0000,1.7168,239.632,0.571334
213.9000,0.564987,239.789,0.573327
213.8000,1.28419,240.755,0.58562
213.7000,1.35555,240.79,0.586065
213.6000,2.17533,240.233,0.578981
213.5000,0.795563,239.666,0.571767
213.4000,3.25952,240.781,0.58595
213.3000,4.61122,240.686,0.584742
213.2000,1.00204,239.979,0.575751
213.1000,-0.549331,240.367,0.580682
213.0000,-0.846873,240.886,0.587274
212.9000,-1.27262,240.491,0.582266
212.8000,3.30333,239.986,0.575838
212.7000,2.20181,241.07,0.589617
212.6000,2.4348,240.462,0.581891
212.5000,1.81707,241.615,0.596523
212.4000,0.542581,241.435,0.594242
212.3000,0.184736,241.412,0.593955
212.2000,0.918361,242.049,0.602014
212.1000,-0.398881,242.552,0.608368
212.0000,2.12642,241.228,0.591614
211.9000,1.50173,241.136,0.59045
211.8000,2.49106,241.76,0.598359
211.7000,2.8809,242.229,0.60429
211.6000,-1.54645,242.676,0.609926
211.5000,1.27803,242.336,0.605636
211.4000,4.03824,242.491,0.607596
211.3000,-0.438544,242.458,0.607181
211.2000,0.999716,242.522,0.607982
211.1000,2.20977,242.811,0.611626
211.0000,4.41901,243.198,0.616509
210.9000,0.398413,243.275,0.617479
210.8000,2.4495,243.267,0.61738
210.7000,-1.35233,243.262,0.617308
210.6000,1.68471,243.662,0.62234
210.5000,-0.812065,243.631,0.621955
210.4000,2.34623,243.324,0.618093
210.3000,-0.24123,243.799,0.624063
210.2000,1.54415,244.27,0.629982
210.1000,-0.0289044,243.762,0.623608
210.0000,-0.6963,244.54,0.633364
209.9000,0.257767,244.202,0.629129
209.8000,-0.0108868,244.459,0.632355
209.7000,0.642545,243.492,0.620203
209.6000,1.17764,245.02,0.639381
209.5000,-0.465645,244.235,0.629541
209.4000,0.495837,244.667,0.634954
209.3000,5.46978,245.329,0.64325
209.2000,0.84678,245.817,0.649336
209.1000,1.39156,245.148,0.640983
209.0000,2.08203,245.816,0.649322
208.9000,0.886708,245.392,0.644029
208.8000,1.26478,245.055,0.63982
208.7000,2.73965,245.718,0.648105
208.6000,3.11939,246.076,0.652573
208.5000,4.64988,246.261,0.654875
208.4000,2.27565,245.776,0.648827
208.3000,2.5701,246.502,0.657882
208.2000,-0.291903,246.216,0.65431
208.1000,-0.539753,246.691,0.660237
208.0000,1.42085,247.576,0.671233
207.9000,3.18587,246.646,0.659673
207.8000,1.3916,247.649,0.672133
207.7000,1.00868,247.412,0.669194
207.6000,3.32422,247.873,0.674915
207.5000,-0.922076,247.912,0.675392
207.4000,0.542627,248.175,0.678649
207.3000,4.05449,247.598,0.6715
207.2000,3.97693,248.137,0.678186
207.1000,0.137406,248.338,0.680669
207.0000,0.348396,247.963,0.676024
206.9000,3.05527,248.299,0.680192
206.8000,2.41364,249.05,0.689478
206.7000,1.02279,248.507,0.682757
206.6000,-0.517794,248.939,0.688107
206.5000,-0.0261463,248.866,0.687197
206.4000,0.158755,248.978,0.688583
206.3000,1.1808,249.565,0.695824
206.2000,1.66326,249.633,0.696662
206.1000,0.546946,249.537,0.695475
206.0000,2.31203,249.801,0.698728
205.9000,-0.893785,250.407,0.706186
205.8000,2.44073,250.686,0.709611
205.7000,-1.03694,250.059,0.701908
205.6000,1.71986,250.537,0.707788
205.5000,2.54534,250.225,0.703957
205.4000,2.59304,250.09,0.702285
205.3000,3.49815,250.73,0.710153
205.2000,1.17356,251.005,0.713532
205.1000,-0.111016,251.48,0.719352
205.0000,-0.636505,251.202,0.71595
204.9000,3.25339,251.441,0.71888
204.8000,3.05268,252.089,0.72681
204.7000,1.01118,251.361,0.717894
204.6000,0.76516,251.686,0.721877
204.5000,0.279637,252.572,0.732706
204.4000,0.776371,253.242,0.740869
204.3000,5.79342,252.674,0.73395
204.2000,2.44247,253.251,0.740979
204.1000,2.40102,253.043,0.738454
204.0000,1.52831,252.771,0.735138
203.9000,-2.27263,253.375,0.742497
203.8000,3.07916,253.431,0.743173
203.7000,3.41258,253.728,0.746783
203.6000,2.46678,254.357,0.754421
203.5000,0.549088,254.593,0.757293
203.4000,-0.679456,254.373,0.754614
203.3000,-1.43774,254.271,0.753376
203.2000,-0.777054,254.491,0.756057
203.1000,3.01103,254.267,0.753335
203.0000,1.66263,254.564,0.756936
202.9000,-2.11118,255.316,0.766047
202.8000,-1.89147,255.123,0.763703
202.7000,2.49001,255.711,0.770813
202.6000,1.23885,256.104,0.775559
202.5000,-1.2709,255.226,0.76495
202.4000,5.92574,256.698,0.782715
202.3000,-0.0069617,256.046,0.774862
202.2000,3.88243,256.619,0.781774
202.1000,3.24992,256.112,0.775655
202.0000,-1.42894,257.483,0.792158
201.9000,2.4587,256.9,0.785157
201.8000,-0.717293,257.343,0.790484
201.7000,0.886494,257.56,0.793084
201.6000,1.97731,257.469,0.791995
201.5000,3.70837,257.979,0.798114
201.4000,2.48453,258.224,0.801048
201.3000,4.7619,258.404,0.803206
201.2000,0.572994,258.726,0.807058
201.1000,2.51221,258.538,0.804807
201.0000,0.339496,259.13,0.811894
200.9000,4.67582,259.676,0.818413
200.8000,-0.00947488,259.07,0.811176
200.7000,4.40537,259.514,0.81648
200.6000,1.04691,259.411,0.815249
200.5000,3.79247,260.226,0.824961
200.4000,2.49574,260.14,0.823936
200.3000,1.38118,260.925,0.833275
200.2000,2.72794,260.709,0.830703
200.1000,1.03601,260.821,0.832037
200.0000,2.19951,261.132,0.835737
199.9000,2.54657,261.165,0.836128
199.8000,2.20547,261.787,0.843504
199.7000,-0.525555,261.419,0.839139
199.6000,2.72849,261.213,0.836692
199.5000,0.137565,261.018,0.834379
199.4000,0.691437,261.807,0.843732
199.3000,-0.446134,261.502,0.84012
199.2000,2.4958,262.175,0.848092
199.1000,-1.21863,261.569,0.840912
199.0000,4.26769,262.217,0.848588
198.9000,-1.95303,262.092,0.847113
198.8000,5.5862,262.069,0.846845
198.7000,6.42178,262.631,0.853491
198.6000,0.604132,262.115,0.847381
198.5000,-1.0041,262.805,0.855539
198.4000,0.50729,262.608,0.85321
198.3000,0.382102,263.11,0.859136
198.2000,-0.123723,263.06,0.858548
198.1000,-0.929506,263.392,0.862463
198.0000,4.41463,263.568,0.864546
197.9000,4.6236,263.557,0.864412
197.8000,4.2219,263.721,0.866347
197.7000,0.292855,264.395,0.874264
197.6000,5.79578,263.37,0.862209
197.5000,1.02933,264.665,0.877444
197.4000,6.26907,264.044,0.870148
197.3000,2.15724,264.196,0.871933
197.2000,-0.429353,264.39,0.874211
197.1000,1.2965,264.393,0.874251
197.0000,1.04731,264.331,0.873518
196.9000,3.33937,265.162,0.883266
196.8000,-1.75206,264.648,0.877245
196.7000,1.2808,265.335,0.885298
196.6000,3.11177,265.108,0.882642
196.5000,3.41574,265.439,0.886518
196.4000,1.60128,265.431,0.886426
196.3000,4.18109,265.074,0.882243
196.2000,2.97238,266.092,0.894154
196.1000,4.35593,265.896,0.891862
196.0000,-2.01007,266.013,0.893227
195.9000,2.38439,266.467,0.898535
195.8000,1.92324,266.409,0.89786
195.7000,2.92,265.966,0.892684
195.6000,4.46901,266.177,0.895147
195.5000,1.31361,265.964,0.892657
195.4000,1.16855,267.244,0.907598
195.3000,2.05959,266.637,0.900518
195.2000,1.91576,266.508,0.899011
195.1000,0.284161,267.544,0.911093
195.0000,6.26873,267.113,0.906067
194.9000,2.17783,266.622,0.900347
194.8000,0.959784,267.129,0.906251
194.7000,1.01684,266.088,0.894114
194.6000,1.95998,266.629,0.900426
194.5000,0.3957,266.53,0.899276
194.4000,4.18173,266.962,0.904311
194.3000,1.25269,266.722,0.90151
194.2000,1.08059,266.901,0.903597
194.1000,3.73221,266.626,0.900386
194.0000,1.84869,266.594,0.900016
193.9000,3.32273,266.492,0.898826
193.8000,0.435184,267.713,0.913057
193.7000,-0.742585,266.866,0.903188
193.6000,1.39129,267.248,0.907637
193.5000,3.46161,267.625,0.912029
193.4000,3.3982,267.297,0.908218
193.3000,0.943494,268.266,0.919481
193.2000,4.14424,268.151,0.918139
193.1000,0.592426,267.907,0.915309
193.0000,1.96578,267.608,0.911831
192.9000,0.313631,268.28,0.919639
192.8000,0.371019,268.148,0.918113
192.7000,0.130436,268.092,0.917455
192.6000,-2.3293,268.19,0.9186
192.5000,3.42719,267.472,0.910249
192.4000,3.43436,268.382,0.920823
192.3000,-1.21246,268.503,0.922229
192.2000,3.3855,268.228,0.919034
192.1000,0.0717083,267.901,0.915243
192.0000,0.587248,268.624,0.923635
191.9000,4.15634,268.917,0.927024
191.8000,-0.221563,267.772,0.913742
191.7000,3.11203,268.263,0.919442
191.6000,-0.579956,268.376,0.920757
191.5000,2.27306,267.846,0.914598
191.4000,1.52254,268.446,0.921572
191.3000,-2.14046,267.961,0.915941
191.2000,-1.81746,268.57,0.923005
191.1000,2.20639,268.914,0.926997
191.0000,2.23355,268.37,0.920691
190.9000,4.10514,269.041,0.928467
190.8000,6.37336,269.233,0.930684
190.7000,-3.32288,270.218,0.942077
190.6000,-0.798917,269.988,0.939421
190.5000,3.53747,269.729,0.936424
190.4000,0.0740699,269.641,0.935403
190.3000,2.23265,269.499,0.933765
190.2000,-1.64529,269.837,0.937668
190.1000,0.142622,269.873,0.938087
190.0000,0.400335,269.287,0.931314

##### Extended Information
[Comments]
Sample name,CC.SJ.9_28_22_PHOSPHATEBUFFER_CONTROL
Comment,CONTROL
User,CARYN CARHART
Division
Company,Saint Mary's College

[Detailed Information]
Creation date,9/28/2022 1:58 PM

Data array type,Linear data array * 3
Horizontal axis,Wavelength [nm]
Vertical axis(1),CD [mdeg]
Vertical axis(2),HT [V]
Vertical axis(3),Abs
Start,320 nm
End,190 nm
Data interval,0.1 nm
Data points,1301    

[Measurement Information]
Instrument name,J-1500
Model name,J-1500
Serial No.,B051061638

Detector,PM-539
Detector S/N,B051061638
  Lock-in amp.,X mode
  HT volt,Auto

Accessory,PTC-517
Accessory S/N,B026561646
  Temperature,24.98 C
  Control sensor,Holder
  Monitor sensor,Holder

Measurement date,9/28/2022 1:57 PM

Photometric mode,CD, HT, Abs
Measure range,320 - 190 nm
Data pitch,0.1 nm
CD scale,20 mdeg/0.05 dOD
FL scale,20 mdeg/0.05 dOD
D.I.T.,8 msec
Bandwidth,2.00 nm
Start mode,Immediately
Scanning mode,Continuous
Scanning speed,200 nm/min
Baseline correction,None
Shutter control,Auto
No. of cycle,1/1
N2 Flowmeter,Manual

Solvent,NaPO4 buffer

