TITLE,CC.SJ.9_28_22_ADDITIVE_KCL_PROTEIN
DATA TYPE,
ORIGIN,JASCO
OWNER,
DATE,22/09/28
TIME,14:20:11
SPECTROMETER/DATA SYSTEM,
LOCALE,1033
RESOLUTION,
DELTAX,-0.1
XUNITS,NANOMETERS
YUNITS,CD [mdeg]
Y2UNITS,HT [V]
Y3UNITS,ABSORBANCE
FIRSTX,  320.0000
LASTX,  190.0000
NPOINTS,    1301
FIRSTY,     1.71026
MAXY,    57.24543
MINY,   -40.37257
XYDATA
320.0000,1.71026,208.726,0.154588
319.9000,1.60254,208.428,0.150329
319.8000,1.87372,208.236,0.147589
319.7000,0.506807,208.189,0.146908
319.6000,1.79721,208.501,0.151382
319.5000,1.01283,208.577,0.152467
319.4000,2.22348,209.245,0.161993
319.3000,0.626291,208.837,0.156174
319.2000,-0.430259,208.591,0.152661
319.1000,1.46,207.757,0.140723
319.0000,2.28221,207.796,0.141275
318.9000,1.93189,208.982,0.158244
318.8000,1.75415,208.378,0.149615
318.7000,3.05542,208.924,0.157419
318.6000,2.69619,208.72,0.154507
318.5000,0.927047,208.927,0.157468
318.4000,0.409088,209.042,0.159101
318.3000,2.70539,209.026,0.158874
318.2000,2.35134,208.606,0.152872
318.1000,0.0214063,208.81,0.155785
318.0000,1.38225,208.385,0.149713
317.9000,1.95287,208.557,0.152175
317.8000,0.907647,208.581,0.152515
317.7000,0.567556,208.669,0.153779
317.6000,-0.422603,208.302,0.148529
317.5000,0.90848,209.036,0.15902
317.4000,3.05476,208.479,0.151058
317.3000,2.06792,208.92,0.157354
317.2000,0.906024,208.756,0.155025
317.1000,0.209019,208.72,0.154507
317.0000,0.412392,209.144,0.160555
316.9000,2.73551,208.59,0.152645
316.8000,2.19759,208.003,0.144247
316.7000,1.60332,208.571,0.15237
316.6000,1.44133,208.717,0.154458
316.5000,1.40501,208.278,0.148189
316.4000,1.72182,208.93,0.1575
316.3000,0.33201,208.663,0.153698
316.2000,1.43903,208.815,0.155866
316.1000,1.80393,207.946,0.143435
316.0000,-0.0478598,207.886,0.142574
315.9000,2.93501,208.188,0.146892
315.8000,1.5667,208.772,0.155251
315.7000,1.12827,208.504,0.151414
315.6000,0.729781,208.269,0.148059
315.5000,1.46884,209.329,0.163188
315.4000,-0.468998,208.38,0.149648
315.3000,2.06309,208.58,0.152499
315.2000,-0.0306922,207.471,0.136626
315.1000,2.37535,208.729,0.154636
315.0000,0.980477,207.711,0.140057
314.9000,1.58265,207.598,0.138448
314.8000,1.03815,208.612,0.152969
314.7000,-2.10249,209.046,0.159165
314.6000,0.818868,208.029,0.14462
314.5000,2.0481,207.959,0.143614
314.4000,1.66078,208.58,0.152499
314.3000,-0.880952,207.854,0.14212
314.2000,1.03985,208.561,0.15224
314.1000,2.20972,207.756,0.140707
314.0000,1.01561,207.218,0.132981
313.9000,-0.0414235,207.897,0.142737
313.8000,-0.254483,208.169,0.146632
313.7000,2.3538,208.603,0.152839
313.6000,-0.157796,208.019,0.144474
313.5000,2.16601,207.887,0.142591
313.4000,1.70039,207.792,0.141227
313.3000,0.766164,208.01,0.144344
313.2000,1.7949,208.104,0.145691
313.1000,2.5626,207.99,0.144068
313.0000,0.493923,208.509,0.151495
312.9000,1.35177,208.202,0.147102
312.8000,1.61197,207.769,0.140902
312.7000,1.09003,208.319,0.148773
312.6000,2.52471,208.326,0.14887
312.5000,2.96383,207.867,0.142299
312.4000,2.7126,208.014,0.144409
312.3000,0.575005,208.083,0.145399
312.2000,1.20274,208.197,0.147021
312.1000,-0.071108,207.982,0.143955
312.0000,0.539054,207.786,0.141145
311.9000,1.7015,207.694,0.139813
311.8000,1.63279,208.277,0.148173
311.7000,0.728008,208.742,0.154814
311.6000,1.79508,208.489,0.151204
311.5000,1.23341,208.021,0.144506
311.4000,1.83161,208.427,0.150312
311.3000,0.745399,208.088,0.145464
311.2000,2.12716,207.745,0.140544
311.1000,2.05209,208.184,0.146843
311.0000,0.909313,208.362,0.149388
310.9000,2.19921,208.479,0.151058
310.8000,1.60492,208.341,0.149081
310.7000,2.87062,207.65,0.139195
310.6000,0.348768,208.84,0.156222
310.5000,1.43564,208.14,0.14621
310.4000,1.56765,208.449,0.150636
310.3000,1.71026,208.617,0.153034
310.2000,2.57696,208.359,0.14934
310.1000,1.23771,208.177,0.146746
310.0000,0.698322,207.73,0.140333
309.9000,2.92998,208.126,0.146016
309.8000,0.300172,207.743,0.140528
309.7000,1.76084,208.388,0.149761
309.6000,0.708912,208.026,0.144571
309.5000,1.2312,207.899,0.142753
309.4000,2.08655,208.077,0.145302
309.3000,0.2517,208.44,0.150507
309.2000,2.33395,208.32,0.148789
309.1000,0.99201,207.984,0.143971
309.0000,1.76884,207.799,0.141324
308.9000,1.6972,208.648,0.153471
308.8000,1.44122,207.079,0.130994
308.7000,0.476933,208.42,0.150215
308.6000,1.63683,208.277,0.148173
308.5000,0.312129,208.635,0.153293
308.4000,0.632875,208.242,0.14767
308.3000,2.19199,208.03,0.144636
308.2000,1.15368,208.131,0.146081
308.1000,1.70804,207.908,0.142883
308.0000,2.01756,208.469,0.150912
307.9000,1.18759,207.935,0.143273
307.8000,0.639281,208.482,0.151106
307.7000,0.636893,207.684,0.139683
307.6000,0.954992,207.801,0.141356
307.5000,1.5984,208.492,0.151252
307.4000,1.6348,208.612,0.152969
307.3000,-0.0410703,208.56,0.152224
307.2000,1.7565,207.876,0.142429
307.1000,1.01147,207.985,0.143987
307.0000,0.0944287,207.7,0.139911
306.9000,2.20332,208.726,0.154588
306.8000,1.501,207.733,0.140382
306.7000,0.115021,207.784,0.141113
306.6000,0.983607,208.05,0.144928
306.5000,1.95758,208.047,0.14488
306.4000,-0.16935,208.188,0.146892
306.3000,0.31513,207.534,0.137521
306.2000,2.51032,208.348,0.149194
306.1000,0.649563,208.572,0.152386
306.0000,0.737351,207.633,0.138952
305.9000,1.55049,207.451,0.136334
305.8000,1.83194,207.465,0.136529
305.7000,0.311807,207.697,0.139862
305.6000,2.22068,208.436,0.150442
305.5000,0.570351,207.406,0.135683
305.4000,2.95856,208.259,0.147913
305.3000,1.66907,208.31,0.148643
305.2000,2.35377,207.711,0.140057
305.1000,1.99149,208.115,0.145853
305.0000,2.91334,208.406,0.150021
304.9000,0.882131,208.005,0.144279
304.8000,1.67628,207.152,0.132037
304.7000,0.0704835,208.68,0.15394
304.6000,1.88429,208.106,0.145724
304.5000,1.44677,207.487,0.136854
304.4000,2.12671,208.998,0.15847
304.3000,1.30307,207.47,0.13661
304.2000,0.2451,208.47,0.150928
304.1000,1.59465,207.853,0.142104
304.0000,1.85341,208.14,0.14621
303.9000,0.394415,207.553,0.137797
303.8000,0.156773,207.481,0.136756
303.7000,1.32611,208.414,0.150134
303.6000,1.49076,207.973,0.143825
303.5000,1.23592,207.807,0.141438
303.4000,0.45752,207.757,0.140723
303.3000,1.01662,207.596,0.138415
303.2000,2.27368,207.851,0.142071
303.1000,1.75372,208.569,0.152354
303.0000,1.89164,207.758,0.140739
302.9000,2.78172,207.956,0.143581
302.8000,0.930391,208.067,0.145172
302.7000,-0.075481,207.724,0.140252
302.6000,-0.0454498,207.548,0.137732
302.5000,1.29251,207.828,0.141746
302.4000,2.00455,207.568,0.138009
302.3000,0.031465,207.156,0.132102
302.2000,1.10044,207.51,0.137179
302.1000,-0.576092,207.298,0.134137
302.0000,1.31805,208.22,0.147362
301.9000,-0.0783685,207.137,0.131825
301.8000,1.97446,207.812,0.141519
301.7000,0.191449,208.126,0.146016
301.6000,2.13693,207.609,0.138594
301.5000,1.34243,207.637,0.139
301.4000,1.35683,207.808,0.141454
301.3000,-0.542606,207.678,0.139586
301.2000,0.183428,207.473,0.136642
301.1000,1.75853,207.49,0.136886
301.0000,-1.27643,207.682,0.13965
300.9000,0.721957,208.023,0.144539
300.8000,1.38823,207.656,0.139277
300.7000,1.90538,207.74,0.140479
300.6000,-1.12779,207.895,0.142705
300.5000,1.07193,207.316,0.134397
300.4000,2.01232,207.466,0.136545
300.3000,0.705211,207.482,0.136773
300.2000,0.700277,207.401,0.135618
300.1000,-0.804847,207.551,0.137765
300.0000,0.931384,207.86,0.142201
299.9000,2.40079,207.519,0.137309
299.8000,0.289722,207.774,0.140967
299.7000,0.865875,207.454,0.136382
299.6000,2.18461,207.533,0.137505
299.5000,0.840407,207.751,0.140642
299.4000,0.521012,207.594,0.138383
299.3000,0.789735,206.992,0.129739
299.2000,0.585053,207.457,0.136415
299.1000,2.37626,206.571,0.123672
299.0000,0.826759,207.627,0.138854
298.9000,0.582413,206.419,0.121484
298.8000,1.34506,207.639,0.139033
298.7000,2.009,207.382,0.135341
298.6000,0.391343,207.215,0.132948
298.5000,0.787991,206.836,0.12749
298.4000,0.775852,206.671,0.125124
298.3000,0.618142,207.695,0.139829
298.2000,1.33645,207.529,0.137456
298.1000,1.49391,207.771,0.140918
298.0000,1.17165,207.364,0.135081
297.9000,0.172535,207.048,0.130538
297.8000,0.412164,206.818,0.127229
297.7000,-0.0929224,207.903,0.142818
297.6000,1.18558,207.409,0.135731
297.5000,1.79566,206.602,0.124129
297.4000,1.80373,207.997,0.144166
297.3000,2.23985,206.821,0.127278
297.2000,-0.678191,207.84,0.141909
297.1000,2.07167,207.511,0.137195
297.0000,2.06944,206.753,0.126299
296.9000,0.45817,207.616,0.138708
296.8000,1.49579,207.05,0.13057
296.7000,0.515327,206.783,0.126723
296.6000,2.77709,207.639,0.139033
296.5000,1.63105,206.747,0.126217
296.4000,-0.148619,206.854,0.127751
296.3000,1.0211,207.246,0.133388
296.2000,0.37994,206.803,0.127017
296.1000,1.10098,207.515,0.137244
296.0000,0.281901,207.629,0.138886
295.9000,0.283533,206.798,0.126951
295.8000,0.64025,206.487,0.122464
295.7000,-0.285944,206.57,0.123656
295.6000,1.20214,206.226,0.118706
295.5000,0.92185,207.415,0.135813
295.4000,1.2009,208.124,0.145983
295.3000,0.657038,207.166,0.132232
295.2000,3.71332,207.213,0.132916
295.1000,1.50152,207.2,0.13272
295.0000,2.07526,206.543,0.12328
294.9000,1.22691,207.267,0.133697
294.8000,2.59951,207.771,0.140918
294.7000,1.64703,206.005,0.115517
294.6000,1.53491,206.846,0.127637
294.5000,2.54101,207.13,0.131727
294.4000,2.57239,206.899,0.128403
294.3000,0.559478,207.482,0.136773
294.2000,1.22654,206.971,0.12943
294.1000,0.903428,207.066,0.130799
294.0000,0.549845,207.384,0.135374
293.9000,2.36838,207.367,0.13513
293.8000,0.945009,206.92,0.128696
293.7000,1.77558,207.286,0.133958
293.6000,1.21106,207.246,0.133388
293.5000,0.593868,207.297,0.13412
293.4000,2.06875,207.221,0.13303
293.3000,0.54128,207.226,0.133095
293.2000,0.982001,206.657,0.124912
293.1000,1.16978,206.803,0.127017
293.0000,1.01446,207.102,0.13132
292.9000,0.737564,207.13,0.131727
292.8000,0.905202,207.417,0.135846
292.7000,1.19408,206.953,0.129169
292.6000,1.94684,206.817,0.127213
292.5000,-0.974862,207.237,0.133258
292.4000,2.09055,206.959,0.129267
292.3000,2.24751,207.205,0.132802
292.2000,1.25211,207.206,0.132818
292.1000,1.8754,205.12,0.102717
292.0000,1.6698,206.704,0.125598
291.9000,0.0795628,207.178,0.132411
291.8000,-0.871893,206.829,0.127392
291.7000,0.174684,206.628,0.124504
291.6000,2.16847,206.138,0.117431
291.5000,1.62063,206.2,0.11833
291.4000,0.622433,206.78,0.126691
291.3000,1.76415,207.05,0.13057
291.2000,-1.12681,206.762,0.12643
291.1000,1.00762,206.836,0.12749
291.0000,1.64389,206.129,0.1173
290.9000,2.10675,206.377,0.120879
290.8000,1.67571,206.717,0.125777
290.7000,3.00606,206.996,0.129788
290.6000,1.45791,206.972,0.129446
290.5000,0.911737,207.235,0.133225
290.4000,0.742158,205.918,0.114257
290.3000,1.58631,205.705,0.111179
290.2000,1.24717,207,0.129853
290.1000,-0.401514,207.105,0.131369
290.0000,0.0936922,206.513,0.122839
289.9000,0.966169,206.939,0.128973
289.8000,-0.759238,206.687,0.125353
289.7000,1.03859,207.178,0.132411
289.6000,0.370398,206.996,0.129788
289.5000,0.783183,206.094,0.116793
289.4000,1.62874,207.942,0.14337
289.3000,2.1839,206.789,0.126821
289.2000,1.54294,207.38,0.135309
289.1000,2.13114,206.915,0.128631
289.0000,1.83902,207.315,0.134381
288.9000,2.40036,207.635,0.138968
288.8000,1.91334,206.962,0.129299
288.7000,0.380653,207.487,0.136854
288.6000,0.369613,207.195,0.132655
288.5000,1.82897,206.963,0.129315
288.4000,-0.160455,206.615,0.124308
288.3000,2.38573,207.083,0.131043
288.2000,1.52828,207.396,0.135536
288.1000,-0.08401,207.058,0.130684
288.0000,1.86781,206.72,0.125826
287.9000,-1.50446,207.635,0.138968
287.8000,0.073284,207.767,0.140869
287.7000,-0.0408944,207.357,0.134983
287.6000,1.78565,207.567,0.137992
287.5000,1.66983,207.154,0.132069
287.4000,1.67777,207.076,0.130945
287.3000,1.13173,207.585,0.138252
287.2000,-0.821257,207.703,0.139943
287.1000,1.22715,207.195,0.132655
287.0000,2.7209,207.008,0.129967
286.9000,0.030221,207.206,0.132818
286.8000,1.4023,207.876,0.142429
286.7000,0.109216,207.214,0.132932
286.6000,1.26867,207.73,0.140333
286.5000,1.07866,206.807,0.127082
286.4000,2.17164,206.599,0.12408
286.3000,2.07318,206.858,0.127816
286.2000,0.254319,207.386,0.135406
286.1000,1.67122,206.885,0.128191
286.0000,-0.504902,206.817,0.127213
285.9000,0.249642,207.571,0.138057
285.8000,1.16188,207.052,0.130603
285.7000,1.84843,207.091,0.131157
285.6000,0.939449,207.267,0.133697
285.5000,2.73765,207.61,0.13861
285.4000,1.42968,206.599,0.12408
285.3000,1.56832,207.364,0.135081
285.2000,0.175293,207.172,0.132329
285.1000,0.223557,207.895,0.142705
285.0000,1.07987,207.096,0.131238
284.9000,-0.319327,206.46,0.122072
284.8000,-0.214614,206.92,0.128696
284.7000,1.24408,207.195,0.132655
284.6000,-0.0659627,208.151,0.146372
284.5000,1.19375,207.618,0.138724
284.4000,0.926836,207.266,0.133681
284.3000,1.68284,207.085,0.131075
284.2000,1.85583,207.403,0.13565
284.1000,1.74851,206.769,0.126527
284.0000,1.25057,208.25,0.147784
283.9000,1.1913,206.193,0.118232
283.8000,1.29263,207.452,0.13635
283.7000,1.21493,207.303,0.134202
283.6000,2.14494,207.116,0.131515
283.5000,1.14912,208.075,0.145286
283.4000,1.64507,207.261,0.1336
283.3000,1.58736,207.451,0.136334
283.2000,0.0754774,206.756,0.126348
283.1000,-0.404186,206.989,0.12969
283.0000,1.57761,207.033,0.130326
282.9000,1.07365,207.043,0.130473
282.8000,0.697428,207.368,0.135146
282.7000,0.991828,206.67,0.125108
282.6000,0.662456,206.786,0.126772
282.5000,2.66976,207.51,0.137179
282.4000,0.763744,207.181,0.13246
282.3000,0.246656,206.656,0.124896
282.2000,0.749395,207.25,0.133453
282.1000,2.03895,207.011,0.130016
282.0000,1.11195,207.169,0.132281
281.9000,-0.558567,206.758,0.126364
281.8000,0.377115,207.51,0.137179
281.7000,1.38379,207.125,0.131646
281.6000,2.16264,207.158,0.132118
281.5000,-0.772849,207.572,0.138074
281.4000,-1.58219,207.474,0.136659
281.3000,1.32431,208.033,0.144685
281.2000,-0.14395,207.737,0.14043
281.1000,0.997266,207.511,0.137195
281.0000,0.641466,206.738,0.126087
280.9000,0.463494,207.955,0.143565
280.8000,0.948524,206.877,0.128077
280.7000,0.847972,207.059,0.130701
280.6000,0.414629,207.385,0.13539
280.5000,1.69928,207.229,0.133144
280.4000,0.0797939,206.626,0.124472
280.3000,1.03674,207.221,0.13303
280.2000,1.39254,207.419,0.135878
280.1000,1.03798,207.413,0.13578
280.0000,1.00798,207.266,0.133681
279.9000,1.58166,207.192,0.132606
279.8000,0.366754,206.86,0.127832
279.7000,0.520231,207.146,0.131955
279.6000,-0.896626,206.495,0.122578
279.5000,1.23039,207.119,0.131564
279.4000,2.4917,207.398,0.135569
279.3000,-0.516626,207.054,0.130636
279.2000,-0.261545,206.702,0.125565
279.1000,-0.734733,207.747,0.140577
279.0000,0.609495,207.713,0.140089
278.9000,-0.26674,207.56,0.137895
278.8000,0.97316,207.27,0.13373
278.7000,1.30336,206.922,0.128729
278.6000,0.447191,207.269,0.133713
278.5000,0.474893,207.155,0.132085
278.4000,2.01595,207.217,0.132965
278.3000,0.531514,207.379,0.135292
278.2000,0.672484,206.845,0.12762
278.1000,1.29611,206.906,0.1285
278.0000,2.06372,207.109,0.131417
277.9000,2.70483,207.46,0.136464
277.8000,-0.072299,207.708,0.140024
277.7000,-1.27567,208.082,0.145383
277.6000,1.84547,207.563,0.137943
277.5000,1.67874,207.17,0.132297
277.4000,1.31924,207.168,0.132265
277.3000,1.46445,207.013,0.130033
277.2000,-1.03884,207.573,0.13809
277.1000,1.73646,206.553,0.123411
277.0000,-0.951216,207.398,0.135569
276.9000,1.25514,206.713,0.125728
276.8000,2.17965,207.912,0.142948
276.7000,0.456578,206.299,0.119752
276.6000,2.7629,206.911,0.128566
276.5000,1.94746,207.503,0.137082
276.4000,0.499781,206.65,0.124814
276.3000,0.303697,207.723,0.140236
276.2000,2.12634,208.411,0.150085
276.1000,1.33357,209.616,0.167287
276.0000,1.74131,207.18,0.132444
275.9000,1.2334,207.53,0.137472
275.8000,0.54728,209.638,0.167594
275.7000,0.810265,208.19,0.146924
275.6000,0.649559,207.306,0.134251
275.5000,-0.253646,207.776,0.140999
275.4000,2.62677,207.509,0.137163
275.3000,0.684564,205.755,0.111899
275.2000,0.677656,207.892,0.142656
275.1000,0.217278,207.546,0.1377
275.0000,0.370493,207.998,0.144182
274.9000,0.602301,207.815,0.141551
274.8000,0.110258,207.388,0.135422
274.7000,1.80379,207.952,0.143516
274.6000,3.33337,207.396,0.135536
274.5000,0.515848,207.057,0.130668
274.4000,-0.478208,207.663,0.139374
274.3000,1.30697,207.65,0.139195
274.2000,0.616403,208.011,0.14436
274.1000,1.81472,207.363,0.135064
274.0000,1.23651,208.235,0.147573
273.9000,1.58266,207.742,0.140512
273.8000,0.727121,207.426,0.135976
273.7000,0.842674,207.363,0.135064
273.6000,-0.0228369,206.46,0.122072
273.5000,0.372483,206.967,0.129381
273.4000,1.29432,209.427,0.164592
273.3000,0.284003,207.751,0.140642
273.2000,0.0645305,207.245,0.133372
273.1000,1.02829,207.58,0.138187
273.0000,1.48067,207.175,0.132362
272.9000,1.33751,207.045,0.130505
272.8000,2.05414,206.936,0.128925
272.7000,0.650804,208.19,0.146924
272.6000,0.490656,207.908,0.142883
272.5000,0.785254,207.835,0.141844
272.4000,1.53789,207.836,0.14186
272.3000,1.22765,208.091,0.145513
272.2000,1.53858,208.701,0.154232
272.1000,-0.254082,207.359,0.135015
272.0000,-0.622345,207.425,0.135959
271.9000,1.03454,208.188,0.146892
271.8000,1.11041,208.397,0.149891
271.7000,0.647347,208.217,0.147313
271.6000,0.704757,206.703,0.125581
271.5000,1.14299,206.181,0.118052
271.4000,-0.630097,207.502,0.137066
271.3000,0.718924,207.742,0.140512
271.2000,0.230704,206.617,0.124341
271.1000,-0.597889,206.142,0.117496
271.0000,1.38754,207.292,0.134056
270.9000,0.94879,206.777,0.126642
270.8000,-0.353903,207.454,0.136382
270.7000,0.485012,207.391,0.135471
270.6000,0.305331,207.411,0.135764
270.5000,0.0204732,207.536,0.137553
270.4000,2.00234,207.281,0.133893
270.3000,0.234356,208.863,0.156546
270.2000,0.135943,206.58,0.123803
270.1000,0.373695,207.735,0.140414
270.0000,0.205971,207.592,0.13835
269.9000,0.220257,206.581,0.123819
269.8000,0.121616,207.113,0.131483
269.7000,1.08277,209.016,0.158729
269.6000,0.326341,209.261,0.162219
269.5000,0.654363,208.286,0.148302
269.4000,0.171722,208.464,0.150847
269.3000,0.0185151,209.543,0.166239
269.2000,0.33969,208.602,0.152823
269.1000,0.583166,208.633,0.15326
269.0000,0.517351,208.943,0.157694
268.9000,-1.17685,207.863,0.14225
268.8000,0.111997,208.301,0.148513
268.7000,1.86706,208.157,0.146454
268.6000,-0.437467,208.375,0.149567
268.5000,0.0544427,207.942,0.14337
268.4000,-0.56795,208.575,0.152434
268.3000,0.436334,208.644,0.153422
268.2000,-0.309543,209.675,0.168126
268.1000,-0.906846,208.94,0.157645
268.0000,0.855926,208.228,0.147476
267.9000,2.12745,208.167,0.1466
267.8000,-0.648071,207.466,0.136545
267.7000,-0.899649,208.779,0.155348
267.6000,-0.657987,207.86,0.142201
267.5000,0.505751,209.028,0.158907
267.4000,1.28553,210.044,0.173362
267.3000,0.579669,209.577,0.166723
267.2000,0.731233,208.755,0.155009
267.1000,2.10523,208.246,0.147735
267.0000,1.20898,209.324,0.163123
266.9000,-0.506095,208.989,0.158341
266.8000,-0.165669,207.723,0.140236
266.7000,0.380401,209.189,0.161201
266.6000,2.3498,207.007,0.129951
266.5000,1.9914,209.424,0.164544
266.4000,1.31791,208.733,0.154685
266.3000,0.613443,208.293,0.1484
266.2000,0.818377,208.607,0.152888
266.1000,1.23271,207.95,0.143484
266.0000,1.41103,208.696,0.154167
265.9000,1.06656,208.858,0.156481
265.8000,0.0865058,208.402,0.149956
265.7000,0.67838,208.976,0.158163
265.6000,-0.079492,208.806,0.155737
265.5000,-0.415291,208.671,0.153811
265.4000,0.113212,208.624,0.153131
265.3000,0.529392,209.118,0.160184
265.2000,1.62163,208.464,0.150847
265.1000,1.30197,208.299,0.148481
265.0000,0.256537,209.083,0.159683
264.9000,0.470838,209.889,0.171172
264.8000,0.588038,208.731,0.154669
264.7000,-1.57585,209.092,0.159812
264.6000,0.494779,208.527,0.151754
264.5000,1.46472,209.078,0.159618
264.4000,0.559369,209.163,0.16083
264.3000,-1.28745,208.016,0.144442
264.2000,0.976791,209.509,0.165755
264.1000,1.15646,208.889,0.156918
264.0000,1.51718,209.765,0.169399
263.9000,1.65793,208.658,0.153617
263.8000,0.591018,208.776,0.1553
263.7000,0.335001,209.906,0.171414
263.6000,0.913985,209.297,0.162736
263.5000,-2.46041,209.63,0.167481
263.4000,-0.898847,209.13,0.160361
263.3000,0.540839,210.015,0.17296
263.2000,-1.17373,209.756,0.16927
263.1000,1.55153,209.105,0.160006
263.0000,-0.530801,208.689,0.15407
262.9000,-0.0303431,210.034,0.173234
262.8000,0.02024,209.641,0.167642
262.7000,-1.7868,209.453,0.164964
262.6000,-0.321453,209.37,0.163785
262.5000,1.22119,209.51,0.165771
262.4000,0.904867,208.624,0.153131
262.3000,1.25086,209.808,0.170012
262.2000,0.850295,209.357,0.163592
262.1000,0.389277,209.845,0.170544
262.0000,0.281765,210.025,0.173105
261.9000,0.52062,209.741,0.169061
261.8000,1.13557,209.926,0.171687
261.7000,0.137058,209.516,0.165851
261.6000,0.569224,210.321,0.177305
261.5000,0.792753,209.648,0.167739
261.4000,0.255903,209.715,0.16869
261.3000,0.86642,210.351,0.177723
261.2000,1.45357,210.051,0.173475
261.1000,0.798933,210.075,0.173813
261.0000,2.44227,209.46,0.165061
260.9000,0.858998,208.938,0.157613
260.8000,1.98222,210.023,0.173073
260.7000,-0.903119,208.68,0.15394
260.6000,0.658704,209.42,0.164496
260.5000,0.780967,210.391,0.178302
260.4000,2.47826,210.44,0.178994
260.3000,0.127867,210.791,0.183974
260.2000,-0.324125,209.894,0.171237
260.1000,0.437825,210.879,0.18521
260.0000,0.908494,210.352,0.17774
259.9000,0.258376,210.715,0.182898
259.8000,-0.345116,210.158,0.174988
259.7000,0.476262,209.317,0.163027
259.6000,1.52105,209.527,0.166013
259.5000,1.23469,210.644,0.181886
259.4000,-0.204834,210.277,0.176678
259.3000,1.18052,210.557,0.180649
259.2000,0.393086,210.881,0.185242
259.1000,0.757999,210.751,0.183396
259.0000,0.819121,210.131,0.174602
258.9000,0.267798,210.659,0.182095
258.8000,1.73747,210.536,0.18036
258.7000,0.787358,211.707,0.196923
258.6000,-0.429968,210.153,0.174924
258.5000,-0.495748,210.677,0.182352
258.4000,-0.00219455,210.859,0.184937
258.3000,-0.223426,210.802,0.184119
258.2000,0.46336,210.339,0.177562
258.1000,0.462392,211.263,0.190647
258.0000,-0.3132,210.97,0.18651
257.9000,0.0357186,210.336,0.177514
257.8000,-0.595063,210.551,0.180569
257.7000,1.1415,209.361,0.163656
257.6000,2.16772,211.194,0.189669
257.5000,0.811996,211.722,0.197131
257.4000,1.42348,210.966,0.186446
257.3000,2.18947,211.352,0.191912
257.2000,1.33519,211.223,0.190086
257.1000,1.62115,211.82,0.198523
257.0000,1.19811,210.621,0.181565
256.9000,-0.115294,210.697,0.182641
256.8000,-0.564188,210.695,0.182609
256.7000,0.936173,211.189,0.189605
256.6000,-0.32186,212.114,0.202662
256.5000,-1.10175,210.575,0.180906
256.4000,0.836187,211.165,0.189268
256.3000,-0.283071,210.216,0.175809
256.2000,2.51721,211.441,0.193162
256.1000,1.12027,212.348,0.205966
256.0000,1.3714,211.538,0.194539
255.9000,-0.890239,211.674,0.196459
255.8000,1.46449,211.067,0.187873
255.7000,0.0367132,210.962,0.186397
255.6000,0.997083,210.003,0.172783
255.5000,0.23248,212.672,0.210527
255.4000,0.195692,210.013,0.172928
255.3000,1.69964,212.003,0.201096
255.2000,0.2169,212.142,0.203061
255.1000,-0.884846,212.251,0.204594
255.0000,-0.203329,212.255,0.204658
254.9000,1.4071,211.09,0.18821
254.8000,0.939414,212.043,0.201671
254.7000,0.829833,211.929,0.200057
254.6000,0.743682,212.754,0.211675
254.5000,-0.286992,211.588,0.195243
254.4000,2.10751,212.574,0.209141
254.3000,0.25852,213.241,0.218519
254.2000,-1.39257,212.721,0.211213
254.1000,0.989133,211.658,0.196235
254.0000,-0.140892,211.274,0.190807
253.9000,-1.08348,211.826,0.198602
253.8000,-0.309608,213.034,0.215608
253.7000,1.54239,210.894,0.185435
253.6000,0.226683,212.077,0.20215
253.5000,2.24644,212.558,0.208917
253.4000,-0.722341,212.092,0.202358
253.3000,-0.179355,211.761,0.197691
253.2000,0.800627,211.977,0.200728
253.1000,-0.430848,212.163,0.203364
253.0000,1.278,213.073,0.216165
252.9000,0.256864,211.935,0.200137
252.8000,0.759878,211.625,0.195771
252.7000,-1.56339,213.061,0.21599
252.6000,1.84762,212.451,0.207418
252.5000,-0.842913,213.954,0.228508
252.4000,-0.668517,214.091,0.230427
252.3000,0.773744,211.597,0.195371
252.2000,-1.78393,211.208,0.189877
252.1000,-1.03462,212.008,0.201176
252.0000,0.704362,212.827,0.21271
251.9000,-1.85047,212.647,0.210177
251.8000,1.92232,212.354,0.206046
251.7000,0.961643,212.833,0.21279
251.6000,1.26535,211.878,0.199338
251.5000,1.58837,212.901,0.213746
251.4000,0.576431,213.375,0.220395
251.3000,1.76493,213.001,0.215146
251.2000,2.583,213.081,0.216276
251.1000,-0.552868,213.683,0.224716
251.0000,0.76607,213.057,0.215942
250.9000,0.106988,213.768,0.225907
250.8000,0.0255784,212.818,0.212583
250.7000,-1.32304,213.514,0.22235
250.6000,0.684305,212.972,0.214748
250.5000,2.5559,213.319,0.219616
250.4000,-0.896033,213.414,0.220952
250.3000,-0.869789,213.728,0.225351
250.2000,1.02761,212.917,0.213968
250.1000,0.00430754,212.349,0.205982
250.0000,0.671087,213.928,0.228144
249.9000,0.641496,213.334,0.219823
249.8000,1.86473,213.162,0.217406
249.7000,-0.352343,213.741,0.225526
249.6000,0.996674,213.826,0.226716
249.5000,-0.961451,213.442,0.221333
249.4000,0.706589,213.219,0.218217
249.3000,1.71751,214.124,0.230886
249.2000,0.702043,213.172,0.217549
249.1000,1.72778,213.74,0.22551
249.0000,-0.209193,213.494,0.222064
248.9000,0.411589,214.129,0.230966
248.8000,-0.207879,213.192,0.217835
248.7000,-2.91863,214.231,0.232392
248.6000,0.982351,215.177,0.245596
248.5000,-0.609652,213.937,0.22827
248.4000,1.53164,213.944,0.228366
248.3000,-0.122446,214.297,0.23331
248.2000,-0.0545098,214.244,0.232566
248.1000,-0.230206,214.046,0.229793
248.0000,0.242878,213.4,0.220745
247.9000,-0.875942,214.013,0.229333
247.8000,-1.17433,214.453,0.235496
247.7000,0.319008,214.09,0.230411
247.6000,0.359735,215.064,0.244017
247.5000,-0.671262,214.016,0.22938
247.4000,0.563809,213.849,0.227049
247.3000,-0.920498,213.911,0.227906
247.2000,-0.105324,213.9,0.227763
247.1000,-0.608663,214.692,0.238834
247.0000,-1.56743,214.542,0.23673
246.9000,1.25464,214.801,0.240352
246.8000,0.620921,214.472,0.235749
246.7000,-0.678189,214.161,0.231409
246.6000,-1.52326,214.366,0.234276
246.5000,0.826424,214.918,0.24198
246.4000,1.03878,214.944,0.242343
246.3000,-2.06359,214.992,0.243006
246.2000,-1.41237,213.965,0.228667
246.1000,-0.275401,214.74,0.239498
246.0000,-1.17244,214.706,0.239023
245.9000,0.538337,214.419,0.235021
245.8000,-0.139708,215.307,0.247395
245.7000,-0.891183,215.21,0.246054
245.6000,0.4863,215.496,0.250029
245.5000,-0.138006,215.72,0.253149
245.4000,-0.870932,214.248,0.232629
245.3000,0.721529,214.711,0.239087
245.2000,-1.3475,214.715,0.23915
245.1000,-0.84207,214.741,0.239514
245.0000,-0.0340577,214.985,0.242911
244.9000,-0.620051,215.021,0.243417
244.8000,-0.723487,215.634,0.251952
244.7000,-2.14924,215.471,0.249682
244.6000,-1.663,216.018,0.257289
244.5000,-0.190825,216.232,0.260262
244.4000,-1.03563,214.877,0.24141
244.3000,-1.78752,215.659,0.252298
244.2000,-0.579303,215.537,0.250596
244.1000,1.35669,216.126,0.258784
244.0000,0.570728,215.364,0.248199
243.9000,-1.59925,216.419,0.262855
243.8000,-2.43076,215.504,0.250139
243.7000,-1.36228,215.884,0.255432
243.6000,-1.3034,216.453,0.263326
243.5000,-0.78562,216.622,0.265666
243.4000,-0.750057,216.825,0.268475
243.3000,-2.57426,216.266,0.260734
243.2000,-0.180041,216.172,0.259429
243.1000,-1.32525,216.503,0.264017
243.0000,-1.19304,216.175,0.25946
242.9000,-0.57061,216.653,0.26609
242.8000,-2.45321,216.993,0.270796
242.7000,-1.701,215.511,0.250234
242.6000,-3.29115,216.047,0.257683
242.5000,-0.941486,217.276,0.274713
242.4000,-1.60303,217.202,0.273695
242.3000,-2.29804,216.313,0.261378
242.2000,-1.3695,215.675,0.252519
242.1000,-2.60307,215.674,0.252503
242.0000,-1.21646,215.861,0.255102
241.9000,-2.91827,217.259,0.274478
241.8000,-4.56215,216.929,0.269918
241.7000,-1.85072,217.61,0.279329
241.6000,-3.37759,216.542,0.264551
241.5000,-3.60136,217.536,0.278312
241.4000,-1.92679,217.056,0.271673
241.3000,-3.26975,216.726,0.26711
241.2000,-2.22957,218.287,0.288654
241.1000,-4.05419,218.39,0.290073
241.0000,-3.06081,217.047,0.271548
240.9000,-3.20609,218.058,0.285501
240.8000,-3.28565,217.676,0.280236
240.7000,-2.07544,218.094,0.286001
240.6000,-3.14204,218.268,0.288404
240.5000,-2.171,220.107,0.313636
240.4000,-4.71947,219.524,0.305649
240.3000,-3.77146,218.828,0.296103
240.2000,-4.24337,218.77,0.295309
240.1000,-3.36558,219.36,0.303396
240.0000,-4.38982,218.99,0.298328
239.9000,-2.61629,219.311,0.302728
239.8000,-4.4244,218.329,0.289231
239.7000,-5.12427,219.016,0.298686
239.6000,-4.18382,219.267,0.302122
239.5000,-4.40447,219.09,0.299697
239.4000,-5.90332,220.158,0.314333
239.3000,-3.87881,220.059,0.31297
239.2000,-5.7509,219.494,0.305245
239.1000,-5.08146,220.346,0.316904
239.0000,-5.38312,219.917,0.311032
238.9000,-6.06919,220.158,0.314333
238.8000,-4.79192,220.707,0.321822
238.7000,-4.87449,220.606,0.320447
238.6000,-5.02083,219.723,0.30838
238.5000,-5.6994,219.795,0.309357
238.4000,-4.14136,219.944,0.311404
238.3000,-6.64475,221.012,0.325978
238.2000,-8.84501,221.174,0.328186
238.1000,-8.1217,221.042,0.326395
238.0000,-6.76785,220.999,0.325809
237.9000,-6.00549,220.65,0.321049
237.8000,-6.9895,221.834,0.337171
237.7000,-8.25366,221.29,0.329775
237.6000,-7.81959,221.311,0.330052
237.5000,-8.51662,220.711,0.321884
237.4000,-5.90017,221.988,0.339264
237.3000,-7.11589,221.934,0.338525
237.2000,-7.34785,222.256,0.342893
237.1000,-8.62249,222.182,0.341894
237.0000,-7.93412,222.166,0.341679
236.9000,-8.00294,221.944,0.338664
236.8000,-7.8095,221.916,0.338279
236.7000,-9.01848,222.355,0.344245
236.6000,-6.97346,223.495,0.359668
236.5000,-8.57989,221.986,0.339233
236.4000,-10.7371,223.152,0.35503
236.3000,-9.26317,222.796,0.350217
236.2000,-9.10364,222.764,0.349787
236.1000,-8.94018,223.011,0.35313
236.0000,-9.30042,223.824,0.364102
235.9000,-11.0392,223.14,0.354861
235.8000,-9.06722,223.454,0.359117
235.7000,-11.5718,223.8,0.363781
235.6000,-9.63046,224.191,0.36905
235.5000,-11.7854,224.29,0.370377
235.4000,-9.98111,224.137,0.368317
235.3000,-10.064,224.594,0.374478
235.2000,-10.7099,225.043,0.380507
235.1000,-8.47831,224.574,0.374204
235.0000,-13.0501,225.363,0.384795
234.9000,-12.1418,224.368,0.37143
234.8000,-11.5647,224.73,0.376306
234.7000,-10.2448,225.042,0.380492
234.6000,-14.6332,225.335,0.38443
234.5000,-12.6691,225.857,0.391413
234.4000,-10.3263,226.414,0.398868
234.3000,-11.8637,224.952,0.37929
234.2000,-9.97043,224.838,0.377753
234.1000,-14.7132,225.995,0.393263
234.0000,-14.0887,226.685,0.402484
233.9000,-12.4033,226.411,0.398822
233.8000,-13.0351,227.052,0.407379
233.7000,-11.8193,227.216,0.409568
233.6000,-11.5245,226.709,0.402801
233.5000,-13.6289,228.049,0.420644
233.4000,-13.9099,226.828,0.404388
233.3000,-17.0459,227.641,0.415224
233.2000,-15.0327,227.954,0.41938
233.1000,-14.8476,227.342,0.411243
233.0000,-16.4122,226.632,0.401773
232.9000,-17.1438,227.856,0.418085
232.8000,-14.8246,227.748,0.41664
232.7000,-16.5518,230.123,0.448076
232.6000,-17.7211,229.357,0.437967
232.5000,-17.4591,228.856,0.431342
232.4000,-16.1523,229.094,0.434491
232.3000,-16.9288,228.763,0.430111
232.2000,-16.7906,229.45,0.439195
232.1000,-16.7085,231.269,0.463159
232.0000,-17.6858,229.144,0.435151
231.9000,-19.0146,229.535,0.440318
231.8000,-18.9623,229.48,0.439599
231.7000,-18.0276,229.731,0.442906
231.6000,-18.8221,230.983,0.459394
231.5000,-20.89,229.655,0.441904
231.4000,-20.8496,231.37,0.464483
231.3000,-18.5327,231.035,0.460079
231.2000,-17.903,230.839,0.457503
231.1000,-18.2837,231.567,0.467069
231.0000,-20.1607,231.221,0.46252
230.9000,-21.0948,230.404,0.451778
230.8000,-22.4531,232.001,0.472755
230.7000,-23.9187,231.07,0.460541
230.6000,-21.8254,230.774,0.456654
230.5000,-21.4256,231.712,0.46897
230.4000,-21.1807,232.724,0.482207
230.3000,-20.872,232.277,0.476358
230.2000,-21.2644,232.299,0.476654
230.1000,-21.0797,231.662,0.468317
230.0000,-23.9797,232.316,0.476877
229.9000,-21.0894,232.121,0.474327
229.8000,-23.4878,232.266,0.476225
229.7000,-21.638,232.602,0.480609
229.6000,-21.7515,232.99,0.485683
229.5000,-23.1028,231.505,0.466251
229.4000,-22.7073,233.938,0.49802
229.3000,-24.1495,232.731,0.482296
229.2000,-23.9834,233.9,0.497534
229.1000,-25.9207,233.631,0.494025
229.0000,-24.0317,234.692,0.507819
228.9000,-23.2166,233.821,0.496502
228.8000,-23.9532,234.378,0.503747
228.7000,-25.0408,234.697,0.507878
228.6000,-24.3982,234.479,0.505056
228.5000,-26.0139,235.295,0.515628
228.4000,-23.015,234.776,0.508906
228.3000,-24.4353,236.062,0.525541
228.2000,-27.4601,235.889,0.523303
228.1000,-25.4433,235.675,0.520537
228.0000,-25.3647,235.788,0.522001
227.9000,-27.3609,236.65,0.533123
227.8000,-26.6724,236.495,0.531123
227.7000,-27.2966,237.484,0.543848
227.6000,-28.496,237.4,0.542771
227.5000,-27.0379,237.08,0.53865
227.4000,-28.1508,236.756,0.53448
227.3000,-29.9156,237.741,0.54715
227.2000,-28.9974,237.167,0.539772
227.1000,-30.8798,237.736,0.547077
227.0000,-29.2172,238.44,0.556109
226.9000,-27.1447,238.22,0.55328
226.8000,-31.5461,238.122,0.552031
226.7000,-28.885,237.516,0.544255
226.6000,-29.3931,238.652,0.55882
226.5000,-28.905,238.811,0.560848
226.4000,-31.0443,238.436,0.556051
226.3000,-30.3996,240.035,0.576458
226.2000,-31.0324,238.65,0.558791
226.1000,-28.939,238.758,0.560167
226.0000,-29.8133,238.609,0.558269
225.9000,-32.5224,239.283,0.566883
225.8000,-30.9672,240.586,0.583475
225.7000,-30.8514,240.618,0.583878
225.6000,-31.5622,241.333,0.59295
225.5000,-31.8392,240.387,0.580941
225.4000,-30.2461,240.472,0.582021
225.3000,-30.821,242.062,0.602171
225.2000,-31.6585,241.368,0.593395
225.1000,-33.2786,240.278,0.579558
225.0000,-30.2614,241.539,0.595562
224.9000,-33.0162,242.456,0.607152
224.8000,-32.0619,241.376,0.593495
224.7000,-33.9785,242.479,0.607438
224.6000,-30.697,242.002,0.601412
224.5000,-33.3974,241.674,0.597269
224.4000,-33.6539,242.333,0.605593
224.3000,-30.128,241.675,0.597284
224.2000,-31.9822,243.075,0.614954
224.1000,-32.8419,242.463,0.607238
224.0000,-33.9863,242.432,0.606852
223.9000,-32.8032,243.08,0.615025
223.8000,-31.7419,243.281,0.617551
223.7000,-31.1924,243.88,0.625088
223.6000,-32.8867,243.74,0.623323
223.5000,-33.8758,244.646,0.634699
223.4000,-31.5005,242.919,0.612998
223.3000,-31.2109,243.911,0.625473
223.2000,-33.512,244.998,0.639097
223.1000,-31.7941,243.883,0.625117
223.0000,-33.3043,244.283,0.630138
222.9000,-33.2262,245.127,0.640714
222.8000,-29.9583,246.22,0.654367
222.7000,-31.5345,246.269,0.654974
222.6000,-33.5787,246.151,0.653505
222.5000,-32.9155,246.515,0.658037
222.4000,-34.6499,246.337,0.655821
222.3000,-34.5811,246.008,0.651725
222.2000,-35.0993,246.447,0.65719
222.1000,-31.5174,246.088,0.652714
222.0000,-29.4354,246.931,0.663211
221.9000,-34.9829,246.865,0.662394
221.8000,-33.4295,246.578,0.658827
221.7000,-32.4292,247.2,0.666563
221.6000,-31.7153,247.859,0.674732
221.5000,-34.2553,247.206,0.666633
221.4000,-34.6801,247.73,0.673145
221.3000,-33.3957,248.938,0.688093
221.2000,-34.8488,248.7,0.685153
221.1000,-31.1328,248.516,0.682869
221.0000,-34.9216,249.05,0.689478
220.9000,-36.7264,249.001,0.688863
220.8000,-34.4848,249.734,0.697905
220.7000,-31.8724,249.492,0.69493
220.6000,-32.1625,249.88,0.699705
220.5000,-35.8605,249.827,0.699049
220.4000,-35.0447,250.501,0.707342
220.3000,-33.6588,251.116,0.714894
220.2000,-32.235,250.833,0.711419
220.1000,-32.8383,250.997,0.713435
220.0000,-34.3792,251.268,0.716756
219.9000,-34.1612,251.274,0.716825
219.8000,-33.5682,251.119,0.714936
219.7000,-33.3889,251.593,0.720739
219.6000,-32.732,251.306,0.717228
219.5000,-32.4717,252.151,0.727558
219.4000,-31.065,251.91,0.724621
219.3000,-30.8821,251.636,0.721266
219.2000,-34.3267,253.012,0.738067
219.1000,-33.6709,252.402,0.730631
219.0000,-35.8372,252.424,0.730894
218.9000,-34.3894,252.538,0.732291
218.8000,-34.6384,253.574,0.744909
218.7000,-33.4109,252.94,0.737197
218.6000,-34.8628,253.327,0.741904
218.5000,-31.0556,253.684,0.746246
218.4000,-33.3987,254.011,0.750226
218.3000,-33.0778,253.897,0.748835
218.2000,-35.4389,254.353,0.75438
218.1000,-31.4558,254.967,0.761824
218.0000,-34.6423,255.052,0.762852
217.9000,-33.7661,254.339,0.754201
217.8000,-36.0106,254.894,0.760932
217.7000,-33.5455,255.882,0.772879
217.6000,-31.6507,255.797,0.771853
217.5000,-32.3133,256.26,0.777445
217.4000,-36.1334,255.951,0.773714
217.3000,-30.8175,255.907,0.77318
217.2000,-31.1534,256.319,0.778156
217.1000,-35.2065,256.605,0.781597
217.0000,-35.7641,256.835,0.784366
216.9000,-33.1788,257.979,0.798114
216.8000,-32.5683,257.965,0.797951
216.7000,-29.2716,257.908,0.797258
216.6000,-30.563,258.208,0.800858
216.5000,-32.8029,258.755,0.80741
216.4000,-36.3269,258.359,0.802663
216.3000,-32.746,258.597,0.805512
216.2000,-33.1236,258.565,0.805132
216.1000,-32.8641,258.892,0.80905
216.0000,-32.7281,258.736,0.80718
215.9000,-34.3069,259.21,0.812841
215.8000,-34.8284,259.759,0.819399
215.7000,-34.4358,259.35,0.814519
215.6000,-33.4383,259.974,0.821965
215.5000,-32.073,260.506,0.828291
215.4000,-34.2267,260.645,0.829949
215.3000,-32.63,260.025,0.822573
215.2000,-32.492,260.805,0.831848
215.1000,-34.1741,261.452,0.839529
215.0000,-29.4606,261.236,0.836961
214.9000,-30.8662,261.68,0.842229
214.8000,-32.2712,262.099,0.847194
214.7000,-32.1596,262.315,0.849754
214.6000,-32.9063,261.804,0.843705
214.5000,-34.5427,262.849,0.85606
214.4000,-35.8114,262.587,0.852969
214.3000,-33.8074,262.852,0.856101
214.2000,-29.1079,262.636,0.853544
214.1000,-30.9061,263.709,0.866201
214.0000,-33.5282,263.895,0.868388
213.9000,-37.9132,264.277,0.872879
213.8000,-30.7694,264.059,0.870321
213.7000,-31.9857,264.261,0.872692
213.6000,-32.2698,263.877,0.868175
213.5000,-34.0616,264.675,0.877564
213.4000,-34.2583,264.759,0.878548
213.3000,-34.4228,265.384,0.885868
213.2000,-29.0738,264.641,0.877165
213.1000,-36.1816,265.985,0.892909
213.0000,-34.12,265.193,0.883638
212.9000,-36.9752,266.067,0.893863
212.8000,-32.8139,266.888,0.903452
212.7000,-34.7207,266.64,0.900558
212.6000,-31.2321,267.437,0.90984
212.5000,-34.4906,266.653,0.900703
212.4000,-34.753,267.059,0.905446
212.3000,-34.7853,268.023,0.916652
212.2000,-31.7265,268.429,0.921375
212.1000,-36.6422,267.592,0.911646
212.0000,-32.4492,269.268,0.931091
211.9000,-34.9536,270.011,0.939683
211.8000,-30.391,269.038,0.928428
211.7000,-37.7359,270.203,0.941893
211.6000,-33.5913,270.053,0.940167
211.5000,-34.3936,270.606,0.946545
211.4000,-33.3156,270.965,0.950683
211.3000,-35.5823,270.92,0.950161
211.2000,-33.5287,271.618,0.958189
211.1000,-34.4915,271.303,0.954568
211.0000,-30.5187,271.588,0.957851
210.9000,-33.5516,273.541,0.980217
210.8000,-35.9425,271.937,0.961858
210.7000,-39.9553,272.78,0.971522
210.6000,-35.5365,272.642,0.969939
210.5000,-36.8803,273.473,0.97944
210.4000,-34.2599,274.055,0.986088
210.3000,-36.7292,273.57,0.980553
210.2000,-30.0609,274.513,0.991305
210.1000,-36.227,275.049,0.997404
210.0000,-34.7215,275.252,0.999709
209.9000,-39.0148,275.154,0.998602
209.8000,-35.8895,276.251,1.01105
209.7000,-40.3726,276.389,1.01261
209.6000,-39.4816,276.703,1.01617
209.5000,-32.2312,277.51,1.02528
209.4000,-35.5952,277.885,1.02951
209.3000,-38.633,278.035,1.03121
209.2000,-32.804,278.565,1.03717
209.1000,-36.3533,279.099,1.04318
209.0000,-34.5467,279.423,1.04682
208.9000,-34.0396,279.17,1.04397
208.8000,-38.1179,280.294,1.05657
208.7000,-35.9217,280.044,1.05378
208.6000,-38.4599,280.274,1.05636
208.5000,-35.7731,281.347,1.06835
208.4000,-37.3914,281.656,1.07179
208.3000,-34.7379,282.437,1.0805
208.2000,-36.0794,282.65,1.08286
208.1000,-35.0645,283.009,1.08684
208.0000,-37.2574,283.38,1.09097
207.9000,-36.0561,284.425,1.10254
207.8000,-36.0086,285.198,1.11107
207.7000,-34.6375,285.572,1.11519
207.6000,-37.0676,286.459,1.12496
207.5000,-32.2848,286.237,1.12252
207.4000,-32.1679,287.297,1.13417
207.3000,-34.4937,287.169,1.13276
207.2000,-33.5495,287.712,1.13871
207.1000,-33.5673,288.426,1.14652
207.0000,-32.505,287.857,1.1403
206.9000,-35.5797,288.866,1.15134
206.8000,-33.3998,289.121,1.15412
206.7000,-33.5736,289.688,1.16029
206.6000,-35.057,290.197,1.16583
206.5000,-30.2983,290.854,1.17297
206.4000,-30.0586,292.127,1.18677
206.3000,-34.7315,292.201,1.18756
206.2000,-32.1431,292.867,1.19476
206.1000,-32.9696,293.497,1.20155
206.0000,-34.5328,294.628,1.21372
205.9000,-26.3347,293.815,1.20497
205.8000,-27.9343,295.538,1.22347
205.7000,-28.3295,296.237,1.23095
205.6000,-23.346,297.155,1.24075
205.5000,-28.8111,296.502,1.23379
205.4000,-27.2866,297.96,1.24933
205.3000,-23.0083,299.14,1.26186
205.2000,-25.8461,299.569,1.26641
205.1000,-20.3413,299.676,1.26754
205.0000,-25.6028,300.75,1.27889
204.9000,-21.0745,301.925,1.29128
204.8000,-28.9048,302.391,1.29617
204.7000,-27.6796,302.622,1.2986
204.6000,-27.1058,303.246,1.30515
204.5000,-24.775,303.782,1.31077
204.4000,-21.7561,304.606,1.31938
204.3000,-19.9038,305.486,1.32856
204.2000,-25.1481,306.411,1.33818
204.1000,-19.7916,307.008,1.34439
204.0000,-18.2793,307.718,1.35175
203.9000,-15.792,308.727,1.36218
203.8000,-17.4338,309.394,1.36907
203.7000,-14.5532,310.133,1.37667
203.6000,-14.8764,310.911,1.38468
203.5000,-13.2964,311.76,1.39338
203.4000,-15.0995,312.622,1.4022
203.3000,-13.4161,313.745,1.41366
203.2000,-17.7872,313.869,1.41492
203.1000,-12.5946,314.746,1.42384
203.0000,-14.0487,315.134,1.42779
202.9000,-9.71854,316.376,1.44038
202.8000,-5.07524,317.419,1.45091
202.7000,-6.28588,317.072,1.44741
202.6000,-4.73125,318.481,1.46162
202.5000,-6.55863,319.624,1.4731
202.4000,-10.7591,320.651,1.4834
202.3000,-5.29012,321.093,1.48782
202.2000,-1.64596,322.499,1.50184
202.1000,-1.2118,323.724,1.51402
202.0000,-1.19384,323.99,1.51666
201.9000,-0.159265,325.185,1.52849
201.8000,-11.3745,326.113,1.53766
201.7000,-6.13105,327.24,1.54877
201.6000,2.70525,328.286,1.55904
201.5000,2.57468,328.21,1.5583
201.4000,5.09001,329.963,1.57546
201.3000,6.69418,331.318,1.58868
201.2000,10.0625,332.265,1.59789
201.1000,9.43354,332.517,1.60033
201.0000,2.6848,334.298,1.61758
200.9000,4.39244,335.344,1.62768
200.8000,7.44747,334.965,1.62403
200.7000,3.49695,336.907,1.64272
200.6000,5.46412,339.365,1.66624
200.5000,14.3029,338.896,1.66176
200.4000,16.5775,340.032,1.67261
200.3000,16.8492,342.442,1.6955
200.2000,20.4667,342.232,1.6935
200.1000,14.0829,343.526,1.70575
200.0000,16.2389,344.513,1.71506
199.9000,14.6004,345.791,1.72708
199.8000,22.5693,347.678,1.74478
199.7000,20.5663,347.564,1.74371
199.6000,20.568,348.578,1.75318
199.5000,23.5832,350.167,1.76798
199.4000,24.3462,351.386,1.77929
199.3000,27.5244,351.811,1.78323
199.2000,20.172,353.144,1.79556
199.1000,18.9918,353.477,1.79863
199.0000,13.5706,355.061,1.81321
198.9000,37.8758,355.08,1.81338
198.8000,21.7961,357.32,1.83391
198.7000,28.3597,358.41,1.84386
198.6000,21.2501,360.241,1.86052
198.5000,37.1677,360.712,1.86479
198.4000,37.6189,362.659,1.8824
198.3000,37.4866,362.261,1.87881
198.2000,24.6866,364.391,1.89801
198.1000,38.4133,366.65,1.91827
198.0000,33.5662,366.879,1.92032
197.9000,42.7387,367.721,1.92784
197.8000,39.1059,368.932,1.93863
197.7000,39.7649,370.052,1.94858
197.6000,41.2317,370.906,1.95615
197.5000,36.9975,372.226,1.96783
197.4000,41.7999,373.094,1.97549
197.3000,25.8903,374.351,1.98655
197.2000,43.4183,375.938,2.00048
197.1000,45.4092,377.075,2.01042
197.0000,49.5659,378.559,2.02336
196.9000,42.358,379.153,2.02853
196.8000,39.7132,380.228,2.03787
196.7000,48.13,382.768,2.05985
196.6000,44.0199,383.406,2.06535
196.5000,38.368,385.153,2.08037
196.4000,54.4105,385.404,2.08252
196.3000,49.115,387.347,2.09915
196.2000,33.8781,387.467,2.10018
196.1000,35.7128,389.475,2.11729
196.0000,31.8914,390.569,2.12658
195.9000,43.8237,391.445,2.134
195.8000,41.9276,393.072,2.14775
195.7000,44.9354,393.732,2.15331
195.6000,40.838,395.187,2.16555
195.5000,50.9016,395.766,2.17041
195.4000,53.2725,398.16,2.19044
195.3000,43.3721,397.996,2.18907
195.2000,46.0218,398.741,2.19529
195.1000,57.2454,400.537,2.21023
195.0000,44.1737,401.227,2.21596
194.9000,47.3102,402.487,2.2264
194.8000,41.5915,403.361,2.23361
194.7000,47.2596,403.74,2.23675
194.6000,42.048,404.343,2.24172
194.5000,51.1636,405.693,2.25282
194.4000,44.5744,407.644,2.26882
194.3000,55.648,407.109,2.26444
194.2000,47.3766,408.643,2.27698
194.1000,49.7603,409.804,2.28646
194.0000,47.8947,410.792,2.2945
193.9000,51.6254,412.047,2.30468
193.8000,41.3532,413.514,2.31656
193.7000,48.5278,414.567,2.32506
193.6000,50.8529,414.155,2.32174
193.5000,53.5346,415.337,2.33127
193.4000,40.6136,416.952,2.34426
193.3000,46.2201,417.286,2.34694
193.2000,50.5298,418.592,2.35741
193.1000,48.7465,419.656,2.36591
193.0000,49.5672,420.069,2.3692
192.9000,39.9552,420.53,2.37288
192.8000,46.5062,422.167,2.38591
192.7000,52.7435,423.509,2.39655
192.6000,52.8574,424.647,2.40556
192.5000,44.4678,425.087,2.40904
192.4000,47.3187,426.408,2.41946
192.3000,48.0372,427.22,2.42585
192.2000,45.498,428.857,2.43871
192.1000,48.0985,427.939,2.4315
192.0000,47.5247,429.942,2.44721
191.9000,53.0454,430.107,2.44849
191.8000,43.2024,431.524,2.45956
191.7000,48.3493,431.2,2.45704
191.6000,52.3854,433.357,2.47384
191.5000,49.0981,433.369,2.47392
191.4000,36.6104,434.959,2.48626
191.3000,35.6036,435.983,2.49419
191.2000,42.3937,436.703,2.49976
191.1000,46.6307,438.26,2.51176
191.0000,45.0738,440.598,2.52971
190.9000,45.0736,441.806,2.53896
190.8000,37.2805,441.976,2.54026
190.7000,49.8964,444.334,2.55824
190.6000,48.2245,445.313,2.56568
190.5000,44.0227,445.7,2.56862
190.4000,34.3692,447.349,2.58112
190.3000,39.0423,447.317,2.58088
190.2000,48.8582,448.669,2.59109
190.1000,44.0369,449.789,2.59954
190.0000,37.5257,450.753,2.6068

##### Extended Information
[Comments]
Sample name,CC.SJ.9_28_22_ADDITIVE_KCL_PROTEIN
Comment,TEST 1 TUBE 3
User,CARYN CARHART
Division
Company,Saint Mary's College

[Detailed Information]
Creation date,9/28/2022 2:20 PM

Data array type,Linear data array * 3
Horizontal axis,Wavelength [nm]
Vertical axis(1),CD [mdeg]
Vertical axis(2),HT [V]
Vertical axis(3),Abs
Start,320 nm
End,190 nm
Data interval,0.1 nm
Data points,1301    

[Measurement Information]
Instrument name,J-1500
Model name,J-1500
Serial No.,B051061638

Detector,PM-539
Detector S/N,B051061638
  Lock-in amp.,X mode
  HT volt,Auto

Accessory,PTC-517
Accessory S/N,B026561646
  Temperature,27.03 C
  Control sensor,Holder
  Monitor sensor,Holder

Measurement date,9/28/2022 2:20 PM

CD Overload detect,1075
Photometric mode,CD, HT, Abs
Measure range,320 - 190 nm
Data pitch,0.1 nm
CD scale,20 mdeg/0.05 dOD
FL scale,20 mdeg/0.05 dOD
D.I.T.,8 msec
Bandwidth,2.00 nm
Start mode,Immediately
Scanning mode,Continuous
Scanning speed,200 nm/min
Baseline correction,None
Shutter control,Auto
No. of cycle,1/1
N2 Flowmeter,Manual

Solvent,NaPO4 buffer

