TITLE,CC.SJ.9_28_22_PHOSPHATEBUFFER_PROTEIN
DATA TYPE,
ORIGIN,JASCO
OWNER,
DATE,22/09/28
TIME,14:11:26
SPECTROMETER/DATA SYSTEM,
LOCALE,1033
RESOLUTION,
DELTAX,-0.1
XUNITS,NANOMETERS
YUNITS,CD [mdeg]
Y2UNITS,HT [V]
Y3UNITS,ABSORBANCE
FIRSTX,  320.0000
LASTX,  190.0000
NPOINTS,    1301
FIRSTY,     2.28160
MAXY,    45.72734
MINY,   -70.38342
XYDATA
320.0000,2.2816,207.539,0.137602
319.9000,1.49659,209.116,0.160151
319.8000,0.141878,208.234,0.147557
319.7000,0.381883,207.692,0.139797
319.6000,1.93936,208.804,0.155704
319.5000,1.72638,208.063,0.145107
319.4000,2.36597,208.743,0.154831
319.3000,0.897829,206.937,0.128941
319.2000,1.63085,208.132,0.146097
319.1000,-0.00985955,208.414,0.150134
319.0000,1.42019,208.258,0.147897
318.9000,1.803,208.056,0.14501
318.8000,1.28846,208.876,0.15674
318.7000,0.832714,208.283,0.148254
318.6000,1.37422,208.906,0.15716
318.5000,1.23699,208.182,0.146811
318.4000,0.177936,208.764,0.155138
318.3000,1.98787,207.765,0.140837
318.2000,0.939136,208.448,0.15062
318.1000,-0.79163,208.824,0.155996
318.0000,0.0982709,209.174,0.160992
317.9000,2.04356,208.549,0.152062
317.8000,1.96878,208.446,0.150588
317.7000,0.63704,208.311,0.148659
317.6000,2.28663,208.115,0.145853
317.5000,1.29406,207.86,0.142201
317.4000,1.4152,208.227,0.147459
317.3000,0.863281,209.159,0.160765
317.2000,0.549028,208.503,0.151398
317.1000,0.711207,208.38,0.149648
317.0000,1.81636,208.346,0.149162
316.9000,1.54908,208.895,0.156998
316.8000,0.933549,207.622,0.138789
316.7000,1.65526,208.027,0.144588
316.6000,1.60263,208.142,0.146243
316.5000,0.0757395,208.163,0.146535
316.4000,0.231056,208.515,0.151576
316.3000,1.33617,207.675,0.139553
316.2000,0.707768,207.424,0.135943
316.1000,1.76223,208.29,0.148351
316.0000,2.28707,207.798,0.141308
315.9000,0.215645,208.347,0.149178
315.8000,0.90379,208.137,0.146162
315.7000,2.43898,208.743,0.154831
315.6000,0.977969,208.565,0.152289
315.5000,1.3662,207.934,0.143257
315.4000,1.59901,207.973,0.143825
315.3000,1.32923,208.055,0.144993
315.2000,0.714971,207.938,0.143322
315.1000,1.65176,207.893,0.142672
315.0000,0.166413,207.885,0.142558
314.9000,1.5759,207.967,0.143728
314.8000,0.282677,207.785,0.141129
314.7000,0.0853843,207.273,0.133779
314.6000,1.02208,208.823,0.155979
314.5000,0.926607,207.507,0.13713
314.4000,0.64906,208.472,0.150961
314.3000,0.690867,207.607,0.138578
314.2000,0.989073,207.481,0.136756
314.1000,0.77187,207.857,0.142152
314.0000,0.159875,207.799,0.141324
313.9000,0.701216,208.5,0.151366
313.8000,0.763591,207.695,0.139829
313.7000,2.06213,207.137,0.131825
313.6000,1.93305,207.745,0.140544
313.5000,-0.197694,207.416,0.135829
313.4000,1.01272,207.503,0.137082
313.3000,1.42154,207.415,0.135813
313.2000,3.20709,207.992,0.144085
313.1000,1.83046,208.139,0.146194
313.0000,0.52275,207.996,0.14415
312.9000,2.01838,207.618,0.138724
312.8000,1.7595,207.816,0.141568
312.7000,1.584,207.513,0.137228
312.6000,0.698611,207.64,0.139049
312.5000,0.45138,208.006,0.144296
312.4000,0.754579,208.178,0.146762
312.3000,1.82681,208.062,0.145091
312.2000,2.45046,206.928,0.12881
312.1000,0.975836,207.814,0.141535
312.0000,0.612841,207.142,0.13189
311.9000,1.40967,207.331,0.134609
311.8000,1.02321,207.967,0.143728
311.7000,0.47201,208.225,0.147427
311.6000,2.66199,207.307,0.134267
311.5000,-0.518434,206.865,0.127914
311.4000,-0.280721,207.613,0.138659
311.3000,1.11018,207.066,0.130799
311.2000,0.648262,207.601,0.13848
311.1000,-0.209526,207.25,0.133453
311.0000,1.30392,208.087,0.145448
310.9000,1.70758,207.648,0.139163
310.8000,1.03345,207.86,0.142201
310.7000,0.0206068,207.767,0.140869
310.6000,1.79936,207.822,0.141649
310.5000,-0.765326,207.376,0.13526
310.4000,1.07431,207.459,0.136447
310.3000,1.44392,207.045,0.130505
310.2000,1.2481,207.88,0.142493
310.1000,0.647325,207.542,0.137635
310.0000,1.16735,207.788,0.141162
309.9000,-0.787657,208.465,0.150863
309.8000,3.14107,207.85,0.142055
309.7000,-0.647416,207.369,0.135162
309.6000,1.98548,207.678,0.139586
309.5000,0.538812,208.518,0.151625
309.4000,1.1478,208.345,0.149145
309.3000,0.744632,207.179,0.132427
309.2000,2.70956,208.435,0.150426
309.1000,0.951018,207.865,0.142266
309.0000,-0.31652,207.939,0.143338
308.9000,0.0689953,208.215,0.147281
308.8000,1.28879,207.805,0.141405
308.7000,0.196397,208.116,0.14587
308.6000,0.979751,207.943,0.143386
308.5000,1.97828,207.907,0.142867
308.4000,1.84499,208.388,0.149761
308.3000,4.30123,207.656,0.139277
308.2000,1.30592,208.011,0.14436
308.1000,1.60143,207.615,0.138692
308.0000,3.41018,207.578,0.138155
307.9000,0.829626,208.526,0.151738
307.8000,0.18858,207.547,0.137716
307.7000,0.512918,207.49,0.136886
307.6000,2.13906,207.212,0.132899
307.5000,2.10638,208.295,0.148432
307.4000,0.956441,207.367,0.13513
307.3000,1.07086,208.22,0.147362
307.2000,-0.423626,207.783,0.141097
307.1000,3.04077,207.604,0.138529
307.0000,0.669054,207.646,0.13913
306.9000,0.657243,208.122,0.145951
306.8000,2.10851,207.543,0.137651
306.7000,1.68396,208.66,0.153649
306.6000,1.33878,207.669,0.139455
306.5000,0.581682,208.149,0.14634
306.4000,1.42054,208.014,0.144409
306.3000,0.465415,208.106,0.145724
306.2000,1.42147,208.617,0.153034
306.1000,0.232968,207.42,0.135894
306.0000,3.01658,207.522,0.137358
305.9000,1.20009,207.857,0.142152
305.8000,-0.463824,207.867,0.142299
305.7000,1.58467,207.277,0.133828
305.6000,2.30645,207.462,0.136496
305.5000,-0.794474,207.033,0.130326
305.4000,0.481459,207.264,0.133649
305.3000,1.03332,208.747,0.154895
305.2000,1.49896,207.301,0.134186
305.1000,1.10394,208.109,0.145772
305.0000,1.85097,207.875,0.142412
304.9000,0.868905,207.26,0.133583
304.8000,0.661464,207.835,0.141844
304.7000,1.16293,207.271,0.133746
304.6000,-0.416976,207.696,0.139846
304.5000,0.250774,206.877,0.128077
304.4000,1.47021,206.327,0.12016
304.3000,0.98556,208.006,0.144296
304.2000,1.41057,207.453,0.136366
304.1000,2.80576,207.212,0.132899
304.0000,0.0410924,207.067,0.130815
303.9000,0.439659,207.122,0.131613
303.8000,-0.135079,208.302,0.148529
303.7000,-0.113638,207.67,0.139472
303.6000,0.470662,207.645,0.139114
303.5000,2.00676,207.015,0.130065
303.4000,1.50011,206.767,0.126495
303.3000,1.94154,207.773,0.14095
303.2000,0.691149,207.39,0.135455
303.1000,0.848776,207.691,0.13978
303.0000,1.25948,207.704,0.139959
302.9000,1.0199,207.637,0.139
302.8000,1.83825,207.264,0.133649
302.7000,1.43131,207.366,0.135113
302.6000,0.96208,207.504,0.137098
302.5000,0.517123,208.296,0.148448
302.4000,-0.283098,207.817,0.141584
302.3000,0.903408,207.908,0.142883
302.2000,1.03009,207.641,0.139065
302.1000,-0.0182856,207.503,0.137082
302.0000,0.913888,207.088,0.131124
301.9000,1.50181,207.93,0.143208
301.8000,2.38787,208.62,0.153082
301.7000,3.83227,207.064,0.130766
301.6000,1.40832,207.782,0.14108
301.5000,0.958895,208.188,0.146892
301.4000,2.09882,206.796,0.126919
301.3000,1.53887,207.592,0.13835
301.2000,0.33709,206.89,0.128272
301.1000,0.827427,207.161,0.132167
301.0000,1.90685,206.755,0.126332
300.9000,1.94609,206.733,0.126006
300.8000,0.0618975,207.5,0.137033
300.7000,2.04046,207.405,0.135666
300.6000,0.134469,207.916,0.142997
300.5000,0.816518,207.134,0.131776
300.4000,1.19654,207.655,0.13926
300.3000,2.59019,207.718,0.140171
300.2000,0.136282,207.874,0.142396
300.1000,1.38656,207.626,0.138838
300.0000,3.07975,207.619,0.13874
299.9000,1.56703,206.496,0.122594
299.8000,1.78894,207.245,0.133372
299.7000,0.586925,205.842,0.11316
299.6000,0.274311,207.913,0.142964
299.5000,1.85228,206.368,0.120749
299.4000,0.834465,207.706,0.139992
299.3000,0.433118,207.109,0.131417
299.2000,3.57572,206.937,0.128941
299.1000,1.84788,207.384,0.135374
299.0000,1.08167,207.581,0.138204
298.9000,1.83288,207.386,0.135406
298.8000,1.20647,207.464,0.136512
298.7000,1.77624,207.341,0.134755
298.6000,0.33502,206.554,0.123427
298.5000,0.766157,206.707,0.12563
298.4000,0.831699,206.496,0.122594
298.3000,-0.235668,206.222,0.118641
298.2000,0.659814,206.538,0.123198
298.1000,1.32935,206.962,0.129299
298.0000,1.15334,207.422,0.13591
297.9000,0.648387,207.12,0.13158
297.8000,0.536065,206.292,0.119654
297.7000,2.20876,206.924,0.128762
297.6000,0.140652,207.034,0.130342
297.5000,1.62874,206.43,0.121647
297.4000,0.596451,207.001,0.12987
297.3000,1.2014,207.941,0.143354
297.2000,2.71889,207.398,0.135569
297.1000,2.10985,207.081,0.13101
297.0000,-0.456522,206.921,0.128713
296.9000,2.2041,207.203,0.132769
296.8000,1.89375,207.436,0.136122
296.7000,-0.10712,206.194,0.118248
296.6000,1.26344,206.815,0.127196
296.5000,1.21031,205.847,0.113226
296.4000,0.812723,206.514,0.122856
296.3000,1.04397,207.622,0.138789
296.2000,1.83856,207.902,0.142802
296.1000,1.62784,206.587,0.1239
296.0000,-0.518792,208.89,0.156934
295.9000,1.23988,205.979,0.115141
295.8000,0.878551,207.02,0.130147
295.7000,1.05949,206.857,0.1278
295.6000,0.674906,207.211,0.132883
295.5000,2.37377,206.524,0.123003
295.4000,1.79928,208.437,0.150458
295.3000,1.3123,207.794,0.141259
295.2000,0.0650243,206.692,0.125418
295.1000,-0.618379,208.789,0.155494
295.0000,0.78209,206.812,0.127147
294.9000,1.77349,206.267,0.119295
294.8000,-0.7632,206.819,0.127245
294.7000,-0.0580929,206.936,0.128925
294.6000,1.93846,207.001,0.12987
294.5000,1.10549,207.43,0.136024
294.4000,-1.15988,206.993,0.129756
294.3000,-1.12601,206.891,0.128289
294.2000,0.520951,207.366,0.135113
294.1000,1.96297,206.648,0.124782
294.0000,-0.0130673,207.524,0.137374
293.9000,1.76494,206.8,0.126968
293.8000,2.56356,207.323,0.134495
293.7000,1.63335,206.9,0.128419
293.6000,1.36431,207.134,0.131776
293.5000,0.312145,206.699,0.125516
293.4000,0.955084,206.319,0.120046
293.3000,-0.199482,207.04,0.130424
293.2000,0.783468,206.336,0.120291
293.1000,1.37928,207.098,0.131255
293.0000,1.53283,206.266,0.119278
292.9000,1.06255,207.103,0.131336
292.8000,-0.653151,206.488,0.12248
292.7000,2.21786,206.63,0.124521
292.6000,-0.347055,206.031,0.115893
292.5000,2.21817,207.366,0.135113
292.4000,1.00822,207.712,0.140073
292.3000,0.451513,206.777,0.126642
292.2000,2.72508,206.743,0.126152
292.1000,1.97843,206.262,0.119229
292.0000,0.00776988,206.31,0.119915
291.9000,1.462,206.942,0.129022
291.8000,0.718126,206.617,0.124341
291.7000,0.943618,206.525,0.123019
291.6000,0.37855,206.701,0.125549
291.5000,1.32262,206.464,0.122137
291.4000,2.11762,206.733,0.126006
291.3000,0.251628,206.343,0.120389
291.2000,0.178118,206.724,0.125875
291.1000,0.286768,207.788,0.141162
291.0000,1.65115,206.779,0.126674
290.9000,-0.955843,206.138,0.117431
290.8000,-1.68936,206.562,0.123541
290.7000,-0.112543,207.142,0.13189
290.6000,-1.01791,207.529,0.137456
290.5000,0.211087,207.278,0.133844
290.4000,-0.945735,207.036,0.130375
290.3000,1.46262,207.346,0.13482
290.2000,-0.212418,208.131,0.146081
290.1000,0.567395,206.674,0.125157
290.0000,-0.230605,207.577,0.138139
289.9000,2.42366,206.71,0.125679
289.8000,0.514686,207.417,0.135846
289.7000,0.684866,206.73,0.125973
289.6000,0.0994411,206.445,0.121859
289.5000,0.562301,206.724,0.125875
289.4000,-0.743271,207.118,0.131548
289.3000,3.32008,206.642,0.1247
289.2000,-0.10055,207.19,0.13259
289.1000,0.764263,206.94,0.128989
289.0000,0.145729,207.243,0.133339
288.9000,-0.69905,206.97,0.129414
288.8000,0.539869,207.997,0.144166
288.7000,-0.258527,207.457,0.136415
288.6000,0.347194,207.176,0.132378
288.5000,1.54023,207.544,0.137667
288.4000,0.58707,207.243,0.133339
288.3000,0.618046,207.485,0.136822
288.2000,2.12254,206.669,0.125092
288.1000,-0.117952,207.034,0.130342
288.0000,-0.46549,207.299,0.134153
287.9000,0.78535,207.501,0.137049
287.8000,0.566497,206.84,0.127555
287.7000,0.551705,207.844,0.141974
287.6000,2.09238,207.228,0.133127
287.5000,-0.687366,207.375,0.135243
287.4000,0.337071,207.074,0.130913
287.3000,0.812735,206.701,0.125549
287.2000,2.3645,207.363,0.135064
287.1000,0.91813,207.653,0.139228
287.0000,0.456207,206.87,0.127979
286.9000,-0.580052,207.275,0.133811
286.8000,1.75801,206.636,0.124619
286.7000,1.07723,207.142,0.13189
286.6000,0.30631,207.186,0.132525
286.5000,-0.0104262,207.997,0.144166
286.4000,-0.174,206.992,0.129739
286.3000,1.3532,207.406,0.135683
286.2000,-0.117364,207.339,0.134723
286.1000,1.9961,207.481,0.136756
286.0000,0.651073,207.382,0.135341
285.9000,0.955418,208.069,0.145188
285.8000,-0.820571,207.59,0.138334
285.7000,-0.311593,207.432,0.136057
285.6000,1.76757,207.711,0.140057
285.5000,-0.625025,207.803,0.141389
285.4000,0.0910528,207.546,0.1377
285.3000,1.43943,208.194,0.146989
285.2000,2.56856,207.193,0.132623
285.1000,0.395249,207.927,0.143159
285.0000,1.68255,207.646,0.13913
284.9000,2.17203,206.877,0.128077
284.8000,1.20912,207.521,0.137342
284.7000,0.515124,207.87,0.142347
284.6000,0.309974,207.891,0.14264
284.5000,1.09741,207.622,0.138789
284.4000,0.294465,207.437,0.136138
284.3000,1.67827,207.312,0.134332
284.2000,0.640522,206.792,0.126854
284.1000,1.17324,207.09,0.131141
284.0000,1.26531,208.036,0.144718
283.9000,2.34919,207.493,0.136935
283.8000,0.756071,207.768,0.140886
283.7000,-0.045032,207.21,0.132867
283.6000,0.215937,207.819,0.141617
283.5000,0.568321,207.598,0.138448
283.4000,1.67107,206.686,0.125337
283.3000,0.0471466,208.114,0.145837
283.2000,1.08817,207.577,0.138139
283.1000,-0.112703,207.871,0.142364
283.0000,0.1536,208.117,0.145886
282.9000,0.239159,207.95,0.143484
282.8000,1.76824,207.86,0.142201
282.7000,0.210685,207.565,0.137976
282.6000,-0.0338437,207.684,0.139683
282.5000,3.44507,207.995,0.144133
282.4000,2.51338,207.621,0.138773
282.3000,1.1072,207.187,0.132541
282.2000,1.39112,207.113,0.131483
282.1000,1.93958,208.362,0.149388
282.0000,0.20266,207.478,0.136724
281.9000,1.06126,207.389,0.135439
281.8000,-0.452183,206.831,0.127424
281.7000,1.71572,206.669,0.125092
281.6000,0.330514,207.967,0.143728
281.5000,1.59855,207.309,0.1343
281.4000,-0.817504,207.33,0.134592
281.3000,0.365415,207.536,0.137553
281.2000,0.796653,208.265,0.147994
281.1000,0.817736,207.724,0.140252
281.0000,-0.28954,207.024,0.130196
280.9000,1.49947,207.721,0.140203
280.8000,1.26351,207.403,0.13565
280.7000,-0.190462,207.994,0.144117
280.6000,0.534117,206.984,0.129625
280.5000,1.11737,207.27,0.13373
280.4000,0.16017,208.455,0.150717
280.3000,-0.248637,207.355,0.134951
280.2000,-0.0108984,207.91,0.142916
280.1000,-0.928462,207.039,0.130408
280.0000,0.725247,208.233,0.14754
279.9000,0.894511,208.51,0.151511
279.8000,0.942497,207.177,0.132395
279.7000,1.28527,207.388,0.135422
279.6000,0.123433,207.43,0.136024
279.5000,-0.332867,208.018,0.144458
279.4000,0.193466,208.609,0.15292
279.3000,0.785911,207.952,0.143516
279.2000,0.984395,207.53,0.137472
279.1000,1.72999,207.779,0.141031
279.0000,-0.802782,208.268,0.148043
278.9000,2.38475,207.051,0.130587
278.8000,-0.93217,207.517,0.137277
278.7000,-1.01334,207.777,0.141015
278.6000,0.0835743,208.104,0.145691
278.5000,2.02938,207.529,0.137456
278.4000,0.389523,208.276,0.148156
278.3000,1.02223,208.459,0.150782
278.2000,1.14598,208.522,0.151673
278.1000,0.81914,207.565,0.137976
278.0000,-0.243552,206.538,0.123198
277.9000,0.166333,207.478,0.136724
277.8000,0.619963,207.969,0.14376
277.7000,0.0593596,207.433,0.136073
277.6000,0.547066,206.71,0.125679
277.5000,-0.460495,207.529,0.137456
277.4000,0.706569,208.686,0.154021
277.3000,0.93487,207.192,0.132606
277.2000,-0.589529,208.521,0.151657
277.1000,0.411039,207.255,0.133518
277.0000,1.63298,207.834,0.141827
276.9000,0.0961041,208.242,0.14767
276.8000,0.923535,207.639,0.139033
276.7000,0.794174,208.147,0.146308
276.6000,0.0455669,207.743,0.140528
276.5000,1.88912,208.012,0.144377
276.4000,0.00414036,206.266,0.119278
276.3000,1.38741,208.04,0.144783
276.2000,2.87828,207.824,0.141681
276.1000,-1.09794,209.119,0.1602
276.0000,0.0513025,207.734,0.140398
275.9000,-1.72773,207.805,0.141405
275.8000,0.2912,207.868,0.142315
275.7000,1.02744,208.299,0.148481
275.6000,0.943432,207.867,0.142299
275.5000,-1.60571,207.877,0.142445
275.4000,1.47161,207.638,0.139017
275.3000,1.65773,207.9,0.14277
275.2000,0.332064,208.713,0.15441
275.1000,0.271252,207.419,0.135878
275.0000,2.82285,208.265,0.147994
274.9000,0.545995,207.519,0.137309
274.8000,0.480739,208.262,0.147962
274.7000,1.68248,208.455,0.150717
274.6000,1.52016,207.863,0.14225
274.5000,2.86805,207.854,0.14212
274.4000,-0.832381,208.197,0.147021
274.3000,0.0359639,208.759,0.155057
274.2000,0.642827,208.117,0.145886
274.1000,-0.169622,207.891,0.14264
274.0000,-0.24801,207.863,0.14225
273.9000,0.254266,207.738,0.140447
273.8000,-0.135924,207.792,0.141227
273.7000,-0.06257,207.858,0.142168
273.6000,1.81577,207.946,0.143435
273.5000,0.274616,208.069,0.145188
273.4000,1.97324,207.518,0.137293
273.3000,0.114381,207.996,0.14415
273.2000,1.14284,207.993,0.144101
273.1000,0.704206,207.948,0.143468
273.0000,0.25924,207.248,0.133421
272.9000,-0.422067,208.356,0.149307
272.8000,-0.259737,208.114,0.145837
272.7000,0.253693,207.639,0.139033
272.6000,0.0346327,208.096,0.145577
272.5000,1.51198,208.152,0.146389
272.4000,1.36914,208.1,0.145642
272.3000,-0.313746,207.762,0.140788
272.2000,0.311805,208.378,0.149615
272.1000,-0.0508167,208.009,0.144328
272.0000,0.381784,207.844,0.141974
271.9000,1.14135,207.982,0.143955
271.8000,0.632143,207.499,0.137017
271.7000,-1.25433,208.41,0.150069
271.6000,0.705505,207.968,0.143744
271.5000,2.22177,208.924,0.157419
271.4000,0.28001,207.952,0.143516
271.3000,1.02512,207.224,0.133079
271.2000,-0.0324616,208.774,0.155284
271.1000,0.594729,208.161,0.146519
271.0000,0.0994016,208.446,0.150588
270.9000,0.210566,208.291,0.148367
270.8000,-0.61623,208.052,0.144945
270.7000,0.146051,207.39,0.135455
270.6000,3.24438,208.164,0.146551
270.5000,-0.380607,208.55,0.152078
270.4000,1.24833,208.397,0.149891
270.3000,1.90437,207.667,0.139439
270.2000,-0.71773,207.654,0.139244
270.1000,1.0707,207.894,0.142688
270.0000,0.354819,208.123,0.145967
269.9000,-0.383612,208.01,0.144344
269.8000,1.34682,207.723,0.140236
269.7000,1.80641,208.325,0.148854
269.6000,-0.0256817,207.796,0.141275
269.5000,0.271128,208.963,0.157969
269.4000,0.716172,208.398,0.149907
269.3000,1.30046,208.951,0.157807
269.2000,0.612449,208.598,0.152758
269.1000,-0.12968,208.304,0.148562
269.0000,0.659468,208.43,0.150361
268.9000,1.79939,208.465,0.150863
268.8000,-0.138166,207.975,0.143841
268.7000,0.573276,208.156,0.146437
268.6000,-1.81441,208.706,0.154313
268.5000,0.692249,208.549,0.152062
268.4000,0.798279,208.28,0.148221
268.3000,-0.472691,208.813,0.155834
268.2000,0.230049,207.918,0.143029
268.1000,1.64705,208.616,0.153017
268.0000,0.211894,207.411,0.135764
267.9000,2.15563,208.723,0.154555
267.8000,0.258735,208.593,0.152694
267.7000,0.847936,208.963,0.157969
267.6000,2.80388,207.998,0.144182
267.5000,0.120169,208.607,0.152888
267.4000,1.04953,208.801,0.155656
267.3000,-2.03434,208.601,0.152807
267.2000,-0.766223,208.767,0.15517
267.1000,1.0343,209.061,0.159376
267.0000,0.219917,209.381,0.163931
266.9000,-0.283861,208.941,0.157662
266.8000,0.463423,207.918,0.143029
266.7000,0.363115,208.7,0.154215
266.6000,0.440725,209.411,0.164367
266.5000,1.28368,208.488,0.151187
266.4000,-0.734924,209.331,0.16322
266.3000,0.188591,208.619,0.153066
266.2000,1.85962,209.165,0.160862
266.1000,-0.155522,209.106,0.160022
266.0000,-0.565642,209.174,0.160992
265.9000,-0.236899,208.795,0.155575
265.8000,0.441749,209.349,0.163479
265.7000,1.23084,209.353,0.163543
265.6000,0.142635,209.743,0.169093
265.5000,-1.3178,209.075,0.159569
265.4000,1.14092,209.401,0.164221
265.3000,1.31521,209.553,0.166384
265.2000,1.02736,208.994,0.158422
265.1000,-1.00495,209.187,0.161169
265.0000,0.569451,209.421,0.164512
264.9000,-1.37523,209.173,0.160975
264.8000,0.306573,209.251,0.16209
264.7000,0.381257,209.1,0.159925
264.6000,-0.200138,208.942,0.157678
264.5000,-0.552623,209.058,0.159327
264.4000,1.18302,209.293,0.162688
264.3000,-0.194345,208.529,0.151771
264.2000,0.55909,209.416,0.164431
264.1000,0.983541,209.883,0.171075
264.0000,-1.37639,209.769,0.169464
263.9000,0.214466,209.688,0.168303
263.8000,-0.334668,209.261,0.162219
263.7000,-0.558317,209.767,0.169431
263.6000,0.539707,210.474,0.179476
263.5000,0.51137,209.324,0.163123
263.4000,-1.25009,209.722,0.168787
263.3000,-0.563445,209.956,0.172123
263.2000,1.20317,209.248,0.162042
263.1000,-0.639393,209.658,0.167884
263.0000,0.322471,209.225,0.161719
262.9000,-2.10457,210.087,0.173974
262.8000,-0.11232,209.432,0.164657
262.7000,-0.814298,210.185,0.175375
262.6000,1.44957,210.167,0.175117
262.5000,1.51361,210.144,0.174795
262.4000,0.847561,210.056,0.173539
262.3000,-1.98055,209.258,0.162187
262.2000,-0.184901,210.105,0.174232
262.1000,0.484681,210.091,0.174039
262.0000,1.21258,209.554,0.1664
261.9000,0.441026,210.277,0.176678
261.8000,0.627108,210.87,0.185082
261.7000,-0.377361,209.816,0.170125
261.6000,0.168257,209.019,0.158777
261.5000,0.51035,209.811,0.17006
261.4000,0.868576,210.121,0.174457
261.3000,-2.52948,209.956,0.172123
261.2000,1.8407,210.198,0.175552
261.1000,1.17931,210.024,0.173089
261.0000,1.32718,209.921,0.171623
260.9000,0.619679,210.798,0.18407
260.8000,-0.653854,210.56,0.180697
260.7000,2.44271,211.083,0.188098
260.6000,-1.40435,208.754,0.154993
260.5000,0.274197,210.556,0.180633
260.4000,-0.00514089,209.603,0.167093
260.3000,0.0491442,209.793,0.169802
260.2000,-0.574203,210.438,0.178962
260.1000,-0.564788,211.015,0.187136
260.0000,1.32568,210.788,0.183926
259.9000,1.40279,210.252,0.176324
259.8000,-0.12059,210.532,0.180296
259.7000,0.919861,209.627,0.167432
259.6000,-1.17862,210.991,0.186798
259.5000,-0.690849,210.252,0.176324
259.4000,1.07377,210.966,0.186446
259.3000,1.38542,210.635,0.181758
259.2000,-0.0845926,210.611,0.18142
259.1000,1.19249,210.966,0.186446
259.0000,0.205158,210.204,0.175648
258.9000,-1.50714,210.924,0.185852
258.8000,1.59814,211.234,0.190246
258.7000,1.27261,210.754,0.183444
258.6000,0.839767,211.24,0.190326
258.5000,0.630354,211.121,0.188643
258.4000,1.1792,210.569,0.180826
258.3000,2.05429,211.143,0.188948
258.2000,-0.704456,211.433,0.193049
258.1000,-0.494855,211.567,0.194955
258.0000,0.162188,210.662,0.182143
257.9000,-0.908729,210.371,0.178013
257.8000,0.181328,209.905,0.171398
257.7000,1.02877,211.648,0.196091
257.6000,0.49001,211.08,0.188066
257.5000,1.63284,212.293,0.205184
257.4000,-0.131001,211.892,0.19953
257.3000,0.79473,211.974,0.200696
257.2000,0.491624,211.16,0.189188
257.1000,-0.472287,212.942,0.214319
257.0000,-0.390336,211.538,0.194539
256.9000,0.0665326,211.365,0.192088
256.8000,-0.0560894,211.452,0.193322
256.7000,0.621704,211.473,0.193626
256.6000,1.17866,211.676,0.196491
256.5000,-1.45202,211.634,0.195899
256.4000,1.97681,211.604,0.195467
256.3000,0.533818,211.572,0.195019
256.2000,1.76146,211.456,0.193386
256.1000,0.523265,211.648,0.196091
256.0000,-0.89547,211.469,0.193562
255.9000,0.0860749,211.172,0.189364
255.8000,-1.40078,211.302,0.191207
255.7000,1.97545,211.953,0.200393
255.6000,-0.164676,211.916,0.199881
255.5000,0.574765,211.733,0.197291
255.4000,1.04141,211.47,0.193578
255.3000,-0.188751,210.944,0.186141
255.2000,-0.589768,211.331,0.191608
255.1000,-0.583552,212.146,0.203125
255.0000,0.651432,211.961,0.200505
254.9000,0.202375,211.709,0.196955
254.8000,1.85152,211.82,0.198523
254.7000,0.172017,211.758,0.197643
254.6000,-0.44529,212.08,0.202183
254.5000,-0.572482,212.417,0.20694
254.4000,0.617707,211.972,0.200665
254.3000,0.953861,211.856,0.199034
254.2000,1.3343,211.967,0.200601
254.1000,-1.5677,212.596,0.209459
254.0000,0.371007,211.513,0.194187
253.9000,1.32959,212.561,0.208965
253.8000,0.45496,211.773,0.197851
253.7000,-0.919143,212.439,0.207243
253.6000,-1.28426,211.552,0.194731
253.5000,0.8527,212.39,0.206557
253.4000,0.366982,212.982,0.214876
253.3000,1.46042,212.108,0.202582
253.2000,0.406081,212.237,0.204402
253.1000,0.189226,212.771,0.211914
253.0000,-0.27828,211.655,0.196187
252.9000,1.45395,212.495,0.20804
252.8000,1.34992,211.587,0.195227
252.7000,1.09728,212.14,0.203029
252.6000,-2.51836,212.489,0.207945
252.5000,-0.098193,212.703,0.210958
252.4000,1.22192,212.938,0.214271
252.3000,1.33788,212.712,0.211085
252.2000,2.12145,213.076,0.216197
252.1000,-0.313515,213.244,0.218567
252.0000,0.513591,213.329,0.219759
251.9000,-0.0215327,213.377,0.220427
251.8000,1.61564,213.864,0.227255
251.7000,1.4519,212.722,0.211229
251.6000,-1.75592,212.247,0.204546
251.5000,0.854969,213.459,0.221571
251.4000,-0.119842,212.739,0.211468
251.3000,1.26339,213.298,0.219314
251.2000,-0.14813,212.772,0.21193
251.1000,0.584322,212.263,0.204769
251.0000,-0.0976658,213.133,0.217008
250.9000,-0.240364,213.493,0.222048
250.8000,-1.93653,213.166,0.217469
250.7000,-0.246894,212.464,0.207594
250.6000,0.415634,212.792,0.212216
250.5000,2.23748,213.567,0.223096
250.4000,-0.261848,214.408,0.234862
250.3000,0.325923,213.933,0.228223
250.2000,1.77339,213.82,0.226637
250.1000,-0.415417,213.201,0.217963
250.0000,-0.1537,213.353,0.220093
249.9000,0.732963,213.704,0.225018
249.8000,-0.731776,214.079,0.230268
249.7000,0.820958,213.213,0.218122
249.6000,0.598442,214.144,0.231172
249.5000,0.330677,213.842,0.226938
249.4000,0.624681,213.43,0.221174
249.3000,1.80661,214.759,0.239767
249.2000,-0.00255143,212.945,0.214366
249.1000,-1.32396,213.579,0.223255
249.0000,0.801013,213.887,0.227573
248.9000,-0.507485,214.833,0.240794
248.8000,-1.02293,213.889,0.227604
248.7000,-0.670797,213.499,0.222143
248.6000,0.281715,214.357,0.23415
248.5000,0.64679,214.327,0.233722
248.4000,0.297156,213.683,0.224716
248.3000,-0.589762,213.517,0.222397
248.2000,-0.842591,213.579,0.223255
248.1000,-0.495398,213.954,0.228508
248.0000,-0.89739,214.299,0.233342
247.9000,-1.34834,214.052,0.229888
247.8000,-0.870977,214.227,0.232328
247.7000,-2.98298,214.085,0.230348
247.6000,-0.751694,214.445,0.235385
247.5000,-0.167108,214.008,0.22927
247.4000,-0.308689,214.331,0.233786
247.3000,-1.23441,214.138,0.231092
247.2000,-0.665095,213.88,0.227477
247.1000,-2.20816,214.434,0.235226
247.0000,-2.03774,214.669,0.238502
246.9000,0.838599,214.563,0.237031
246.8000,-2.02463,215.514,0.250281
246.7000,-2.67182,215.08,0.244238
246.6000,-0.166908,214.745,0.239561
246.5000,-0.584611,214.617,0.237774
246.4000,-0.225728,215.609,0.251605
246.3000,-1.31818,214.87,0.241316
246.2000,-0.675847,215.128,0.244901
246.1000,-1.394,214.891,0.2416
246.0000,-1.94233,215.207,0.246006
245.9000,-0.470173,215.423,0.24902
245.8000,-2.60121,214.658,0.238359
245.7000,-2.13327,215.109,0.244649
245.6000,-2.26374,214.802,0.240367
245.5000,-2.47043,215.108,0.244633
245.4000,-2.74042,214.027,0.229539
245.3000,1.44222,214.808,0.240446
245.2000,-1.18199,215.72,0.253149
245.1000,-2.08188,215.313,0.247489
245.0000,-2.11287,214.883,0.241489
244.9000,-1.65586,216.85,0.26882
244.8000,-1.95919,215.626,0.251841
244.7000,-3.95727,215.915,0.255857
244.6000,-0.224042,216.22,0.260089
244.5000,-1.22692,216.044,0.257651
244.4000,-1.75043,215.699,0.25285
244.3000,-1.69027,215.163,0.245391
244.2000,-3.376,216.795,0.268067
244.1000,-3.31898,215.313,0.247489
244.0000,-2.53891,216.669,0.26631
243.9000,-2.43855,216.332,0.261645
243.8000,-3.93776,216.032,0.257478
243.7000,-5.15414,216.179,0.259523
243.6000,-2.37862,216.286,0.261001
243.5000,-1.57434,216.4,0.262588
243.4000,-2.27752,216.579,0.265069
243.3000,-2.22522,216.444,0.263201
243.2000,-2.49806,215.939,0.256188
243.1000,-3.89603,216.695,0.26667
243.0000,-2.81574,216.206,0.2599
242.9000,-3.47191,217.151,0.27299
242.8000,-4.89457,217.105,0.272347
242.7000,-1.74163,216.876,0.269181
242.6000,-4.59282,217.821,0.282237
242.5000,-4.95729,217.507,0.277906
242.4000,-2.97984,216.39,0.262446
242.3000,-6.04104,217.444,0.277029
242.2000,-5.14069,218.322,0.289137
242.1000,-2.94367,218.353,0.289574
242.0000,-5.65315,217.68,0.280298
241.9000,-3.50372,218.085,0.285876
241.8000,-5.77404,217.938,0.283846
241.7000,-6.1122,217.97,0.284299
241.6000,-5.02804,218.557,0.29238
241.5000,-3.03641,218.317,0.289075
241.4000,-6.85069,217.925,0.283674
241.3000,-5.95142,218.136,0.286578
241.2000,-5.99988,217.253,0.274399
241.1000,-4.63267,218.239,0.287998
241.0000,-5.96095,218.672,0.293953
240.9000,-8.44545,218.504,0.291648
240.8000,-7.26777,218.453,0.290946
240.7000,-5.77991,218.935,0.297566
240.6000,-4.9135,218.196,0.287405
240.5000,-5.76646,218.505,0.291663
240.4000,-5.92189,219.154,0.300583
240.3000,-5.55804,219.351,0.303272
240.2000,-8.68395,219.111,0.299992
240.1000,-8.5018,220.043,0.312753
240.0000,-8.0454,220.035,0.312644
239.9000,-8.54696,219.498,0.305291
239.8000,-9.20498,219.326,0.30293
239.7000,-9.42824,219.635,0.30717
239.6000,-8.16864,219.908,0.310908
239.5000,-8.53397,219.463,0.30481
239.4000,-7.05821,219.906,0.310877
239.3000,-9.68128,220.753,0.322456
239.2000,-7.62491,221.278,0.329605
239.1000,-8.91495,220.42,0.31791
239.0000,-9.60687,220.516,0.319225
238.9000,-10.4184,220.843,0.323677
238.8000,-10.2698,221.32,0.330176
238.7000,-11.5369,221.563,0.33349
238.6000,-8.88645,221.526,0.332982
238.5000,-8.79289,221.892,0.337956
238.4000,-9.32113,220.844,0.323693
238.3000,-10.8213,221.9,0.338064
238.2000,-10.2946,222.191,0.342017
238.1000,-11.7988,222.085,0.340572
238.0000,-12.2076,222.35,0.344168
237.9000,-10.1448,223.674,0.362085
237.8000,-13.3842,223.678,0.362131
237.7000,-11.6728,223.28,0.356761
237.6000,-13.8128,224.292,0.370408
237.5000,-13.7139,224.836,0.377722
237.4000,-14.9284,224.394,0.37178
237.3000,-13.2627,223.772,0.363399
237.2000,-15.9289,224.864,0.378103
237.1000,-16.5804,223.576,0.360754
237.0000,-14.6538,224.101,0.367844
236.9000,-14.1443,225.019,0.380188
236.8000,-13.5295,223.596,0.36103
236.7000,-16.2573,224.01,0.366607
236.6000,-17.9994,223.973,0.366119
236.5000,-16.9664,226.001,0.393339
236.4000,-15.8738,225.701,0.389335
236.3000,-18.6497,226.033,0.393779
236.2000,-16.8574,225.716,0.389532
236.1000,-18.5075,226.369,0.398262
236.0000,-18.93,226.072,0.394294
235.9000,-16.2103,225.184,0.382393
235.8000,-19.1138,226.312,0.397505
235.7000,-21.497,226.306,0.39743
235.6000,-18.9139,227.412,0.412178
235.5000,-21.2401,225.781,0.390397
235.4000,-19.711,226.547,0.400638
235.3000,-21.2598,227.558,0.414124
235.2000,-22.0552,227.13,0.408421
235.1000,-19.6999,227.79,0.417197
235.0000,-21.2621,226.983,0.406458
234.9000,-21.8852,227.209,0.409478
234.8000,-20.9676,228.872,0.431552
234.7000,-21.6411,228.188,0.422495
234.6000,-21.0242,228.424,0.425621
234.5000,-25.6568,228.525,0.426958
234.4000,-25.111,228.971,0.432872
234.3000,-23.3858,229.762,0.443324
234.2000,-25.4779,229.316,0.437428
234.1000,-22.6143,229.454,0.439255
234.0000,-24.552,229.203,0.43593
233.9000,-25.4734,230.24,0.449629
233.8000,-29.3602,230.289,0.450271
233.7000,-26.6201,230.024,0.446777
233.6000,-26.3036,230.915,0.458501
233.5000,-26.96,230.656,0.455104
233.4000,-28.4034,231.388,0.464721
233.3000,-27.6062,231.293,0.463472
233.2000,-24.5058,231.649,0.468138
233.1000,-26.7588,232.082,0.473808
233.0000,-28.5195,232.121,0.474327
232.9000,-29.7861,232.109,0.474164
232.8000,-28.3465,230.733,0.456117
232.7000,-31.347,233.094,0.487028
232.6000,-30.5819,233.457,0.491768
232.5000,-30.1918,233.474,0.491989
232.4000,-30.6979,233.368,0.490602
232.3000,-29.1492,232.945,0.485091
232.2000,-33.2813,233.888,0.497372
232.1000,-32.0551,234.346,0.50332
232.0000,-31.2838,234.331,0.503129
231.9000,-33.7402,234.93,0.510904
231.8000,-33.7935,234.455,0.504747
231.7000,-33.2909,234.376,0.503717
231.6000,-35.6394,235.294,0.515613
231.5000,-36.3056,235.371,0.51661
231.4000,-35.4188,235.368,0.516566
231.3000,-33.8687,235.707,0.520961
231.2000,-36.5465,235.39,0.516859
231.1000,-37.2941,235.945,0.524035
231.0000,-36.7231,237.085,0.538723
230.9000,-36.1819,235.545,0.518867
230.8000,-34.4134,237.702,0.546641
230.7000,-37.3686,236.532,0.531605
230.6000,-40.2342,237.582,0.545099
230.5000,-37.4949,237.568,0.544925
230.4000,-39.8268,237.448,0.543382
230.3000,-40.9221,237.28,0.541228
230.2000,-40.4224,237.244,0.540762
230.1000,-41.4095,238.854,0.561399
230.0000,-41.0664,237.986,0.550288
229.9000,-40.6312,237.937,0.549664
229.8000,-40.7493,238.321,0.554586
229.7000,-40.7461,239.254,0.566507
229.6000,-44.437,240.359,0.580581
229.5000,-41.7798,239.087,0.564381
229.4000,-41.2641,239.861,0.57425
229.3000,-40.4733,239.874,0.574409
229.2000,-42.4492,240.584,0.583446
229.1000,-44.2627,239.804,0.573514
229.0000,-43.9295,240.624,0.58395
228.9000,-40.3321,241.475,0.594744
228.8000,-44.4792,241.516,0.595261
228.7000,-48.0273,240.678,0.584641
228.6000,-45.9365,242.452,0.607095
228.5000,-50.2573,241.292,0.592433
228.4000,-48.5824,242.453,0.607109
228.3000,-44.9049,241.861,0.599635
228.2000,-47.3238,242.876,0.612455
228.1000,-46.6887,242.649,0.609583
228.0000,-47.9483,244.19,0.628972
227.9000,-48.0708,242.941,0.613269
227.8000,-51.8768,244.754,0.636047
227.7000,-52.6834,244.008,0.626696
227.6000,-51.6306,245.905,0.650439
227.5000,-47.0316,244.219,0.629342
227.4000,-50.8955,245.331,0.643264
227.3000,-50.541,246.452,0.657261
227.2000,-53.1702,245.667,0.647469
227.1000,-53.32,245.613,0.64679
227.0000,-51.8705,245.669,0.647497
226.9000,-51.4311,246.135,0.653308
226.8000,-54.2569,246.088,0.652714
226.7000,-51.8233,245.919,0.650608
226.6000,-52.6149,247.447,0.66963
226.5000,-53.8777,247.236,0.667013
226.4000,-55.1576,246.783,0.661379
226.3000,-54.5873,247.943,0.675785
226.2000,-53.9823,246.408,0.65671
226.1000,-56.1649,247.357,0.668505
226.0000,-53.549,248.082,0.677498
225.9000,-56.3359,247.216,0.66676
225.8000,-53.4969,248.695,0.685083
225.7000,-56.339,246.856,0.662281
225.6000,-54.5177,249.048,0.68945
225.5000,-56.8891,249.795,0.698658
225.4000,-56.646,249.048,0.68945
225.3000,-56.4717,249.777,0.698435
225.2000,-58.947,250.732,0.710181
225.1000,-56.9229,250.753,0.710445
225.0000,-55.3538,250.337,0.705323
224.9000,-56.2982,250.726,0.710112
224.8000,-60.8754,251.167,0.715519
224.7000,-58.4956,251.611,0.720961
224.6000,-60.1018,251.318,0.717367
224.5000,-57.904,253.254,0.741021
224.4000,-59.7073,251.491,0.71949
224.3000,-60.8312,252.573,0.732719
224.2000,-59.2178,252.8,0.735484
224.1000,-59.1415,252.844,0.736023
224.0000,-60.7006,252.434,0.731018
223.9000,-60.3574,253.789,0.747527
223.8000,-63.8344,253.587,0.745075
223.7000,-56.8703,253.842,0.748174
223.6000,-56.0838,253.071,0.738785
223.5000,-61.8261,254.07,0.750941
223.4000,-59.7882,254.438,0.755411
223.3000,-56.2647,254.711,0.758722
223.2000,-59.0203,255.233,0.765033
223.1000,-59.924,254.689,0.758447
223.0000,-60.0847,255.327,0.76617
222.9000,-65.6277,256.362,0.778675
222.8000,-59.2917,256.082,0.7753
222.7000,-62.9356,256.354,0.778579
222.6000,-57.5481,257.188,0.788618
222.5000,-59.2629,257.06,0.787079
222.4000,-61.743,256.303,0.777965
222.3000,-62.1717,257.622,0.793832
222.2000,-60.039,257.491,0.792254
222.1000,-60.6131,257.784,0.795777
222.0000,-60.3589,258.252,0.801388
221.9000,-58.9711,258.052,0.798984
221.8000,-60.8047,258.859,0.808657
221.7000,-57.3459,258.811,0.808074
221.6000,-60.3775,259.196,0.812679
221.5000,-61.2892,260.011,0.822397
221.4000,-60.825,258.968,0.809957
221.3000,-63.2027,260.042,0.822775
221.2000,-61.7887,260.064,0.823031
221.1000,-58.9225,260.433,0.827429
221.0000,-62.4924,259.807,0.819966
220.9000,-65.5614,260.574,0.8291
220.8000,-62.5261,261.377,0.838642
220.7000,-61.9943,262.38,0.850518
220.6000,-61.121,261.77,0.843303
220.5000,-62.5419,262.17,0.848038
220.4000,-60.7368,261.923,0.845115
220.3000,-61.2363,262.957,0.857331
220.2000,-62.5524,262.399,0.850746
220.1000,-61.1805,263.613,0.865066
220.0000,-60.1502,263.172,0.859871
219.9000,-59.393,263.314,0.861541
219.8000,-59.2118,264.38,0.874091
219.7000,-62.5098,264.832,0.879399
219.6000,-60.5541,265.142,0.88304
219.5000,-59.2671,265.205,0.883771
219.4000,-63.1004,265.449,0.886638
219.3000,-58.2436,264.842,0.879519
219.2000,-62.1033,266.023,0.893346
219.1000,-57.602,265.823,0.891014
219.0000,-62.0702,265.905,0.891968
218.9000,-60.4464,266.542,0.899408
218.8000,-58.8558,266.905,0.90365
218.7000,-63.5866,267.045,0.905275
218.6000,-60.5934,267.435,0.909814
218.5000,-61.116,268.251,0.91931
218.4000,-60.494,268.557,0.92286
218.3000,-60.0741,267.925,0.91552
218.2000,-62.3844,269.312,0.931602
218.1000,-62.154,268.408,0.921125
218.0000,-59.2379,267.947,0.91577
217.9000,-60.5489,269.558,0.934446
217.8000,-60.8659,270.805,0.948843
217.7000,-61.3008,269.874,0.9381
217.6000,-58.1088,270.025,0.93984
217.5000,-61.7168,271.464,0.956418
217.4000,-62.64,271.365,0.955285
217.3000,-58.2742,271.577,0.95772
217.2000,-57.2425,271.782,0.960076
217.1000,-63.2239,271.175,0.953095
217.0000,-62.2616,272.499,0.968304
216.9000,-62.1213,273.249,0.976889
216.8000,-62.2506,273.577,0.980631
216.7000,-60.6992,273.39,0.978495
216.6000,-61.3459,273.781,0.98296
216.5000,-58.9278,274.463,0.990737
216.4000,-58.5152,274.006,0.985532
216.3000,-61.6441,274.573,0.991989
216.2000,-60.5128,274.931,0.996064
216.1000,-56.8388,275.287,1.00011
216.0000,-56.9585,275.791,1.00583
215.9000,-61.6958,275.627,1.00397
215.8000,-60.7707,276.83,1.0176
215.7000,-63.1017,276.419,1.01295
215.6000,-62.7673,276.301,1.01161
215.5000,-56.7561,276.965,1.01913
215.4000,-62.5804,277.624,1.02658
215.3000,-59.6906,277.676,1.02716
215.2000,-62.5269,277.859,1.02922
215.1000,-64.4039,278.69,1.03859
215.0000,-61.4975,278.236,1.03347
214.9000,-58.0423,280.763,1.06182
214.8000,-59.7095,280.081,1.05419
214.7000,-58.1437,279.869,1.05182
214.6000,-61.6499,280.553,1.05948
214.5000,-59.9585,281.032,1.06484
214.4000,-58.0999,281.078,1.06534
214.3000,-58.8873,281.087,1.06544
214.2000,-60.2729,281.095,1.06553
214.1000,-62.8245,281.795,1.07334
214.0000,-61.2875,282.28,1.07874
213.9000,-61.531,282.664,1.08301
213.8000,-61.904,282.961,1.08631
213.7000,-61.3667,282.495,1.08114
213.6000,-59.8206,284.061,1.09851
213.5000,-60.9473,283.793,1.09554
213.4000,-60.2978,283.578,1.09316
213.3000,-61.3201,284.497,1.10334
213.2000,-57.2985,285.459,1.11396
213.1000,-59.7321,285.805,1.11777
213.0000,-62.5819,286.166,1.12174
212.9000,-62.4942,286.622,1.12675
212.8000,-60.5001,285.969,1.11958
212.7000,-60.4025,287.264,1.13381
212.6000,-58.3635,287.233,1.13346
212.5000,-64.9738,287.265,1.13382
212.4000,-60.9839,288.592,1.14834
212.3000,-63.9922,288.246,1.14455
212.2000,-65.8243,289.53,1.15858
212.1000,-58.9161,290.108,1.16487
212.0000,-63.9003,290.822,1.17262
211.9000,-60.4275,291.074,1.17535
211.8000,-60.2167,291.006,1.17462
211.7000,-56.4807,291.286,1.17765
211.6000,-61.011,291.514,1.18013
211.5000,-68.6642,292.731,1.19329
211.4000,-65.6363,292.878,1.19487
211.3000,-67.6947,292.846,1.19453
211.2000,-62.2885,294.346,1.21068
211.1000,-63.5468,294.202,1.20914
211.0000,-69.2687,295.424,1.22225
210.9000,-62.9291,296.233,1.23091
210.8000,-62.6291,296.443,1.23316
210.7000,-59.997,296.853,1.23754
210.6000,-64.665,297.163,1.24084
210.5000,-65.3636,298.708,1.25728
210.4000,-63.185,298.281,1.25274
210.3000,-66.6466,298.932,1.25965
210.2000,-60.5645,299.013,1.26051
210.1000,-64.3137,300.163,1.27269
210.0000,-62.6194,300.282,1.27395
209.9000,-63.8953,301.473,1.28652
209.8000,-65.3359,302.224,1.29442
209.7000,-63.1568,302.94,1.30194
209.6000,-64.2169,303.481,1.30761
209.5000,-67.7173,304.958,1.32306
209.4000,-61.9828,304.535,1.31863
209.3000,-64.3959,305.543,1.32915
209.2000,-64.4457,306.085,1.33479
209.1000,-68.5274,306.396,1.33803
209.0000,-65.7581,306.957,1.34386
208.9000,-60.6608,307.543,1.34993
208.8000,-66.7354,308.409,1.35889
208.7000,-63.3679,309.001,1.36501
208.6000,-68.1542,309.131,1.36636
208.5000,-62.3763,310.575,1.38122
208.4000,-67.0806,311.044,1.38604
208.3000,-66.2332,312.788,1.40389
208.2000,-61.0305,312.984,1.40589
208.1000,-70.3834,313.925,1.4155
208.0000,-67.52,314.699,1.42337
207.9000,-61.3401,315.917,1.43573
207.8000,-62.9562,316.993,1.44661
207.7000,-62.1661,317.193,1.44864
207.6000,-57.5822,318.012,1.4569
207.5000,-64.2597,318.813,1.46496
207.4000,-65.8416,319.784,1.47471
207.3000,-66.1775,320.369,1.48057
207.2000,-61.6486,320.787,1.48476
207.1000,-54.0517,322.621,1.50305
207.0000,-63.5841,323.876,1.51553
206.9000,-56.7203,324.147,1.51822
206.8000,-54.1087,325.449,1.5311
206.7000,-60.8994,325.863,1.5352
206.6000,-56.3482,326.412,1.54061
206.5000,-58.0715,328.076,1.55698
206.4000,-56.358,328.702,1.56312
206.3000,-55.9245,329.918,1.57502
206.2000,-57.8175,331.306,1.58856
206.1000,-55.1091,331.832,1.59368
206.0000,-53.0452,333.245,1.6074
205.9000,-53.2739,333.329,1.60821
205.8000,-52.269,334.561,1.62012
205.7000,-50.5554,335.987,1.63388
205.6000,-48.6716,337.316,1.64664
205.5000,-52.8076,338.125,1.6544
205.4000,-41.2795,339.368,1.66628
205.3000,-41.4144,340.294,1.6751
205.2000,-43.6368,342.393,1.69503
205.1000,-41.3482,343.009,1.70086
205.0000,-43.9272,344.734,1.71714
204.9000,-46.6678,346.303,1.73189
204.8000,-43.6583,346.768,1.73626
204.7000,-44.6997,348.024,1.74801
204.6000,-43.9325,349.378,1.76064
204.5000,-33.9851,350.417,1.7703
204.4000,-37.5695,352.273,1.78751
204.3000,-38.8382,353.524,1.79906
204.2000,-32.0787,354.833,1.81111
204.1000,-39.5709,356.328,1.82484
204.0000,-20.9384,357.076,1.83168
203.9000,-32.4539,359.672,1.85535
203.8000,-39.8628,359.846,1.85693
203.7000,-33.6548,361.902,1.87557
203.6000,-39.5828,363.11,1.88647
203.5000,-15.6646,364.798,1.90167
203.4000,-29.2066,366.154,1.91383
203.3000,-28.2151,367.014,1.92152
203.2000,-17.9921,369.06,1.93977
203.1000,-11.2971,370.094,1.94895
203.0000,-20.7801,372.887,1.97366
202.9000,-17.2158,373.529,1.97932
202.8000,-6.36973,375.537,1.99696
202.7000,-20.593,375.454,1.99624
202.6000,-11.3369,378.299,2.0211
202.5000,-16.2293,379.856,2.03464
202.4000,-14.4658,381.522,2.04908
202.3000,0.566212,383.147,2.06311
202.2000,-2.99191,384.646,2.07601
202.1000,-3.97064,386.731,2.09388
202.0000,-7.55895,389.434,2.11694
201.9000,-3.05428,391.355,2.13323
201.8000,-9.03232,392.935,2.1466
201.7000,0.98614,394.805,2.16234
201.6000,-15.6159,396.456,2.1762
201.5000,-3.76127,398.382,2.1923
201.4000,3.37501,400.077,2.20641
201.3000,8.72079,401.57,2.21881
201.2000,10.9804,403.91,2.23815
201.1000,8.9899,405.608,2.25212
201.0000,3.90389,407.698,2.26926
200.9000,3.80327,409.606,2.28484
200.8000,16.6898,410.589,2.29284
200.7000,-1.93096,412.96,2.31208
200.6000,16.9301,415.114,2.32947
200.5000,14.0909,417.601,2.34947
200.4000,13.437,420.232,2.3705
200.3000,17.9067,421.464,2.38032
200.2000,14.6762,423.932,2.3999
200.1000,30.271,426.744,2.4221
200.0000,9.36168,428.986,2.43972
199.9000,20.8241,431.083,2.45612
199.8000,16.5727,433.032,2.47131
199.7000,27.7298,436.025,2.49451
199.6000,15.5981,437.143,2.50315
199.5000,32.5312,439.503,2.52132
199.4000,29.538,440.83,2.53149
199.3000,25.1614,444.166,2.55696
199.2000,34.7723,445.641,2.56818
199.1000,29.113,447.908,2.58535
199.0000,40.0771,450.721,2.60655
198.9000,24.2852,452.463,2.61963
198.8000,32.7357,456.23,2.64776
198.7000,27.2216,458.421,2.66403
198.6000,24.5236,460.882,2.68223
198.5000,37.8503,462.851,2.69673
198.4000,35.5751,466.124,2.72072
198.3000,24.574,468.017,2.73453
198.2000,35.8373,470.101,2.74968
198.1000,27.5768,472.398,2.76631
198.0000,31.3435,475.17,2.78629
197.9000,41.516,477.963,2.80632
197.8000,44.1299,479.795,2.81941
197.7000,27.2678,482.277,2.83707
197.6000,21.1448,484.935,2.8559
197.5000,40.0461,487.475,2.87382
197.4000,34.9299,489.244,2.88624
197.3000,36.8774,492.432,2.90855
197.2000,45.7273,495.784,2.93186
197.1000,38.0427,497.23,2.94188
197.0000,34.8657,500.978,2.96773
196.9000,37.8785,504.03,2.98867
196.8000,22.1477,506.398,3.00483
196.7000,44.4679,509.061,3.02293
196.6000,31.9837,511.543,3.03973
196.5000,30.414,515.147,3.06401
196.4000,32.7116,516.825,3.07526
196.3000,34.7699,520.419,3.09926
196.2000,41.528,523.015,3.1165
196.1000,28.551,525.943,3.13587
196.0000,40.4047,529.264,3.15772
195.9000,31.5199,531.274,3.17089
195.8000,35.6913,534.637,3.19283
195.7000,40.1388,537.706,3.21276
195.6000,30.3675,539.229,3.22261
195.5000,19.6611,541.799,3.23918
195.4000,38.6723,544.113,3.25403
195.3000,17.9211,546.852,3.27156
195.2000,27.8153,548.937,3.28485
195.1000,36.9108,550.508,3.29483
195.0000,34.2403,553.421,3.31328
194.9000,34.0902,555.8,3.32829
194.8000,33.7385,557.64,3.33986
194.7000,35.8847,560.156,3.35562
194.6000,39.4028,561.79,3.36583
194.5000,14.135,565.07,3.38624
194.4000,19.3625,567.619,3.40204
194.3000,37.7822,569.372,3.41287
194.2000,37.1383,571.834,3.42803
194.1000,31.7664,574.925,3.44698
194.0000,38.0561,577.474,3.46254
193.9000,30.6769,580.523,3.48109
193.8000,21.9015,583.748,3.50061
193.7000,35.2383,585.786,3.5129
193.6000,21.3103,587.959,3.52596
193.5000,21.8787,590.267,3.53979
193.4000,27.8219,591.909,3.5496
193.3000,21.6102,593.047,3.5564
193.2000,35.5199,595.668,3.57198
193.1000,23.7728,597.444,3.58251
193.0000,16.6694,600.095,3.59818
192.9000,19.6063,602.066,3.60979
192.8000,28.3439,604.479,3.62396
192.7000,11.7433,607.154,3.63961
192.6000,16.1856,609.562,3.65365
192.5000,24.4379,611.58,3.66538
192.4000,20.9504,615.829,3.68998
192.3000,39.162,618.193,3.70359
192.2000,13.3748,620.121,3.71467
192.1000,16.1953,621.744,3.72397
192.0000,33.1365,623.632,3.73477
191.9000,24.0064,626.55,3.75139
191.8000,23.0919,628.697,3.76358
191.7000,23.1524,630.54,3.77401
191.6000,22.2838,633.079,3.78835
191.5000,27.8419,634.924,3.79874
191.4000,12.5014,637.595,3.81373
191.3000,16.3534,640.285,3.82877
191.2000,13.6747,643.129,3.84462
191.1000,18.929,646.294,3.86218
191.0000,42.0647,649.812,3.88162
190.9000,3.48898,653.072,3.89955
190.8000,27.2535,656.512,3.91839
190.7000,29.9914,660.209,3.93855
190.6000,4.52636,662.51,3.95104
190.5000,21.4554,665.639,3.96797
190.4000,4.73437,668.191,3.98174
190.3000,19.3129,671.792,4.00108
190.2000,12.8801,673.996,4.01287
190.1000,11.976,675.865,4.02284
190.0000,8.96616,679.115,4.04013

##### Extended Information
[Comments]
Sample name,CC.SJ.9_28_22_PHOSPHATEBUFFER_PROTEIN
Comment,TEST 1 TUBE 1
User,CARYN CARHART
Division
Company,Saint Mary's College

[Detailed Information]
Creation date,9/28/2022 2:11 PM

Data array type,Linear data array * 3
Horizontal axis,Wavelength [nm]
Vertical axis(1),CD [mdeg]
Vertical axis(2),HT [V]
Vertical axis(3),Abs
Start,320 nm
End,190 nm
Data interval,0.1 nm
Data points,1301    

[Measurement Information]
Instrument name,J-1500
Model name,J-1500
Serial No.,B051061638

Detector,PM-539
Detector S/N,B051061638
  Lock-in amp.,X mode
  HT volt,Auto

Accessory,PTC-517
Accessory S/N,B026561646
  Temperature,26.42 C
  Control sensor,Holder
  Monitor sensor,Holder

Measurement date,9/28/2022 2:11 PM

CD Overload detect,944
Photometric mode,CD, HT, Abs
Measure range,320 - 190 nm
Data pitch,0.1 nm
CD scale,20 mdeg/0.05 dOD
FL scale,20 mdeg/0.05 dOD
D.I.T.,8 msec
Bandwidth,2.00 nm
Start mode,Immediately
Scanning mode,Continuous
Scanning speed,200 nm/min
Baseline correction,None
Shutter control,Auto
No. of cycle,1/1
N2 Flowmeter,Manual

Solvent,NaPO4 buffer

