TITLE,class
DATA TYPE,
ORIGIN,JASCO
OWNER,
DATE,21/09/29
TIME,15:33:06
SPECTROMETER/DATA SYSTEM,
LOCALE,1033
RESOLUTION,
DELTAX,-0.1
XUNITS,NANOMETERS
YUNITS,CD [mdeg]
Y2UNITS,HT [V]
Y3UNITS,ABSORBANCE
FIRSTX,  290.0000
LASTX,  190.0000
NPOINTS,    1001
FIRSTY,     1.14551
MAXY,     5.47258
MINY,    -1.41982
XYDATA
290.0000,1.14551,252.987,0.737768
289.9000,1.655,253.192,0.74026
289.8000,0.682556,252.698,0.734237
289.7000,1.47285,252.545,0.732374
289.6000,0.4388,252.994,0.737855
289.5000,2.28321,252.606,0.733117
289.4000,1.24745,252.117,0.727151
289.3000,2.38193,252.563,0.732595
289.2000,1.40771,252.722,0.73453
289.1000,1.14646,252.766,0.735069
289.0000,0.362712,252.586,0.732873
288.9000,0.511095,252.466,0.731406
288.8000,1.67666,252.396,0.73056
288.7000,1.36127,251.989,0.725579
288.6000,1.35298,252.022,0.725988
288.5000,1.05497,252.635,0.73347
288.4000,1.72041,252.362,0.730138
288.3000,0.617953,252.379,0.730349
288.2000,2.14051,252.55,0.732434
288.1000,2.5714,252.901,0.736722
288.0000,0.671286,252.606,0.733117
287.9000,1.53453,252.686,0.734097
287.8000,1.32258,251.789,0.72314
287.7000,1.72847,252.584,0.732846
287.6000,1.3835,252.216,0.728358
287.5000,1.87915,252.187,0.728005
287.4000,2.4514,252.326,0.729702
287.3000,1.19587,252.025,0.726017
287.2000,2.15923,252.546,0.732393
287.1000,2.07798,252.602,0.733069
287.0000,1.95707,252.07,0.726578
286.9000,1.4813,252.321,0.729645
286.8000,1.27863,252.322,0.729655
286.7000,1.45355,251.802,0.723298
286.6000,0.678531,252.47,0.731463
286.5000,0.839335,252.384,0.730415
286.4000,0.549008,251.582,0.720609
286.3000,1.9453,252.132,0.727328
286.2000,0.648164,252.015,0.725905
286.1000,1.42883,252.268,0.728991
286.0000,1.57695,252.143,0.727463
285.9000,1.00104,252.317,0.729597
285.8000,1.23232,252.32,0.729631
285.7000,1.55299,252.41,0.730731
285.6000,2.04946,252.057,0.726419
285.5000,2.67407,252.069,0.726563
285.4000,0.82511,252.377,0.730321
285.3000,0.574353,252.143,0.72747
285.2000,1.60137,252.079,0.726684
285.1000,1.09257,251.743,0.722575
285.0000,2.07004,251.918,0.724711
284.9000,1.87605,252.42,0.730852
284.8000,1.3768,252.127,0.727274
284.7000,0.970788,252.022,0.725981
284.6000,2.09949,252.148,0.727522
284.5000,2.50333,251.967,0.725311
284.4000,2.14809,252.334,0.729797
284.3000,1.93889,251.989,0.725577
284.2000,1.85943,251.714,0.722218
284.1000,0.750123,252.114,0.727117
284.0000,1.51441,251.804,0.723322
283.9000,0.758164,251.982,0.725503
283.8000,1.54839,251.827,0.723599
283.7000,1.21028,251.879,0.724233
283.6000,1.15291,251.932,0.724881
283.5000,0.748991,252.362,0.73014
283.4000,0.475871,252.161,0.727691
283.3000,1.3278,251.815,0.723455
283.2000,0.538384,252.156,0.727619
283.1000,2.05224,252.238,0.728628
283.0000,1.4534,251.956,0.725179
282.9000,1.20114,251.79,0.723144
282.8000,0.851331,251.823,0.723552
282.7000,1.93146,252.231,0.728538
282.6000,2.0238,251.993,0.725633
282.5000,2.01677,251.871,0.72414
282.4000,0.817614,252.267,0.728977
282.3000,2.18256,251.753,0.722702
282.2000,1.28317,251.917,0.724698
282.1000,1.3714,251.971,0.725359
282.0000,1.80955,252.111,0.727072
281.9000,0.870571,251.663,0.721596
281.8000,0.445351,251.696,0.722005
281.7000,-0.0675118,251.709,0.722152
281.6000,0.667457,251.657,0.721524
281.5000,1.76733,251.742,0.722561
281.4000,1.93082,251.725,0.722355
281.3000,1.10865,251.854,0.723935
281.2000,1.10298,251.749,0.722646
281.1000,1.62255,251.722,0.722313
281.0000,1.7809,251.958,0.7252
280.9000,1.93139,251.943,0.725027
280.8000,1.36734,251.798,0.723253
280.7000,1.71902,251.691,0.721937
280.6000,0.756464,251.687,0.721885
280.5000,0.973445,251.566,0.720405
280.4000,0.934025,251.614,0.721001
280.3000,1.47401,251.572,0.720475
280.2000,0.232962,251.389,0.718245
280.1000,2.02625,251.714,0.722215
280.0000,2.04677,251.673,0.721721
279.9000,0.84063,251.708,0.72214
279.8000,0.324422,251.497,0.719565
279.7000,0.804676,251.719,0.722286
279.6000,0.694108,251.422,0.718647
279.5000,0.959418,251.146,0.715255
279.4000,2.23338,251.347,0.717721
279.3000,0.491112,252.168,0.727775
279.2000,1.85712,251.281,0.716919
279.1000,1.61898,251.31,0.717269
279.0000,1.13542,251.345,0.717696
278.9000,1.44065,251.403,0.718415
278.8000,0.8591,251.136,0.715139
278.7000,0.69995,251.829,0.723627
278.6000,0.962156,251.376,0.71808
278.5000,0.940955,251.967,0.725319
278.4000,0.335724,251.163,0.715473
278.3000,1.08399,251.782,0.723057
278.2000,0.853663,251.484,0.719404
278.1000,2.04141,251.146,0.715259
278.0000,1.05432,251.152,0.715339
277.9000,2.00193,250.934,0.712658
277.8000,1.42632,251.089,0.714568
277.7000,2.08141,251.141,0.715198
277.6000,0.763604,251.561,0.720347
277.5000,1.6346,251.814,0.723445
277.4000,0.988923,251.073,0.714368
277.3000,1.60548,250.787,0.710863
277.2000,1.5433,251.507,0.719688
277.1000,0.454523,251.228,0.71627
277.0000,1.03889,251.362,0.71791
276.9000,1.30346,251.147,0.715275
276.8000,1.4182,251.024,0.713764
276.7000,1.45902,251.31,0.717266
276.6000,1.28779,251.022,0.713744
276.5000,2.13914,251.582,0.720609
276.4000,1.13221,251.316,0.717349
276.3000,1.14797,251.359,0.717875
276.2000,1.5113,251.218,0.71615
276.1000,2.07378,251.334,0.717561
276.0000,0.929766,251.436,0.71881
275.9000,0.471797,251.229,0.716273
275.8000,1.91486,251.472,0.719251
275.7000,0.877745,251.584,0.720625
275.6000,1.21215,251.487,0.71944
275.5000,0.121728,251.662,0.721582
275.4000,0.975533,250.717,0.710002
275.3000,1.36252,251.238,0.716395
275.2000,1.06118,251.194,0.715849
275.1000,1.73961,251.347,0.717728
275.0000,0.614316,251.667,0.721641
274.9000,0.546176,251.038,0.713942
274.8000,0.94126,251.266,0.71673
274.7000,1.50917,251.214,0.716092
274.6000,0.910988,251.034,0.713888
274.5000,1.1004,251.411,0.718512
274.4000,1.51756,250.778,0.710743
274.3000,1.29273,251.498,0.719577
274.2000,-0.118196,251.448,0.718961
274.1000,1.04978,250.838,0.711478
274.0000,0.11549,251.123,0.714978
273.9000,1.32684,250.627,0.70889
273.8000,0.544719,251.12,0.714945
273.7000,0.0828983,250.745,0.710343
273.6000,0.288088,250.658,0.709268
273.5000,0.235216,250.575,0.70825
273.4000,0.687879,251.348,0.71774
273.3000,1.01266,251.302,0.717177
273.2000,-0.193443,251.349,0.717749
273.1000,0.546325,251.354,0.717806
273.0000,0.64978,250.782,0.710792
272.9000,1.05754,251.034,0.713892
272.8000,0.751371,251.042,0.713988
272.7000,0.407009,250.806,0.711089
272.6000,0.776162,250.966,0.713051
272.5000,0.814887,250.94,0.712733
272.4000,1.51574,251.121,0.714953
272.3000,1.09757,251.044,0.714007
272.2000,1.75827,251.326,0.717462
272.1000,0.744156,251.286,0.716978
272.0000,1.12466,251.345,0.717702
271.9000,1.08091,251.364,0.717927
271.8000,1.46251,250.535,0.707756
271.7000,1.50562,251.443,0.718902
271.6000,0.321027,250.713,0.709943
271.5000,1.02835,250.966,0.713058
271.4000,1.39487,250.953,0.712889
271.3000,1.28772,250.747,0.71036
271.2000,0.658475,250.927,0.71257
271.1000,0.673401,250.916,0.712438
271.0000,0.329573,250.789,0.710884
270.9000,1.01201,250.913,0.712406
270.8000,0.946914,250.939,0.712718
270.7000,0.501255,251.327,0.717481
270.6000,0.386032,251.076,0.714403
270.5000,1.5795,251.202,0.715948
270.4000,1.12695,250.869,0.711869
270.3000,0.173178,251.057,0.71417
270.2000,2.48326,251.381,0.718146
270.1000,1.2062,250.698,0.709762
270.0000,0.984006,250.852,0.711652
269.9000,0.686603,250.946,0.712804
269.8000,1.87489,250.695,0.709729
269.7000,0.664945,251.161,0.715443
269.6000,1.07955,250.9,0.712245
269.5000,0.483839,250.851,0.711642
269.4000,1.0661,251.023,0.713758
269.3000,0.187843,251.088,0.714549
269.2000,0.938214,250.901,0.712252
269.1000,1.60835,250.871,0.711892
269.0000,1.57618,250.838,0.711487
268.9000,-0.0106194,251.124,0.714997
268.8000,0.790874,251.307,0.717231
268.7000,0.363035,251.11,0.714816
268.6000,1.18364,251.054,0.714134
268.5000,0.904996,251.103,0.714738
268.4000,2.64711,251.071,0.71434
268.3000,0.24061,251.253,0.716573
268.2000,1.00662,251.005,0.713534
268.1000,0.499395,250.933,0.712648
268.0000,0.986332,251.55,0.72021
267.9000,1.06377,251.315,0.717328
267.8000,-0.163044,251.228,0.71627
267.7000,1.09205,251.033,0.713871
267.6000,1.42014,251.118,0.71492
267.5000,1.65256,251.037,0.713925
267.4000,1.16025,251.154,0.715362
267.3000,1.66347,251.072,0.714357
267.2000,0.896067,251.239,0.716396
267.1000,0.972859,251.013,0.713626
267.0000,1.79691,251.215,0.716108
266.9000,0.3489,251.286,0.716976
266.8000,0.934622,251.064,0.71425
266.7000,0.463749,251.171,0.715573
266.6000,1.28165,251.255,0.716594
266.5000,0.810091,251.418,0.71859
266.4000,1.40818,251.116,0.714896
266.3000,0.91318,251.91,0.724621
266.2000,0.415528,251.174,0.71561
266.1000,0.986361,251.467,0.71919
266.0000,1.32045,251.564,0.720385
265.9000,0.359682,251.688,0.721903
265.8000,0.323522,251.368,0.717984
265.7000,0.805355,251.393,0.718293
265.6000,1.80955,251.494,0.719527
265.5000,0.667774,251.63,0.721186
265.4000,1.1026,251.598,0.720802
265.3000,2.31336,251.112,0.714839
265.2000,1.04242,251.741,0.722546
265.1000,1.27101,251.342,0.717662
265.0000,0.710605,251.32,0.717394
264.9000,1.217,251.435,0.718802
264.8000,0.548456,251.738,0.722511
264.7000,0.737992,251.787,0.723112
264.6000,2.08773,251.334,0.717564
264.5000,2.21005,252.167,0.727759
264.4000,1.42335,251.309,0.717264
264.3000,0.918155,251.446,0.718937
264.2000,1.39585,251.394,0.718298
264.1000,1.59693,251.494,0.719522
264.0000,0.41765,251.53,0.719973
263.9000,1.26666,251.551,0.720224
263.8000,0.641738,252.262,0.728918
263.7000,0.911863,251.354,0.717814
263.6000,1.20217,251.548,0.720186
263.5000,0.865628,251.546,0.720165
263.4000,1.204,251.831,0.723656
263.3000,0.851045,252.104,0.726994
263.2000,1.02513,251.729,0.722409
263.1000,1.1197,251.227,0.716256
263.0000,1.01976,251.768,0.722882
262.9000,1.5716,251.685,0.721863
262.8000,1.17219,251.794,0.723204
262.7000,0.807636,251.073,0.714372
262.6000,0.247209,251.62,0.721067
262.5000,0.48679,252.49,0.731699
262.4000,0.957561,251.874,0.724182
262.3000,0.565403,252.382,0.73039
262.2000,1.14034,251.869,0.72411
262.1000,0.451863,252.088,0.726795
262.0000,0.768307,252.268,0.728991
261.9000,1.17215,251.627,0.721152
261.8000,0.245649,252.302,0.729411
261.7000,0.32499,252.076,0.726649
261.6000,1.17386,252.458,0.731316
261.5000,1.29976,252.266,0.728967
261.4000,1.56473,251.869,0.724115
261.3000,0.986444,252.32,0.729631
261.2000,1.36067,252.203,0.728199
261.1000,1.16712,251.988,0.725565
261.0000,1.04925,252.407,0.730688
260.9000,1.04724,252.405,0.730666
260.8000,0.27157,252.244,0.728697
260.7000,1.24389,252.477,0.731542
260.6000,0.826681,252.308,0.729486
260.5000,-0.148396,252.304,0.729432
260.4000,1.25427,252.188,0.728011
260.3000,0.540878,252.354,0.730046
260.2000,0.813434,252.588,0.732894
260.1000,1.03636,252.126,0.727257
260.0000,0.963255,252.978,0.737654
259.9000,0.426315,252.957,0.737406
259.8000,0.887371,253.077,0.738864
259.7000,1.47934,252.629,0.733395
259.6000,0.83099,252.536,0.732263
259.5000,1.15667,252.805,0.735553
259.4000,1.33738,252.756,0.734949
259.3000,1.18688,252.455,0.731281
259.2000,-0.270546,252.463,0.731371
259.1000,0.139391,252.715,0.734453
259.0000,0.471432,252.707,0.734354
258.9000,2.16486,252.689,0.734137
258.8000,-0.224135,252.459,0.731331
258.7000,0.268276,253.017,0.738133
258.6000,1.12771,252.365,0.730183
258.5000,0.660389,252.746,0.734829
258.4000,1.31845,252.473,0.73149
258.3000,1.02367,252.808,0.73559
258.2000,-0.212256,253.117,0.739356
258.1000,0.566995,252.544,0.73236
258.0000,0.575915,252.724,0.734562
257.9000,0.419029,253.072,0.738802
257.8000,0.796337,252.872,0.73637
257.7000,1.23879,252.818,0.735707
257.6000,0.656513,253.111,0.739273
257.5000,1.19687,253.379,0.742545
257.4000,0.707626,253.44,0.743278
257.3000,0.738959,253.236,0.740805
257.2000,0.720233,253.104,0.739189
257.1000,1.09751,253.137,0.739597
257.0000,0.732507,252.995,0.737865
256.9000,0.619777,252.933,0.737107
256.8000,0.422233,253.359,0.742302
256.7000,0.0475523,253.66,0.74596
256.6000,1.29751,253.169,0.739986
256.5000,0.918513,253.284,0.74138
256.4000,2.04885,253.75,0.747055
256.3000,1.40186,253.628,0.745571
256.2000,2.03777,253.445,0.743339
256.1000,0.331634,252.995,0.737858
256.0000,0.806101,253.513,0.744175
255.9000,0.0453015,253.338,0.742042
255.8000,0.971355,253.498,0.743993
255.7000,0.595847,253.416,0.742988
255.6000,0.405999,253.57,0.744868
255.5000,0.992057,253.677,0.746169
255.4000,1.71069,253.756,0.747123
255.3000,1.1267,253.668,0.74606
255.2000,1.36334,253.426,0.74311
255.1000,0.583104,253.735,0.74687
255.0000,1.06352,253.627,0.745552
254.9000,0.111115,253.618,0.745449
254.8000,0.528964,253.531,0.744389
254.7000,0.606078,253.798,0.747641
254.6000,0.430466,253.603,0.745268
254.5000,0.546875,253.891,0.748768
254.4000,1.27395,253.461,0.743541
254.3000,1.50586,253.882,0.748653
254.2000,0.398098,254.088,0.751162
254.1000,1.0299,253.751,0.747069
254.0000,1.20576,253.445,0.743345
253.9000,0.210723,253.282,0.741364
253.8000,0.21505,254.013,0.750253
253.7000,1.33512,254.183,0.752319
253.6000,1.2901,253.931,0.749252
253.5000,0.00573384,254.116,0.751504
253.4000,0.614611,254.011,0.750226
253.3000,1.35807,254.091,0.751198
253.2000,0.759739,254.504,0.756213
253.1000,1.12173,253.983,0.749883
253.0000,2.60404,254.022,0.750363
252.9000,0.606412,254.133,0.751701
252.8000,0.905304,254.282,0.753517
252.7000,1.28685,254.009,0.750196
252.6000,0.515709,254.192,0.75242
252.5000,0.93527,254.232,0.752909
252.4000,0.954382,254.189,0.752383
252.3000,-0.135364,253.989,0.749954
252.2000,0.128686,254.178,0.75225
252.1000,1.66803,254.6,0.757369
252.0000,0.1804,254.246,0.753079
251.9000,1.69879,254.612,0.757522
251.8000,1.3302,253.423,0.743076
251.7000,0.829751,253.932,0.749264
251.6000,1.87694,254.705,0.758642
251.5000,2.04769,254.156,0.75198
251.4000,1.08984,254.394,0.754876
251.3000,0.933203,254.451,0.755564
251.2000,1.52341,253.896,0.748823
251.1000,1.40503,254.034,0.75051
251.0000,1.88402,253.992,0.749988
250.9000,2.16399,254.437,0.755399
250.8000,0.636203,254.479,0.755904
250.7000,0.889095,254.191,0.75241
250.6000,0.681684,254.407,0.755033
250.5000,1.00583,254.438,0.755411
250.4000,0.575523,254.102,0.751335
250.3000,1.00445,254.501,0.756168
250.2000,0.403634,254.352,0.754368
250.1000,1.8036,254.137,0.751757
250.0000,0.303475,254.286,0.753567
249.9000,1.40031,255.165,0.76421
249.8000,0.469467,254.366,0.754529
249.7000,1.72882,254.257,0.753216
249.6000,0.741513,254.351,0.754354
249.5000,0.278322,254.341,0.754234
249.4000,0.237926,254.703,0.758619
249.3000,0.372352,254.48,0.755919
249.2000,0.862322,254.154,0.751965
249.1000,1.0827,254.72,0.75883
249.0000,1.20066,254.135,0.751736
248.9000,0.804111,254.709,0.758694
248.8000,-0.334474,254.351,0.754354
248.7000,1.04113,254.134,0.751722
248.6000,0.948537,254.25,0.753125
248.5000,1.86152,254.661,0.758112
248.4000,1.38855,254.054,0.750752
248.3000,-0.625924,253.893,0.748787
248.2000,0.736597,254.249,0.75312
248.1000,1.09467,254.376,0.75466
248.0000,2.46561,254.334,0.754141
247.9000,1.71907,254.196,0.752474
247.8000,1.74954,254.293,0.753649
247.7000,0.626129,254.329,0.754091
247.6000,1.35179,254.077,0.751029
247.5000,1.63218,254.324,0.754031
247.4000,1.72269,254.467,0.755761
247.3000,1.02873,254.56,0.756885
247.2000,1.9579,254.694,0.758517
247.1000,0.255543,254.71,0.758703
247.0000,0.813331,254.298,0.753704
246.9000,0.798262,254.602,0.757391
246.8000,2.01043,254.466,0.755747
246.7000,2.59116,255.43,0.767421
246.6000,0.973076,254.937,0.761462
246.5000,1.96517,254.785,0.759616
246.4000,1.43312,254.108,0.7514
246.3000,1.77813,254.748,0.759162
246.2000,1.69675,255.168,0.764251
246.1000,0.873235,254.591,0.75726
246.0000,0.841932,254.994,0.762144
245.9000,0.364423,254.769,0.759422
245.8000,1.22589,254.42,0.755189
245.7000,1.04608,255.034,0.762626
245.6000,-0.171392,255.208,0.764733
245.5000,1.27132,254.755,0.759254
245.4000,1.65508,254.393,0.754861
245.3000,1.48443,254.998,0.762189
245.2000,0.859201,254.729,0.758939
245.1000,1.18314,255.182,0.764417
245.0000,0.618347,254.501,0.756168
244.9000,0.267151,254.784,0.759607
244.8000,1.15791,254.741,0.759077
244.7000,1.15911,254.643,0.757896
244.6000,0.875346,254.961,0.761741
244.5000,1.20307,254.94,0.761489
244.4000,1.38921,254.523,0.756445
244.3000,0.990129,255.039,0.762693
244.2000,1.07959,255.13,0.763792
244.1000,-0.149525,255.145,0.763968
244.0000,0.679473,255.297,0.765816
243.9000,0.89722,254.889,0.760872
243.8000,1.40258,255.044,0.762756
243.7000,-0.283403,254.995,0.762161
243.6000,2.04488,254.918,0.761221
243.5000,0.760578,255.192,0.764539
243.4000,1.45446,255.163,0.764195
243.3000,0.739853,254.66,0.758098
243.2000,1.0387,255.174,0.764325
243.1000,1.18502,255.081,0.763199
243.0000,0.66203,254.993,0.762129
242.9000,1.88048,254.918,0.761227
242.8000,0.622815,254.919,0.761232
242.7000,0.637254,255.313,0.766007
242.6000,0.258775,254.638,0.757832
242.5000,1.31184,255.43,0.767424
242.4000,2.08299,255.338,0.766312
242.3000,1.45076,255.433,0.767462
242.2000,1.57901,255.332,0.766237
242.1000,0.741544,255.329,0.766201
242.0000,1.44102,255.18,0.764395
241.9000,1.44814,255.389,0.766922
241.8000,1.56232,255.369,0.766683
241.7000,1.17647,255.57,0.769112
241.6000,1.35562,255.365,0.766633
241.5000,1.28938,255.433,0.767457
241.4000,0.221732,255.557,0.768956
241.3000,0.856874,255.397,0.767016
241.2000,2.03069,255.882,0.772888
241.1000,0.868776,255.335,0.766273
241.0000,1.4223,255.506,0.76834
240.9000,1.11024,255.863,0.772648
240.8000,0.640378,255.857,0.772575
240.7000,0.789363,255.576,0.769182
240.6000,1.75501,255.603,0.769509
240.5000,1.61604,255.401,0.767075
240.4000,1.04947,256.191,0.776614
240.3000,0.785447,255.777,0.771616
240.2000,0.452385,256.184,0.776525
240.1000,0.46733,255.507,0.768356
240.0000,1.93232,256.149,0.776101
239.9000,1.00748,256.365,0.778709
239.8000,1.69668,255.734,0.771092
239.7000,1.97809,255.776,0.771603
239.6000,1.3955,256.719,0.782973
239.5000,0.862084,256.064,0.775076
239.4000,2.4163,256.082,0.775298
239.3000,1.64164,256.374,0.778817
239.2000,1.84673,256.67,0.782381
239.1000,0.954568,256.26,0.777444
239.0000,0.859372,256.276,0.77764
238.9000,1.1353,256.51,0.78046
238.8000,1.14656,256.304,0.777978
238.7000,0.590438,256.647,0.782101
238.6000,2.03856,256.84,0.784426
238.5000,1.05066,256.68,0.782499
238.4000,1.25736,256.558,0.78104
238.3000,-0.0288373,257.012,0.786501
238.2000,1.01819,257.051,0.786968
238.1000,1.79876,256.378,0.778866
238.0000,0.567271,256.684,0.782552
237.9000,1.93255,256.972,0.786014
237.8000,0.803252,256.915,0.785329
237.7000,1.18575,256.969,0.785983
237.6000,1.63583,257.283,0.789763
237.5000,1.80064,257.287,0.789803
237.4000,0.164572,258.191,0.800653
237.3000,0.121984,257.07,0.7872
237.2000,0.639157,257.999,0.798359
237.1000,2.24736,257.391,0.791058
237.0000,0.586839,257.071,0.78721
236.9000,1.58636,257.079,0.787311
236.8000,0.77292,257.624,0.793859
236.7000,0.702193,257.848,0.796546
236.6000,0.773857,257.588,0.793417
236.5000,1.80477,257.959,0.797868
236.4000,0.326794,257.499,0.792354
236.3000,0.524944,257.673,0.794442
236.2000,2.07117,257.88,0.79693
236.1000,0.330793,257.758,0.795459
236.0000,1.41909,257.927,0.797493
235.9000,-0.274361,257.729,0.795115
235.8000,0.954305,257.678,0.794502
235.7000,1.15493,258.392,0.803059
235.6000,0.693471,258.149,0.800149
235.5000,0.791268,258.299,0.801954
235.4000,1.41224,258.261,0.801489
235.3000,1.44152,258.477,0.804079
235.2000,1.51309,258.444,0.803684
235.1000,1.87374,258.38,0.802923
235.0000,1.02027,258.273,0.801635
234.9000,2.0719,258.437,0.803605
234.8000,1.76318,258.359,0.802667
234.7000,1.14871,258.504,0.804403
234.6000,1.28203,258.7,0.806753
234.5000,0.422668,258.983,0.810128
234.4000,1.48656,258.436,0.803591
234.3000,1.73712,259.146,0.81208
234.2000,2.12738,258.662,0.806297
234.1000,2.05325,258.975,0.810037
234.0000,0.27655,259.019,0.810565
233.9000,1.85097,258.64,0.806029
233.8000,0.0838435,258.917,0.809348
233.7000,1.62475,259.375,0.814821
233.6000,0.466509,259.545,0.816845
233.5000,0.41204,259.281,0.81369
233.4000,1.11479,259.787,0.819732
233.3000,0.308424,259.892,0.820984
233.2000,1.16187,259.828,0.820215
233.1000,2.04693,259.568,0.817125
233.0000,1.35498,259.842,0.820389
232.9000,0.48331,259.673,0.818377
232.8000,2.17737,260.106,0.823534
232.7000,1.47917,259.998,0.822242
232.6000,2.54083,260.088,0.823318
232.5000,1.14399,260.032,0.822649
232.4000,1.10372,260.174,0.824337
232.3000,2.68187,260.102,0.823482
232.2000,2.1477,260.011,0.822404
232.1000,2.50134,260.709,0.830708
232.0000,0.0381226,260.392,0.826933
231.9000,1.28141,260.659,0.830117
231.8000,1.50487,260.556,0.828888
231.7000,0.677337,260.493,0.828138
231.6000,1.85939,261.047,0.834722
231.5000,2.04827,261.116,0.835543
231.4000,1.44487,260.788,0.831649
231.3000,0.440151,260.995,0.83411
231.2000,0.726921,260.907,0.833058
231.1000,2.62815,261.207,0.83662
231.0000,1.28843,261.226,0.836854
230.9000,0.618324,261.101,0.835361
230.8000,2.23887,261.148,0.835927
230.7000,1.5163,261.279,0.837481
230.6000,1.65585,261.193,0.836462
230.5000,2.17923,260.815,0.831962
230.4000,1.56777,261.098,0.835324
230.3000,1.75374,260.877,0.83271
230.2000,1.7124,260.991,0.834057
230.1000,0.997313,261.089,0.835225
230.0000,1.38146,261.121,0.835603
229.9000,0.862672,261.165,0.836128
229.8000,1.23913,260.882,0.832767
229.7000,1.48523,261.057,0.834846
229.6000,2.01832,260.852,0.832403
229.5000,1.44555,260.738,0.83105
229.4000,1.63218,261.041,0.834658
229.3000,0.494661,261.405,0.838968
229.2000,0.759589,261.283,0.837528
229.1000,1.79911,261.403,0.838947
229.0000,1.74077,261.979,0.845772
228.9000,2.60046,262.283,0.849369
228.8000,0.674876,261.951,0.845443
228.7000,1.67095,262.164,0.847968
228.6000,2.3185,262.456,0.851422
228.5000,2.57232,262.65,0.853707
228.4000,1.17928,262.425,0.851055
228.3000,1.93419,262.531,0.852308
228.2000,2.20264,262.459,0.851457
228.1000,0.748495,262.825,0.855783
228.0000,1.74788,263.093,0.858939
227.9000,2.01478,262.946,0.857201
227.8000,2.23057,263.191,0.860097
227.7000,2.43925,263.441,0.863039
227.6000,1.8507,263.219,0.860422
227.5000,1.14423,263.401,0.862573
227.4000,2.00863,263.456,0.863218
227.3000,1.58878,263.454,0.863203
227.2000,1.75943,263.541,0.864225
227.1000,2.02224,263.868,0.868075
227.0000,2.05462,264.329,0.873495
226.9000,1.44051,263.799,0.867261
226.8000,2.57951,263.676,0.865815
226.7000,3.53981,264.053,0.870251
226.6000,1.72115,264.322,0.87341
226.5000,1.63948,264.21,0.872096
226.4000,1.20173,264.2,0.871975
226.3000,2.25818,264.36,0.873856
226.2000,0.618772,264.592,0.876585
226.1000,1.16469,264.555,0.87615
226.0000,1.12235,264.896,0.880154
225.9000,2.21889,264.654,0.877316
225.8000,2.22077,264.633,0.87707
225.7000,1.87871,264.596,0.876636
225.6000,2.77008,265.168,0.883346
225.5000,1.91965,265.116,0.882733
225.4000,1.00856,265.278,0.884632
225.3000,1.61121,265.064,0.882127
225.2000,1.03838,265.04,0.881838
225.1000,1.13589,265.345,0.88541
225.0000,1.47061,265.242,0.884209
224.9000,1.63807,265.384,0.885876
224.8000,2.44544,265.395,0.886003
224.7000,2.45761,265.609,0.888508
224.6000,0.8932,265.77,0.890393
224.5000,0.90971,265.411,0.886189
224.4000,2.46564,265.715,0.889742
224.3000,1.71512,265.577,0.888129
224.2000,0.702821,265.85,0.891326
224.1000,1.56151,266.42,0.897989
224.0000,1.4164,265.737,0.890008
223.9000,0.668195,265.693,0.88949
223.8000,1.11653,266.221,0.89566
223.7000,2.5933,266.09,0.894134
223.6000,1.48147,266.043,0.893578
223.5000,1.26546,266.174,0.895109
223.4000,0.562764,266.199,0.895402
223.3000,0.768985,266.391,0.897648
223.2000,2.28356,266.575,0.8998
223.1000,1.80927,266.81,0.902541
223.0000,1.855,266.715,0.901432
222.9000,2.09603,267.026,0.905053
222.8000,1.65117,267.205,0.907141
222.7000,1.8903,267.151,0.906514
222.6000,1.99814,267.095,0.905862
222.5000,3.51129,266.786,0.902253
222.4000,2.22682,267.373,0.909102
222.3000,1.40931,267.302,0.908276
222.2000,2.53399,267.168,0.906712
222.1000,1.71206,267.285,0.908069
222.0000,1.52828,267.644,0.912246
221.9000,1.35392,267.521,0.910823
221.8000,2.51642,267.435,0.909825
221.7000,1.61018,267.885,0.915054
221.6000,1.69241,267.736,0.913323
221.5000,0.656771,267.756,0.913549
221.4000,2.15696,267.597,0.911704
221.3000,2.23627,267.642,0.91223
221.2000,2.48181,267.864,0.914812
221.1000,1.63682,268.018,0.916594
221.0000,1.49991,267.68,0.912671
220.9000,1.60481,267.859,0.914753
220.8000,1.86262,268.042,0.916874
220.7000,1.64495,267.953,0.915841
220.6000,2.31661,268.308,0.919963
220.5000,1.41223,268.136,0.91797
220.4000,1.84613,268.242,0.9192
220.3000,1.52616,268.225,0.919004
220.2000,1.51598,268.335,0.920275
220.1000,1.36958,268.901,0.926846
220.0000,2.98158,268.411,0.921166
219.9000,1.17558,268.734,0.924903
219.8000,2.90207,268.836,0.926087
219.7000,1.52942,269.333,0.931843
219.6000,1.31781,268.937,0.92726
219.5000,3.05122,268.444,0.921541
219.4000,3.07118,268.801,0.925688
219.3000,1.08821,268.887,0.926684
219.2000,2.03067,268.722,0.924765
219.1000,2.46776,268.771,0.925338
219.0000,2.05231,269.136,0.929561
218.9000,1.85425,269.307,0.931546
218.8000,1.53876,269.366,0.932225
218.7000,2.10234,269.139,0.929597
218.6000,3.28106,269.134,0.929545
218.5000,1.62504,269.217,0.930499
218.4000,2.84498,269.127,0.92946
218.3000,2.42667,269.616,0.935121
218.2000,0.892268,269.533,0.934161
218.1000,2.33916,269.404,0.932671
218.0000,3.12226,269.559,0.934454
217.9000,1.179,269.75,0.936665
217.8000,1.30679,269.73,0.93644
217.7000,2.48637,269.868,0.938028
217.6000,2.01058,269.732,0.936463
217.5000,3.37457,269.813,0.937396
217.4000,0.974392,269.84,0.937712
217.3000,3.33451,270.101,0.940718
217.2000,3.04545,270.491,0.945223
217.1000,1.08313,270.499,0.945317
217.0000,3.1009,270.672,0.947304
216.9000,1.93529,270.506,0.945396
216.8000,1.8922,270.977,0.950816
216.7000,0.981277,270.78,0.948554
216.6000,1.457,270.183,0.941665
216.5000,1.6232,271.132,0.952601
216.4000,2.2744,270.894,0.949864
216.3000,2.36192,270.751,0.948213
216.2000,1.51539,270.768,0.948414
216.1000,3.64251,270.85,0.949354
216.0000,2.1078,270.175,0.941576
215.9000,1.51765,271.156,0.952875
215.8000,2.34097,270.897,0.949903
215.7000,3.02979,270.863,0.949509
215.6000,3.10594,270.83,0.94913
215.5000,3.32529,270.929,0.950264
215.4000,2.6414,271.304,0.954584
215.3000,3.08247,271.118,0.952445
215.2000,1.53027,271.363,0.95526
215.1000,1.86663,271.319,0.954757
215.0000,2.47779,271.131,0.952596
214.9000,2.35588,271.627,0.958296
214.8000,3.19463,271.762,0.959845
214.7000,2.29613,271.422,0.955944
214.6000,2.58873,271.551,0.957416
214.5000,1.51393,271.545,0.957352
214.4000,3.07481,271.458,0.956358
214.3000,2.19837,271.782,0.960076
214.2000,2.49839,272.058,0.963248
214.1000,1.80149,271.992,0.962486
214.0000,2.17275,272.031,0.962936
213.9000,2.32442,271.884,0.961245
213.8000,2.38015,271.814,0.960445
213.7000,2.29214,272.133,0.964109
213.6000,1.24129,272.128,0.964051
213.5000,1.64884,272.236,0.965286
213.4000,2.9866,271.937,0.961852
213.3000,1.87037,272.077,0.963466
213.2000,3.22112,272.278,0.965765
213.1000,2.5346,272.465,0.967916
213.0000,2.21801,272.22,0.965097
212.9000,1.15007,272.428,0.967492
212.8000,2.62147,272.014,0.962739
212.7000,1.77608,272.847,0.972289
212.6000,1.45681,272.607,0.969535
212.5000,2.54787,272.97,0.973688
212.4000,1.53728,272.702,0.970622
212.3000,1.29784,272.955,0.973516
212.2000,3.28746,272.821,0.971986
212.1000,3.57846,273.374,0.978311
212.0000,3.37521,273.06,0.974722
211.9000,2.98602,272.868,0.972531
211.8000,2.5326,273.334,0.977854
211.7000,1.64554,273.223,0.97659
211.6000,2.42321,273.213,0.976475
211.5000,1.25187,273.849,0.983736
211.4000,2.11049,273.44,0.97907
211.3000,1.46088,273.847,0.98371
211.2000,3.03701,273.787,0.983033
211.1000,1.08942,273.489,0.979623
211.0000,2.71372,273.765,0.982774
210.9000,1.30707,273.957,0.98497
210.8000,1.31222,274.278,0.988635
210.7000,3.01403,273.843,0.983674
210.6000,3.40984,274.081,0.98638
210.5000,3.62978,274.272,0.98856
210.4000,2.32907,273.673,0.981732
210.3000,2.36219,274.096,0.986557
210.2000,2.75805,274.457,0.990665
210.1000,0.990117,274.506,0.991233
210.0000,2.80236,274.779,0.994335
209.9000,2.85752,274.111,0.986725
209.8000,3.59456,274.419,0.990237
209.7000,2.89266,274.84,0.99503
209.6000,3.96047,274.987,0.9967
209.5000,3.18778,274.779,0.994341
209.4000,2.33258,274.843,0.995063
209.3000,3.27891,275.005,0.996906
209.2000,2.45715,274.995,0.99679
209.1000,3.12473,275.562,1.00323
209.0000,3.16777,275.564,1.00326
208.9000,2.1521,275.625,1.00395
208.8000,2.43202,275.493,1.00245
208.7000,1.92154,275.8,1.00594
208.6000,3.29456,275.628,1.00399
208.5000,2.59648,275.57,1.00333
208.4000,0.785262,275.654,1.00428
208.3000,3.12493,276.104,1.00939
208.2000,2.58484,275.76,1.00548
208.1000,2.60331,275.976,1.00793
208.0000,2.39941,276.343,1.01209
207.9000,1.34142,276.291,1.0115
207.8000,2.57839,275.865,1.00668
207.7000,2.42438,276.922,1.01865
207.6000,2.72702,276.718,1.01634
207.5000,3.65076,276.36,1.01228
207.4000,2.82555,276.698,1.01611
207.3000,2.56149,277.279,1.02267
207.2000,2.95607,276.922,1.01864
207.1000,1.89221,276.628,1.01532
207.0000,2.03896,276.67,1.01579
206.9000,2.26926,277.062,1.02023
206.8000,2.70501,277.433,1.02441
206.7000,4.40924,277.407,1.02412
206.6000,1.97825,277.371,1.02372
206.5000,2.37929,277.448,1.02459
206.4000,3.66959,277.914,1.02984
206.3000,1.51816,277.861,1.02925
206.2000,2.19848,277.889,1.02957
206.1000,3.25458,278.083,1.03175
206.0000,2.25888,277.877,1.02943
205.9000,1.94104,278.598,1.03755
205.8000,1.53087,277.959,1.03035
205.7000,2.58863,279.102,1.04322
205.6000,3.01644,278.611,1.03769
205.5000,3.66739,278.708,1.03878
205.4000,3.57227,278.723,1.03896
205.3000,3.50516,279.302,1.04546
205.2000,4.0241,279.54,1.04813
205.1000,2.83049,279.75,1.05049
205.0000,2.26618,279.709,1.05002
204.9000,4.0625,279.738,1.05035
204.8000,2.49832,279.919,1.05238
204.7000,2.55267,280.074,1.05411
204.6000,1.37886,279.994,1.05322
204.5000,3.69537,279.971,1.05296
204.4000,2.58644,280.307,1.05673
204.3000,1.13322,280.098,1.05439
204.2000,1.84362,280.602,1.06003
204.1000,2.6555,280.936,1.06376
204.0000,1.02115,280.504,1.05893
203.9000,2.01659,281.513,1.0702
203.8000,3.67282,281.171,1.06639
203.7000,3.39601,281.403,1.06897
203.6000,3.5162,281.363,1.06853
203.5000,3.84096,282.191,1.07775
203.4000,2.62971,282.058,1.07628
203.3000,2.66146,281.808,1.07349
203.2000,3.20846,282.223,1.07811
203.1000,0.955459,282.694,1.08335
203.0000,2.28952,282.698,1.08339
202.9000,2.01054,282.789,1.0844
202.8000,2.23574,282.917,1.08583
202.7000,3.49248,283.024,1.08702
202.6000,3.36139,283.281,1.08986
202.5000,3.6935,282.935,1.08602
202.4000,2.76796,283.264,1.08968
202.3000,3.81461,283.166,1.08859
202.2000,3.37124,283.864,1.09633
202.1000,3.70946,284.166,1.09967
202.0000,3.76718,284.327,1.10146
201.9000,1.81138,284.52,1.10359
201.8000,1.82478,284.853,1.10726
201.7000,3.09907,284.866,1.10741
201.6000,2.42197,285.107,1.11007
201.5000,2.19532,285.406,1.11337
201.4000,2.18897,285.395,1.11325
201.3000,2.11137,285.676,1.11634
201.2000,1.72007,285.978,1.11967
201.1000,3.87495,286.075,1.12074
201.0000,4.02233,286.365,1.12393
200.9000,2.55164,286.473,1.12512
200.8000,1.19415,286.507,1.12549
200.7000,3.80542,286.678,1.12737
200.6000,2.7878,287.198,1.13308
200.5000,0.845043,287.186,1.13295
200.4000,3.68714,287.408,1.13538
200.3000,1.84739,287.799,1.13967
200.2000,2.17356,287.859,1.14032
200.1000,1.52918,288.328,1.14545
200.0000,1.49262,288.642,1.14888
199.9000,1.66646,288.68,1.1493
199.8000,2.37385,288.726,1.1498
199.7000,2.41773,288.809,1.1507
199.6000,3.87012,288.77,1.15028
199.5000,1.79977,289.322,1.1563
199.4000,3.26345,289.214,1.15513
199.3000,2.71074,289.513,1.15839
199.2000,4.01373,289.401,1.15717
199.1000,1.38388,289.624,1.1596
199.0000,4.51233,289.838,1.16193
198.9000,2.56547,290.278,1.16671
198.8000,4.41439,290.131,1.16512
198.7000,2.56112,290.399,1.16803
198.6000,4.36683,290.592,1.17013
198.5000,2.6391,290.828,1.17268
198.4000,3.34832,290.751,1.17185
198.3000,2.60421,291.035,1.17493
198.2000,2.57069,291.219,1.17693
198.1000,1.11692,291.121,1.17587
198.0000,1.92377,291.277,1.17755
197.9000,1.88176,291.625,1.18133
197.8000,3.31615,291.915,1.18447
197.7000,3.11133,291.751,1.1827
197.6000,1.15222,291.911,1.18443
197.5000,0.889834,292.097,1.18643
197.4000,1.78581,292.282,1.18843
197.3000,1.79811,292.415,1.18988
197.2000,1.96147,292.732,1.1933
197.1000,3.01541,292.848,1.19456
197.0000,3.43065,292.954,1.1957
196.9000,2.68466,293.297,1.1994
196.8000,1.62822,293.397,1.20047
196.7000,2.94397,293.46,1.20115
196.6000,2.47604,294.257,1.20973
196.5000,2.01562,294.224,1.20938
196.4000,3.55372,294.785,1.21541
196.3000,1.60066,294.809,1.21565
196.2000,2.10306,294.885,1.21647
196.1000,0.952239,295.353,1.22149
196.0000,3.74809,295.751,1.22576
195.9000,2.9331,296.406,1.23276
195.8000,2.12664,296.207,1.23063
195.7000,2.55308,296.441,1.23314
195.6000,3.22753,296.61,1.23494
195.5000,2.22175,297.027,1.23939
195.4000,3.87691,297.281,1.24209
195.3000,2.79422,297.33,1.24262
195.2000,1.88357,297.57,1.24518
195.1000,2.07037,297.96,1.24933
195.0000,1.37247,298.244,1.25235
194.9000,2.15634,298.358,1.25356
194.8000,2.06277,298.901,1.25932
194.7000,1.01274,299.103,1.26146
194.6000,2.08371,299.723,1.26803
194.5000,1.05472,299.753,1.26835
194.4000,1.10083,300.01,1.27108
194.3000,1.78914,300.432,1.27553
194.2000,0.826067,300.816,1.27959
194.1000,4.25835,301.399,1.28573
194.0000,2.95606,302.199,1.29415
193.9000,2.24739,302.579,1.29815
193.8000,2.87332,303.325,1.30598
193.7000,0.807213,303.683,1.30973
193.6000,0.6303,304.515,1.31843
193.5000,1.91354,304.704,1.3204
193.4000,1.60476,305.459,1.32828
193.3000,1.79686,305.544,1.32916
193.2000,2.36828,306.136,1.33532
193.1000,1.70839,306.397,1.33804
193.0000,2.3673,307.124,1.34559
192.9000,2.34093,307.999,1.35466
192.8000,2.49958,308.314,1.35791
192.7000,-0.0361746,308.866,1.36362
192.6000,1.91459,310.145,1.37679
192.5000,3.87034,310.878,1.38434
192.4000,1.93643,312.193,1.39781
192.3000,1.03214,312.05,1.39635
192.2000,-0.22267,313.103,1.40711
192.1000,2.2117,313.421,1.41035
192.0000,3.76151,314.291,1.41922
191.9000,3.14044,314.906,1.42548
191.8000,0.697204,316.112,1.4377
191.7000,1.52834,317.008,1.44677
191.6000,1.57869,317.394,1.45066
191.5000,2.82327,318.123,1.45801
191.4000,1.72945,319.627,1.47313
191.3000,0.755632,320.604,1.48293
191.2000,3.29391,321.667,1.49355
191.1000,1.04214,323.128,1.5081
191.0000,2.31548,324.183,1.51857
190.9000,3.01045,325.772,1.53429
190.8000,5.47258,327.373,1.55008
190.7000,0.308022,328.535,1.56148
190.6000,2.40096,330.26,1.57837
190.5000,-0.484081,331.462,1.59008
190.4000,4.87856,332.808,1.60316
190.3000,-1.41982,333.834,1.6131
190.2000,3.28469,334.921,1.6236
190.1000,3.50562,336.467,1.63849
190.0000,1.99382,337.68,1.65013

##### Extended Information
[Comments]
Sample name,class
Comment
User
Division
Company,Saint Mary's College

[Detailed Information]
Creation date,9/29/2021 2:33 PM

Data array type,Linear data array * 3
Horizontal axis,Wavelength [nm]
Vertical axis(1),CD [mdeg]
Vertical axis(2),HT [V]
Vertical axis(3),Abs
Start,290 nm
End,190 nm
Data interval,0.1 nm
Data points,1001    

[Measurement Information]
Instrument name,J-1500
Model name,J-1500
Serial No.,B051061638

Detector,PM-539
Detector S/N,B051061638
  Lock-in amp.,X mode
  HT volt,Auto

Accessory,PTC-517
Accessory S/N,B026561646
  Temperature,23.47 C
  Control sensor,Holder
  Monitor sensor,Holder

Measurement date,9/29/2021 2:25 PM

CD Overload detect,888
Photometric mode,CD, HT, Abs
Measure range,290 - 190 nm
Data pitch,0.1 nm
CD scale,20 mdeg/0.05 dOD
FL scale,20 mdeg/0.05 dOD
D.I.T.,64 msec
Bandwidth,1.00 nm
Start mode,Immediately
Scanning mode,Continuous
Scanning speed,50 nm/min
Baseline correction,None
Shutter control,Auto
No. of cycle,1/1
N2 Flowmeter,Manual


