TITLE,ds + JL Protein and buffer
DATA TYPE,
ORIGIN,JASCO
OWNER,
DATE,22/09/29
TIME,15:34:05
SPECTROMETER/DATA SYSTEM,
LOCALE,1033
RESOLUTION,
DELTAX,-0.1
XUNITS,NANOMETERS
YUNITS,CD [mdeg]
Y2UNITS,HT [V]
Y3UNITS,ABSORBANCE
FIRSTX,  320.0000
LASTX,  190.0000
NPOINTS,    1301
FIRSTY,     1.80554
MAXY,    46.64090
MINY,   -73.29848
XYDATA
320.0000,1.80554,210.063,0.173636
319.9000,1.03345,209.228,0.161751
319.8000,-1.67383,208.859,0.156497
319.7000,-0.0767349,208.297,0.148465
319.6000,1.5158,210.364,0.177916
319.5000,0.734342,208.852,0.156384
319.4000,1.14103,208.215,0.147281
319.3000,0.685093,209.174,0.160992
319.2000,1.7527,207.911,0.142932
319.1000,2.09561,208.117,0.145886
319.0000,1.22557,208.201,0.147086
318.9000,1.9296,209.318,0.163043
318.8000,1.03899,208.788,0.155478
318.7000,2.47029,209.434,0.16469
318.6000,0.407732,209.318,0.163043
318.5000,-0.0632537,209.313,0.162962
318.4000,2.50182,208.294,0.148416
318.3000,1.17522,208.277,0.148173
318.2000,0.628859,209.165,0.160862
318.1000,1.79056,209.18,0.161072
318.0000,0.829343,209.455,0.164996
317.9000,-0.283449,209.348,0.163462
317.8000,1.25001,209.202,0.161379
317.7000,1.55181,209.051,0.15923
317.6000,3.01514,209.019,0.158777
317.5000,0.126465,209.352,0.163527
317.4000,0.383691,209.275,0.162429
317.3000,0.777075,209.385,0.163995
317.2000,0.347494,209.9,0.171317
317.1000,1.23309,208.663,0.153698
317.0000,1.07859,209.076,0.159585
316.9000,0.51909,209.203,0.161395
316.8000,-0.458908,208.747,0.154895
316.7000,0.849263,209.174,0.160992
316.6000,-0.0202365,209.411,0.164367
316.5000,0.343131,208.455,0.150717
316.4000,0.734535,209.254,0.162122
316.3000,1.63614,208.522,0.151673
316.2000,1.31722,209.577,0.166723
316.1000,1.39972,209.058,0.159327
316.0000,0.796607,208.616,0.153017
315.9000,1.46177,210.286,0.176807
315.8000,1.00474,209.144,0.160555
315.7000,0.419226,208.345,0.149145
315.6000,2.52601,209.011,0.158664
315.5000,0.322515,208.314,0.148708
315.4000,0.545741,207.527,0.137423
315.3000,0.814476,210.318,0.177257
315.2000,-0.43111,209.086,0.159731
315.1000,1.54829,210.508,0.179958
315.0000,1.15052,209.089,0.15978
314.9000,0.243392,208.733,0.154685
314.8000,0.308905,208.483,0.151123
314.7000,2.07398,207.564,0.13796
314.6000,2.09626,208.554,0.152127
314.5000,2.27326,207.962,0.143663
314.4000,0.153314,208.501,0.151382
314.3000,1.53351,208.785,0.155429
314.2000,-0.326843,208.737,0.15475
314.1000,1.43327,207.836,0.14186
314.0000,-0.117235,208.74,0.154798
313.9000,-0.411631,208.585,0.15258
313.8000,1.53558,207.189,0.132574
313.7000,0.168593,208.311,0.148659
313.6000,1.29487,208.605,0.152855
313.5000,-0.23931,208.677,0.153892
313.4000,1.30643,208.752,0.15496
313.3000,2.14083,208.594,0.15271
313.2000,2.96894,208.146,0.146291
313.1000,0.664216,207.996,0.14415
313.0000,1.88187,207.508,0.137147
312.9000,1.72566,208.462,0.150815
312.8000,-0.216475,207.992,0.144085
312.7000,1.05001,208.542,0.151965
312.6000,0.805861,208.564,0.152273
312.5000,0.573577,207.888,0.142607
312.4000,1.11909,209.323,0.163107
312.3000,1.67988,208.111,0.145789
312.2000,0.22267,207.415,0.135813
312.1000,0.369327,208.239,0.147622
312.0000,-0.488337,208.622,0.153098
311.9000,1.14088,208.844,0.156271
311.8000,1.42141,207.675,0.139553
311.7000,1.50833,209.349,0.163479
311.6000,2.12408,207.681,0.139634
311.5000,1.58995,208.729,0.154636
311.4000,2.14043,208.431,0.150377
311.3000,1.79758,208.901,0.157096
311.2000,0.419536,207.772,0.140934
311.1000,0.911934,209.136,0.160442
311.0000,1.82332,209.317,0.163027
310.9000,2.18778,208.147,0.146308
310.8000,1.23077,208.319,0.148773
310.7000,1.39899,209.293,0.162688
310.6000,-0.925919,208.493,0.151268
310.5000,1.10787,208.748,0.154912
310.4000,1.11256,209.393,0.164108
310.3000,1.57456,208.039,0.144766
310.2000,1.83483,209.322,0.163091
310.1000,-0.0903136,207.815,0.141551
310.0000,-0.888098,208.727,0.154604
309.9000,1.31088,210.139,0.174715
309.8000,0.432572,209.944,0.171945
309.7000,0.794703,207.657,0.139293
309.6000,1.65573,208.602,0.152823
309.5000,1.22695,208.891,0.15695
309.4000,-0.16696,208.457,0.15075
309.3000,0.941527,208.91,0.157225
309.2000,2.14943,208.556,0.152159
309.1000,1.5304,209.312,0.162946
309.0000,1.10504,208.836,0.156157
308.9000,0.911196,208.078,0.145318
308.8000,2.52403,208.163,0.146535
308.7000,0.949606,207.47,0.13661
308.6000,2.45142,208.541,0.151949
308.5000,0.686053,209.338,0.163317
308.4000,1.04696,207.939,0.143338
308.3000,1.98457,208.629,0.153212
308.2000,2.63316,208.995,0.158438
308.1000,0.23966,208.082,0.145383
308.0000,-0.116206,209.271,0.162365
307.9000,1.09598,208.644,0.153422
307.8000,1.23185,208.799,0.15564
307.7000,0.696799,207.888,0.142607
307.6000,0.987233,208.892,0.156966
307.5000,0.00832316,207.701,0.139927
307.4000,1.2741,207.417,0.135846
307.3000,0.947704,208.689,0.15407
307.2000,1.89245,208.701,0.154232
307.1000,1.32111,208.18,0.146778
307.0000,-0.333761,208.291,0.148367
306.9000,1.78012,208.358,0.149324
306.8000,1.35985,208.65,0.153503
306.7000,0.750287,208.361,0.149372
306.6000,0.890698,208.228,0.147476
306.5000,0.34367,208.039,0.144766
306.4000,-0.0867235,208.31,0.148643
306.3000,0.691705,207.883,0.142526
306.2000,-0.122214,208.623,0.153114
306.1000,1.43627,208.972,0.158098
306.0000,-0.297936,208.521,0.151657
305.9000,1.37381,209.067,0.159456
305.8000,2.13248,208.699,0.154199
305.7000,2.10661,208.208,0.147183
305.6000,0.354401,208.62,0.153082
305.5000,1.93181,208.223,0.147394
305.4000,0.598705,208.031,0.144653
305.3000,0.132101,208.437,0.150458
305.2000,-0.341217,208.436,0.150442
305.1000,1.10075,208.873,0.156691
305.0000,0.44022,208.02,0.14449
304.9000,-2.24128,209.433,0.164673
304.8000,0.0204697,208.512,0.151528
304.7000,3.11485,208.503,0.151398
304.6000,1.42852,208.358,0.149324
304.5000,1.05887,208.507,0.151463
304.4000,2.40715,207.893,0.142672
304.3000,1.0122,208.275,0.14814
304.2000,0.0620874,208.445,0.150572
304.1000,0.461741,209.148,0.16062
304.0000,1.02527,208.207,0.147167
303.9000,0.514405,208.235,0.147573
303.8000,0.837034,208.372,0.149534
303.7000,-0.104141,208.064,0.145123
303.6000,0.905197,207.903,0.142818
303.5000,1.24101,207.384,0.135374
303.4000,0.728974,206.691,0.125402
303.3000,-0.474665,206.793,0.12687
303.2000,1.07899,208.355,0.149291
303.1000,0.713884,208.022,0.144523
303.0000,0.567441,208.251,0.1478
302.9000,1.69059,206.943,0.129039
302.8000,0.662764,208.72,0.154507
302.7000,1.15097,207.73,0.140333
302.6000,1.4059,207.884,0.142542
302.5000,2.62293,208.158,0.14647
302.4000,0.7672,208.242,0.14767
302.3000,-0.182897,208.061,0.145075
302.2000,1.76714,207.414,0.135797
302.1000,0.147927,208.348,0.149194
302.0000,0.633853,207.678,0.139586
301.9000,0.312821,208.748,0.154912
301.8000,0.269302,208.471,0.150944
301.7000,0.73566,207.755,0.14069
301.6000,2.37699,208.257,0.147881
301.5000,0.288018,208.725,0.154571
301.4000,1.58098,208.276,0.148156
301.3000,0.279624,208.401,0.14994
301.2000,2.7281,207.863,0.14225
301.1000,0.107775,208.904,0.157128
301.0000,1.26056,208.314,0.148708
300.9000,1.68161,208.864,0.156562
300.8000,1.35819,207.817,0.141584
300.7000,0.212228,208.012,0.144377
300.6000,0.95958,208.211,0.147232
300.5000,0.284082,207.485,0.136822
300.4000,-0.206319,208.572,0.152386
300.3000,2.52113,207.198,0.132704
300.2000,0.640664,208.308,0.148611
300.1000,1.54456,208.385,0.149713
300.0000,1.73503,208.053,0.144961
299.9000,-0.134524,207.711,0.140057
299.8000,1.907,208.113,0.145821
299.7000,0.86907,207.729,0.140317
299.6000,-0.405876,208.718,0.154474
299.5000,1.2357,207.982,0.143955
299.4000,0.917013,208.774,0.155284
299.3000,1.3641,207.779,0.141031
299.2000,-0.128275,207.842,0.141941
299.1000,2.18464,207.502,0.137066
299.0000,1.59002,208.369,0.149486
298.9000,-0.523944,207.79,0.141194
298.8000,0.3157,207.9,0.14277
298.7000,1.87257,207.544,0.137667
298.6000,-0.536234,207.321,0.134462
298.5000,1.12653,207.5,0.137033
298.4000,0.388176,205.603,0.109704
298.3000,1.77136,206.902,0.128436
298.2000,2.86707,207.347,0.134837
298.1000,0.390045,205.894,0.113913
298.0000,1.06114,206.982,0.129593
297.9000,1.97686,207.149,0.131988
297.8000,1.38044,207.249,0.133437
297.7000,-1.6993,207.132,0.131743
297.6000,-0.443625,207.708,0.140024
297.5000,0.211897,209.155,0.160717
297.4000,3.06024,207.546,0.1377
297.3000,0.87704,208.549,0.152062
297.2000,0.301638,207.362,0.135048
297.1000,1.20686,207.968,0.143744
297.0000,0.223494,207.696,0.139846
296.9000,1.88629,206.886,0.128207
296.8000,0.406504,207.405,0.135666
296.7000,-0.000785811,207.236,0.133242
296.6000,1.90493,207.153,0.132053
296.5000,0.701589,207.381,0.135325
296.4000,1.26296,208.084,0.145415
296.3000,1.02229,207.644,0.139098
296.2000,0.878922,207.334,0.134658
296.1000,0.573295,208.062,0.145091
296.0000,1.10329,207.848,0.142023
295.9000,1.9164,207.538,0.137586
295.8000,0.544689,207.732,0.140365
295.7000,1.75655,207.571,0.138057
295.6000,0.940149,207.548,0.137732
295.5000,0.0918234,207.802,0.141373
295.4000,0.600205,207.657,0.139293
295.3000,0.89443,207.943,0.143386
295.2000,0.906418,207.546,0.1377
295.1000,-0.683451,207.984,0.143971
295.0000,0.719238,207.825,0.141698
294.9000,1.06887,207.717,0.140154
294.8000,1.31375,208.062,0.145091
294.7000,1.027,207.257,0.133551
294.6000,1.08542,207.912,0.142948
294.5000,1.35693,207.25,0.133453
294.4000,0.118293,208.627,0.153179
294.3000,0.506115,208.037,0.144734
294.2000,0.577583,206.364,0.1207
294.1000,1.10584,207.692,0.139797
294.0000,1.20832,207.485,0.136822
293.9000,1.70968,207.968,0.143744
293.8000,1.22203,208.257,0.147881
293.7000,-1.06698,207.962,0.143663
293.6000,0.717778,207.798,0.141308
293.5000,1.37427,208.755,0.155009
293.4000,0.601979,208.324,0.148838
293.3000,-0.509754,207.627,0.138854
293.2000,0.392557,207.924,0.14311
293.1000,1.16353,207.366,0.135113
293.0000,-0.83063,208.19,0.146924
292.9000,2.08099,208.237,0.147605
292.8000,0.597467,207.604,0.138529
292.7000,1.63862,207.26,0.133583
292.6000,0.201607,206.533,0.123133
292.5000,-1.30726,206.78,0.126691
292.4000,1.27261,207.653,0.139228
292.3000,1.31794,208.132,0.146097
292.2000,0.958092,207.305,0.134234
292.1000,-0.139419,207.933,0.14324
292.0000,-0.694804,207.236,0.133242
291.9000,-1.36028,208.116,0.14587
291.8000,0.936053,207.334,0.134658
291.7000,1.99868,206.231,0.118771
291.6000,1.18248,207.505,0.137114
291.5000,-0.294247,208.35,0.14921
291.4000,0.744663,207.571,0.138057
291.3000,0.126486,207.136,0.131808
291.2000,-0.194412,208.564,0.152273
291.1000,0.565647,207.347,0.134837
291.0000,0.156864,207.938,0.143322
290.9000,0.138358,208.971,0.158082
290.8000,0.805385,208.513,0.151544
290.7000,-1.60342,206.994,0.129772
290.6000,-0.156928,207.35,0.134885
290.5000,-0.117257,207.794,0.141259
290.4000,0.512947,207.572,0.138074
290.3000,-0.164541,208.739,0.154782
290.2000,-0.696861,208.172,0.146665
290.1000,-0.0877739,207.823,0.141665
290.0000,1.91504,207.971,0.143792
289.9000,0.527744,207.147,0.131971
289.8000,0.422714,208.09,0.145496
289.7000,-0.632373,208.07,0.145204
289.6000,0.902138,208.149,0.14634
289.5000,-0.0609365,208.721,0.154523
289.4000,1.56504,208.105,0.145707
289.3000,2.40824,208.152,0.146389
289.2000,-0.511552,207.869,0.142331
289.1000,1.92673,207.453,0.136366
289.0000,1.13507,208.62,0.153082
288.9000,0.802816,207.33,0.134592
288.8000,-0.260467,207.678,0.139586
288.7000,-0.367502,207.582,0.13822
288.6000,-0.869303,208.219,0.147346
288.5000,-0.435526,208.75,0.154928
288.4000,0.382186,208.84,0.156222
288.3000,2.55282,208.148,0.146324
288.2000,1.01149,208.745,0.154863
288.1000,0.869703,208.599,0.152775
288.0000,0.645648,208.811,0.155802
287.9000,-0.0662821,208.78,0.155365
287.8000,1.27884,208.299,0.148481
287.7000,0.918311,207.723,0.140236
287.6000,2.23535,209.543,0.166239
287.5000,0.631435,208.362,0.149388
287.4000,1.83311,207.462,0.136496
287.3000,1.82864,207.652,0.139212
287.2000,-0.76855,207.552,0.137781
287.1000,0.556813,207.782,0.14108
287.0000,0.435773,207.75,0.140625
286.9000,0.448019,208.275,0.14814
286.8000,-0.317478,209.031,0.158939
286.7000,2.54033,208.194,0.146989
286.6000,1.96516,207.742,0.140512
286.5000,1.41593,207.722,0.140219
286.4000,2.64031,206.153,0.117643
286.3000,1.31991,209.679,0.168174
286.2000,0.800945,207.274,0.133795
286.1000,1.46231,208.666,0.15373
286.0000,2.65774,208.551,0.152094
285.9000,1.24072,207.011,0.130016
285.8000,-0.48502,209.035,0.159004
285.7000,1.5599,208.639,0.153341
285.6000,1.27181,209.043,0.159117
285.5000,0.487134,208.881,0.156804
285.4000,1.42816,208.714,0.154426
285.3000,1.48336,209.221,0.161654
285.2000,0.528418,208.326,0.14887
285.1000,1.90456,208.567,0.152321
285.0000,-1.12315,207.822,0.141649
284.9000,-0.211727,208.43,0.150361
284.8000,0.340948,209.688,0.168303
284.7000,2.18603,208.906,0.15716
284.6000,1.15667,207.452,0.13635
284.5000,1.32487,208.035,0.144701
284.4000,0.673279,208.669,0.153779
284.3000,1.07779,209.238,0.161896
284.2000,0.952045,208.772,0.155251
284.1000,-0.00607995,208.584,0.152564
284.0000,0.815151,209.14,0.160507
283.9000,-0.406465,209.794,0.169818
283.8000,-0.999865,209.21,0.161492
283.7000,2.05023,208.752,0.15496
283.6000,1.52917,208.124,0.145983
283.5000,0.837102,209.672,0.168077
283.4000,1.8502,209.123,0.160264
283.3000,1.43784,208.403,0.149972
283.2000,1.5495,207.801,0.141356
283.1000,-1.44658,207.658,0.139309
283.0000,0.359987,208.25,0.147784
282.9000,0.452284,208.326,0.14887
282.8000,1.08243,208.691,0.154086
282.7000,-0.903911,208.436,0.150442
282.6000,1.17598,208.959,0.15792
282.5000,-0.466208,209.34,0.16335
282.4000,1.57332,208.759,0.155057
282.3000,-0.00323579,208.513,0.151544
282.2000,1.42586,209.034,0.158987
282.1000,-0.212442,207.967,0.143728
282.0000,1.56836,207.792,0.141227
281.9000,0.834861,207.57,0.138041
281.8000,1.60701,208.182,0.146811
281.7000,1.66816,207.851,0.142071
281.6000,1.6199,207.169,0.132281
281.5000,0.782916,208.462,0.150815
281.4000,0.330913,208.514,0.15156
281.3000,1.98975,209.525,0.165981
281.2000,1.01914,207.648,0.139163
281.1000,-0.460879,208.879,0.156772
281.0000,0.767189,207.953,0.143533
280.9000,0.492664,208.973,0.158114
280.8000,0.211493,208.292,0.148384
280.7000,-1.37644,209.101,0.159941
280.6000,0.779351,208.746,0.154879
280.5000,0.2329,208.122,0.145951
280.4000,1.44281,208.497,0.151317
280.3000,0.253635,208.846,0.156303
280.2000,0.976743,208.98,0.158211
280.1000,0.731199,209.097,0.159893
280.0000,-0.239568,208.314,0.148708
279.9000,1.16858,209.37,0.163785
279.8000,-0.602636,207.916,0.142997
279.7000,0.179617,208.632,0.153244
279.6000,-0.427682,209.763,0.169367
279.5000,1.15703,208.29,0.148351
279.4000,-0.0101975,207.589,0.138318
279.3000,-0.736563,207.831,0.141779
279.2000,0.0628456,208.09,0.145496
279.1000,-0.807233,208.016,0.144442
279.0000,1.32006,208.671,0.153811
278.9000,0.162719,208.888,0.156901
278.8000,1.48552,208.759,0.155057
278.7000,-0.832402,208.654,0.153568
278.6000,1.0319,208.552,0.152111
278.5000,2.30926,208.668,0.153762
278.4000,1.01584,208.479,0.151058
278.3000,1.44731,209.671,0.168061
278.2000,0.939779,208.678,0.153908
278.1000,-0.946962,208.704,0.15428
278.0000,-0.657581,208.893,0.156982
277.9000,0.268445,209.103,0.159973
277.8000,-0.817591,209.564,0.166545
277.7000,1.18436,208.711,0.154377
277.6000,2.02735,208.93,0.1575
277.5000,1.43428,208.91,0.157225
277.4000,1.31546,209.287,0.162591
277.3000,1.62521,208.943,0.157694
277.2000,-1.70736,207.911,0.142932
277.1000,-0.0405394,208.2,0.14707
277.0000,0.184322,209.489,0.16548
276.9000,0.216505,208.882,0.156821
276.8000,0.762692,209.102,0.159957
276.7000,0.883851,208.368,0.149469
276.6000,2.76786,208.392,0.14981
276.5000,0.99889,208.427,0.150312
276.4000,-1.11015,208.797,0.155607
276.3000,0.597621,209.514,0.165835
276.2000,0.474838,208.731,0.154669
276.1000,-0.539015,207.488,0.13687
276.0000,0.581204,209.032,0.158955
275.9000,1.32433,210.272,0.176614
275.8000,0.80584,209.655,0.167836
275.7000,0.662591,208.259,0.147913
275.6000,-0.596785,207.582,0.13822
275.5000,-1.37666,208.924,0.157419
275.4000,0.0805842,208.197,0.147021
275.3000,1.22593,209.631,0.167497
275.2000,1.41082,208.838,0.15619
275.1000,2.27361,208.565,0.152289
275.0000,1.6868,208.027,0.144588
274.9000,0.843145,208.415,0.15015
274.8000,1.20195,208.139,0.146194
274.7000,0.281432,208.791,0.155526
274.6000,2.15353,208.445,0.150572
274.5000,-1.14986,208.632,0.153244
274.4000,1.37174,208.09,0.145496
274.3000,0.214662,208.929,0.157484
274.2000,1.24915,208.067,0.145172
274.1000,-0.745771,209.146,0.160588
274.0000,-0.469551,208.51,0.151511
273.9000,-0.436312,208.554,0.152127
273.8000,0.345673,208.167,0.1466
273.7000,-0.264649,208.791,0.155526
273.6000,-0.284749,209.434,0.16469
273.5000,0.515261,208.418,0.150183
273.4000,-0.454099,209.068,0.159472
273.3000,-0.0958865,208.696,0.154167
273.2000,-0.268552,208.965,0.158001
273.1000,-0.924813,208.9,0.157079
273.0000,-0.886033,209.886,0.171124
272.9000,1.80683,208.661,0.153665
272.8000,1.18995,210.003,0.172783
272.7000,0.536806,207.848,0.142023
272.6000,0.883689,208.873,0.156691
272.5000,-1.3665,207.511,0.137195
272.4000,0.670866,208.648,0.153471
272.3000,0.176071,209.118,0.160184
272.2000,-0.555025,208.633,0.15326
272.1000,0.768848,209.37,0.163785
272.0000,0.798209,208.651,0.153519
271.9000,0.917719,209.449,0.164899
271.8000,-0.706282,208.83,0.156077
271.7000,0.0981621,208.891,0.15695
271.6000,-0.427359,209.523,0.165964
271.5000,1.37404,207.952,0.143516
271.4000,0.336125,210.091,0.174039
271.3000,1.82472,210.455,0.179203
271.2000,0.468419,208.956,0.157872
271.1000,1.92327,208.412,0.150102
271.0000,1.1463,208.888,0.156901
270.9000,-1.14685,208.143,0.146259
270.8000,-0.022889,209.459,0.165045
270.7000,0.914643,210.077,0.173845
270.6000,2.25806,208.96,0.157937
270.5000,-0.1885,208.269,0.148059
270.4000,2.33016,210.236,0.176099
270.3000,0.647349,209.959,0.172155
270.2000,-0.773047,208.736,0.154733
270.1000,-0.149616,209.909,0.171446
270.0000,0.915461,208.842,0.156254
269.9000,1.28133,209.629,0.167465
269.8000,0.366822,208.939,0.157629
269.7000,-0.28099,209.671,0.168061
269.6000,1.63941,209.042,0.159101
269.5000,-0.457041,209.436,0.164722
269.4000,0.489785,208.776,0.1553
269.3000,-1.99698,209.926,0.171687
269.2000,-0.539008,208.032,0.144669
269.1000,-1.44134,208.794,0.155559
269.0000,-0.476076,209.471,0.165222
268.9000,0.782084,209.016,0.158729
268.8000,0.661634,210.836,0.1846
268.7000,0.785822,209.467,0.165157
268.6000,0.0913874,209.469,0.16519
268.5000,-0.503628,208.951,0.157807
268.4000,-0.900666,210.05,0.173459
268.3000,0.663895,208.723,0.154555
268.2000,0.294052,209.547,0.166303
268.1000,-0.728394,208.555,0.152143
268.0000,0.613433,209.258,0.162187
267.9000,0.597238,209.233,0.161831
267.8000,1.98529,209.207,0.16146
267.7000,0.868891,210.153,0.174924
267.6000,0.298261,209.595,0.166981
267.5000,-0.251384,208.578,0.152483
267.4000,-0.338737,209.657,0.167868
267.3000,1.32321,209.359,0.163624
267.2000,0.893346,209.591,0.166932
267.1000,0.307127,209.055,0.159295
267.0000,-0.160774,209.051,0.15923
266.9000,-1.28079,209.836,0.170415
266.8000,-0.532802,209.242,0.161961
266.7000,1.55745,209.991,0.172622
266.6000,1.18379,209.5,0.165625
266.5000,-0.770463,209.895,0.171253
266.4000,0.0165803,209.199,0.161347
266.3000,-0.286007,209.837,0.170431
266.2000,-0.0475634,209.776,0.169561
266.1000,2.44524,208.227,0.147459
266.0000,-0.23377,209.698,0.168448
265.9000,0.831545,209.285,0.162574
265.8000,0.866371,209.556,0.166432
265.7000,-1.03897,210.322,0.177321
265.6000,0.352194,210.871,0.185098
265.5000,0.195144,209.493,0.165529
265.4000,0.350408,210.795,0.184022
265.3000,1.234,209.607,0.167158
265.2000,0.435975,208.788,0.155478
265.1000,1.38759,210.218,0.175841
265.0000,1.61185,209.256,0.162154
264.9000,-0.277132,210.95,0.186221
264.8000,0.180342,209.35,0.163495
264.7000,0.616307,210.258,0.176404
264.6000,0.811787,210.562,0.18073
264.5000,0.384415,210.372,0.178029
264.4000,0.191027,210.602,0.181292
264.3000,0.108555,209.853,0.170657
264.2000,0.355601,209.991,0.172622
264.1000,0.53419,209.777,0.169577
264.0000,1.74652,210.025,0.173105
263.9000,-0.660909,209.247,0.162025
263.8000,-0.364339,210.319,0.177273
263.7000,0.295351,210.066,0.173684
263.6000,2.06438,210.194,0.175503
263.5000,-0.209182,210.812,0.184263
263.4000,-1.49575,209.645,0.16769
263.3000,-0.505695,210.44,0.178994
263.2000,-0.755401,211.049,0.187617
263.1000,-1.16516,210.752,0.183412
263.0000,0.3091,209.983,0.172509
262.9000,-0.414733,210.393,0.178318
262.8000,-1.37468,210.262,0.176469
262.7000,1.53126,209.816,0.170125
262.6000,-0.444635,211.739,0.197371
262.5000,-0.877773,209.034,0.158987
262.4000,-0.183143,209.879,0.171027
262.3000,-0.101928,210.508,0.179958
262.2000,0.474144,212.03,0.20148
262.1000,0.925766,211.509,0.194122
262.0000,1.16237,209.794,0.169818
261.9000,0.43493,209.375,0.16385
261.8000,-0.542729,211.189,0.189605
261.7000,0.405797,210.604,0.181324
261.6000,0.607434,212.98,0.21486
261.5000,-0.569775,212.417,0.20694
261.4000,0.183034,211.141,0.188932
261.3000,0.457133,211.265,0.190679
261.2000,0.744969,211.352,0.191912
261.1000,0.599549,211.138,0.188883
261.0000,0.291017,211.696,0.196763
260.9000,-0.265762,210.582,0.181003
260.8000,-0.142342,211.296,0.191111
260.7000,0.595151,210.654,0.182031
260.6000,-0.132734,212.08,0.202183
260.5000,0.568345,211.654,0.196171
260.4000,-1.50416,211.455,0.19337
260.3000,0.293144,211.308,0.191287
260.2000,2.17202,210.942,0.186109
260.1000,0.830072,211.215,0.189974
260.0000,0.378433,211.601,0.195435
259.9000,-0.273169,211.411,0.192745
259.8000,0.148852,212.976,0.214796
259.7000,-1.73657,211.54,0.194571
259.6000,0.198099,211.114,0.188547
259.5000,1.18395,211.161,0.189204
259.4000,-1.09542,211.42,0.192873
259.3000,-0.431492,211.791,0.198107
259.2000,1.00247,211.221,0.190054
259.1000,-0.327722,211.781,0.197963
259.0000,1.95485,211.309,0.191304
258.9000,0.20558,211.558,0.194827
258.8000,-0.0806347,211.539,0.194555
258.7000,-0.335138,211.4,0.192585
258.6000,1.48703,211.669,0.196395
258.5000,-0.813302,212.005,0.201128
258.4000,0.498066,212.075,0.202119
258.3000,-0.678317,212.158,0.203284
258.2000,-0.0866071,212.184,0.203652
258.1000,-0.943674,211.974,0.200696
258.0000,0.229777,209.207,0.16146
257.9000,0.975125,211.927,0.200025
257.8000,-0.251775,210.879,0.18521
257.7000,0.253668,212.137,0.202997
257.6000,1.2324,213.891,0.227636
257.5000,-0.311827,212.533,0.208567
257.4000,0.634886,211.486,0.193802
257.3000,-0.235305,212.269,0.204849
257.2000,0.684727,211.522,0.194314
257.1000,2.4086,211.974,0.200696
257.0000,0.597582,211.48,0.193722
256.9000,-1.08594,211.971,0.200648
256.8000,2.20119,213.235,0.21844
256.7000,-0.144014,211.268,0.190727
256.6000,0.194985,212.313,0.205472
256.5000,-0.0463356,212.704,0.210974
256.4000,-0.722038,213.25,0.218646
256.3000,-1.37901,212.473,0.207721
256.2000,1.64484,212.041,0.201639
256.1000,-0.807442,212.531,0.208535
256.0000,-0.0957802,212.774,0.211961
255.9000,-0.0844871,211.121,0.188643
255.8000,-0.69939,212.135,0.202965
255.7000,-0.100468,213.148,0.217215
255.6000,0.419647,211.4,0.192585
255.5000,-1.10048,213.311,0.219505
255.4000,-0.140925,212.955,0.21451
255.3000,1.1004,212.763,0.211802
255.2000,1.3252,213.065,0.216054
255.1000,0.438893,212.327,0.205663
255.0000,0.386887,212.429,0.207099
254.9000,0.629097,212.897,0.213682
254.8000,-0.163144,212.463,0.207578
254.7000,1.6563,212.856,0.213109
254.6000,-0.815541,212.753,0.211659
254.5000,0.862616,213.118,0.216786
254.4000,-1.04613,211.801,0.19825
254.3000,-0.697945,212.259,0.204705
254.2000,0.42692,213.428,0.221142
254.1000,2.00114,213.524,0.222493
254.0000,0.852738,213.767,0.225891
253.9000,-1.59569,212.866,0.213252
253.8000,1.50303,213.43,0.221174
253.7000,-1.70156,211.814,0.198443
253.6000,1.3562,213.01,0.215274
253.5000,0.52175,212.719,0.211181
253.4000,-0.809409,213.368,0.2203
253.3000,-0.356508,214.118,0.230807
253.2000,-2.33508,213.019,0.215401
253.1000,0.948687,213.028,0.215528
253.0000,1.36319,213.139,0.217088
252.9000,0.862791,213.079,0.216245
252.8000,0.571141,213.167,0.217486
252.7000,0.808911,213.491,0.222032
252.6000,0.0561135,213.085,0.216324
252.5000,0.0672601,214.348,0.234023
252.4000,-0.00648276,213.897,0.227715
252.3000,-0.608983,213.38,0.220475
252.2000,1.03456,213.106,0.216626
252.1000,2.47801,212.695,0.210846
252.0000,-0.371672,213.749,0.225637
251.9000,0.529907,214.475,0.235796
251.8000,-1.53411,214.5,0.236144
251.7000,-0.614491,214.445,0.235385
251.6000,-1.75401,213.442,0.221333
251.5000,-0.568889,213.391,0.220618
251.4000,-1.64682,213.834,0.226827
251.3000,0.00996624,214.425,0.2351
251.2000,-0.533782,213.846,0.227001
251.1000,-0.806414,214.729,0.23934
251.0000,-2.26841,214.375,0.234403
250.9000,0.624213,214.151,0.231267
250.8000,0.0522108,213.561,0.223001
250.7000,-0.65046,214.166,0.231473
250.6000,1.50169,213.504,0.222207
250.5000,1.86337,214.223,0.232281
250.4000,1.4012,213.578,0.223239
250.3000,0.296374,213.98,0.228873
250.2000,1.37026,213.817,0.226589
250.1000,0.888685,214.342,0.233944
250.0000,-0.70235,214.348,0.234023
249.9000,-0.792784,214.743,0.239545
249.8000,-0.193245,213.045,0.215767
249.7000,0.125777,213.541,0.222731
249.6000,-0.42091,213.862,0.227223
249.5000,0.756618,214.464,0.235638
249.4000,0.643624,214.379,0.234451
249.3000,-0.292369,214.64,0.238106
249.2000,0.611553,214.733,0.239403
249.1000,0.0234521,214.051,0.229872
249.0000,0.107322,214.394,0.234672
248.9000,-0.198174,214.755,0.239703
248.8000,-0.629591,215.2,0.245911
248.7000,0.0883873,214.755,0.239703
248.6000,0.480192,214.797,0.240288
248.5000,-0.147182,213.086,0.21634
248.4000,1.12562,214.909,0.241853
248.3000,-0.668711,213.978,0.228841
248.2000,-2.2308,214.558,0.236951
248.1000,-0.275425,215.037,0.243638
248.0000,-3.16222,214.828,0.240731
247.9000,-1.95632,214.36,0.234197
247.8000,-0.779971,214.639,0.23809
247.7000,-0.361189,214.723,0.239261
247.6000,0.377333,214.75,0.23964
247.5000,-1.75392,215.394,0.24861
247.4000,-1.22052,214.329,0.233754
247.3000,-0.391814,214.78,0.240051
247.2000,-2.09814,214.907,0.241822
247.1000,0.177575,215.213,0.246085
247.0000,-1.1633,215.485,0.249871
246.9000,-0.571659,215.316,0.247521
246.8000,-0.391342,215.037,0.243638
246.7000,-2.68412,216.301,0.261221
246.6000,-1.35234,215.278,0.247
246.5000,-0.660113,214.591,0.23741
246.4000,0.118056,215.468,0.249635
246.3000,-1.85839,215.584,0.251258
246.2000,-0.940652,215.704,0.252928
246.1000,-0.129861,215.275,0.246953
246.0000,-0.161489,215.934,0.256125
245.9000,-2.06797,215.071,0.244112
245.8000,-3.55405,214.012,0.229317
245.7000,-1.72403,216.022,0.257336
245.6000,-2.33821,216.516,0.26419
245.5000,-0.281838,216.87,0.269102
245.4000,-1.22525,216.71,0.26689
245.3000,-0.414376,216.356,0.261975
245.2000,-0.251971,217.407,0.276528
245.1000,-2.58672,215.892,0.255543
245.0000,-2.32041,215.685,0.252661
244.9000,-1.75391,215.217,0.246148
244.8000,-1.41312,215.929,0.256046
244.7000,-2.4317,216.571,0.264959
244.6000,-1.39496,216.687,0.266561
244.5000,-0.363696,216.919,0.269777
244.4000,-1.142,216.487,0.263798
244.3000,-2.32962,216.994,0.270811
244.2000,-3.67431,216.52,0.264253
244.1000,-1.65392,216.732,0.267188
244.0000,-2.7135,216.74,0.267298
243.9000,-2.45733,217.555,0.278563
243.8000,-1.86503,218.236,0.287952
243.7000,-2.65736,217.157,0.273068
243.6000,-2.86365,217.982,0.284455
243.5000,-3.2529,218.366,0.289745
243.4000,-5.78006,219.087,0.29965
243.3000,-1.87768,216.866,0.269039
243.2000,-4.17461,217.096,0.272222
243.1000,-4.31103,217.871,0.282924
243.0000,-4.56951,217.334,0.275511
242.9000,-4.1035,218.139,0.286625
242.8000,-4.5624,216.569,0.264928
242.7000,-2.75198,218.343,0.289433
242.6000,-3.72052,217.463,0.277295
242.5000,-3.83353,217.416,0.276654
242.4000,-3.53479,216.654,0.266106
242.3000,-4.61173,218.436,0.290712
242.2000,-3.23902,217.038,0.271423
242.1000,-5.47655,218.46,0.29104
242.0000,-4.06171,218.092,0.28597
241.9000,-4.33345,218.058,0.285501
241.8000,-5.98365,218.924,0.297426
241.7000,-5.63755,219.383,0.303723
241.6000,-5.81182,218.177,0.28714
241.5000,-5.6476,218.425,0.290556
241.4000,-4.68325,219.051,0.299168
241.3000,-3.63207,218.964,0.29797
241.2000,-7.66568,220.229,0.315293
241.1000,-5.61446,219.807,0.309528
241.0000,-4.85873,219.327,0.302946
240.9000,-5.97783,218.996,0.298406
240.8000,-6.9064,219.048,0.299121
240.7000,-7.29089,220.754,0.322472
240.6000,-5.93227,219.411,0.304096
240.5000,-7.12737,219.992,0.312055
240.4000,-7.90577,219.777,0.309109
240.3000,-5.65898,219.554,0.306068
240.2000,-9.69468,220.532,0.319441
240.1000,-6.39904,220.257,0.31568
240.0000,-7.09749,220.757,0.322503
239.9000,-8.30201,220.616,0.320585
239.8000,-7.07471,220.362,0.31712
239.7000,-7.16195,219.885,0.310598
239.6000,-9.27743,220.237,0.315402
239.5000,-8.5383,221.474,0.332273
239.4000,-8.18702,221.511,0.332781
239.3000,-10.6365,221.995,0.339356
239.2000,-10.9456,222.144,0.341371
239.1000,-9.45909,222.881,0.351367
239.0000,-10.9645,221.768,0.336278
238.9000,-10.2125,223.179,0.355398
238.8000,-11.0476,222.898,0.351597
238.7000,-12.291,222.589,0.347409
238.6000,-11.1215,223.05,0.353651
238.5000,-9.93013,222.438,0.345367
238.4000,-12.9984,222.874,0.351275
238.3000,-11.1782,223.137,0.354831
238.2000,-13.1575,224.079,0.367539
238.1000,-11.5206,223.059,0.353774
238.0000,-12.3158,223.576,0.360754
237.9000,-14.6914,223.329,0.357419
237.8000,-11.6878,222.964,0.352486
237.7000,-15.4104,224.365,0.371399
237.6000,-14.9102,223.294,0.356944
237.5000,-14.1862,224.274,0.370164
237.4000,-15.0089,223.46,0.359194
237.3000,-15.4483,225.561,0.387453
237.2000,-14.5344,223.623,0.361397
237.1000,-14.9943,224.797,0.377205
237.0000,-14.3605,224.625,0.37489
236.9000,-18.4943,225.921,0.392278
236.8000,-16.4108,225.361,0.384779
236.7000,-14.902,225.904,0.39205
236.6000,-16.5605,226.083,0.394445
236.5000,-17.4982,226.072,0.394294
236.4000,-17.6548,226.678,0.402393
236.3000,-18.1679,226.701,0.402695
236.2000,-18.1427,226.754,0.403406
236.1000,-18.8685,226.973,0.406322
236.0000,-18.6301,227.518,0.413581
235.9000,-19.0307,226.928,0.405733
235.8000,-20.1373,226.629,0.401743
235.7000,-19.5925,227.441,0.412556
235.6000,-20.9268,226.915,0.405552
235.5000,-19.3119,227.476,0.413023
235.4000,-20.2274,228.222,0.422946
235.3000,-19.6554,228.471,0.426237
235.2000,-22.3832,228.563,0.427469
235.1000,-23.4347,229.011,0.433397
235.0000,-22.4155,229.038,0.433756
234.9000,-24.7432,228.689,0.429136
234.8000,-22.3042,229.035,0.433711
234.7000,-23.7617,229.689,0.442352
234.6000,-24.2468,229.558,0.440632
234.5000,-25.3601,229.921,0.445417
234.4000,-23.7227,230.093,0.447688
234.3000,-26.6944,230.498,0.453017
234.2000,-24.5985,230.808,0.457101
234.1000,-24.585,230.682,0.455447
234.0000,-24.8707,230.935,0.458769
233.9000,-25.6568,230.681,0.455432
233.8000,-26.0385,231.025,0.459945
233.7000,-25.8649,232.24,0.475884
233.6000,-27.2128,231.15,0.461597
233.5000,-26.1849,231.928,0.47179
233.4000,-30.3541,232.102,0.474075
233.3000,-28.1789,232.545,0.479869
233.2000,-26.4869,232.535,0.479735
233.1000,-28.7767,232.237,0.475839
233.0000,-30.0114,231.699,0.468792
232.9000,-29.6677,233.633,0.494055
232.8000,-30.1537,232.584,0.480372
232.7000,-31.3915,233.656,0.49435
232.6000,-32.2192,233.697,0.494895
232.5000,-30.4992,234.338,0.503217
232.4000,-33.8094,234.442,0.50457
232.3000,-34.6256,234.815,0.509406
232.2000,-33.7301,235.3,0.515687
232.1000,-35.768,235.369,0.516581
232.0000,-35.202,234.804,0.509274
231.9000,-34.8862,235.172,0.51403
231.8000,-33.0411,235.643,0.520127
231.7000,-35.6055,235.795,0.522089
231.6000,-39.4263,237.277,0.541184
231.5000,-35.0204,236.512,0.531342
231.4000,-34.899,237.088,0.538752
231.3000,-39.0939,237.146,0.539509
231.2000,-37.867,236.804,0.535107
231.1000,-40.1554,236.187,0.52715
231.0000,-38.9714,237.046,0.538213
230.9000,-37.0431,237.535,0.544503
230.8000,-38.6092,238.116,0.551959
230.7000,-41.4347,238.033,0.550884
230.6000,-41.4204,239.445,0.56895
230.5000,-42.8504,239.204,0.565871
230.4000,-41.2211,237.748,0.547237
230.3000,-40.4789,238.522,0.557153
230.2000,-40.9788,238.226,0.553367
230.1000,-43.7257,238.266,0.553875
230.0000,-43.3827,239.688,0.572042
229.9000,-44.2531,239.972,0.575665
229.8000,-42.525,239.86,0.574236
229.7000,-44.4356,240.146,0.577871
229.6000,-44.6861,240.089,0.57715
229.5000,-45.2897,240.446,0.58169
229.4000,-45.6824,240.969,0.588338
229.3000,-46.3822,240.453,0.581776
229.2000,-48.6274,242.32,0.605435
229.1000,-46.9898,242.173,0.603574
229.0000,-47.2861,243.172,0.616181
228.9000,-45.9547,241.593,0.596237
228.8000,-48.5924,242.788,0.611341
228.7000,-47.7633,242.641,0.609483
228.6000,-48.3564,242.508,0.60781
228.5000,-47.084,242.975,0.613697
228.4000,-51.3645,244.498,0.632838
228.3000,-48.3182,243.728,0.62318
228.2000,-49.7538,243.932,0.625743
228.1000,-50.42,245.014,0.63931
228.0000,-52.3362,244.903,0.63792
227.9000,-49.8187,245.729,0.648247
227.8000,-52.2887,245.503,0.645416
227.7000,-52.2891,245.374,0.643802
227.6000,-51.3946,245.531,0.64577
227.5000,-53.1353,246.109,0.652983
227.4000,-52.8484,246.472,0.657501
227.3000,-55.3764,247.108,0.665423
227.2000,-54.2184,246.144,0.65342
227.1000,-53.5263,247.184,0.666366
227.0000,-57.0672,247.573,0.671191
226.9000,-56.8512,247.3,0.667801
226.8000,-56.0297,248.262,0.679729
226.7000,-56.0714,247.648,0.672119
226.6000,-55.528,248.792,0.686287
226.5000,-55.7611,249.314,0.692737
226.4000,-56.5953,249.667,0.697081
226.3000,-57.9902,248.43,0.681804
226.2000,-59.2962,249.811,0.698854
226.1000,-58.6274,248.58,0.683668
226.0000,-61.8655,249.329,0.692918
225.9000,-58.9281,251.479,0.719338
225.8000,-55.2738,250.239,0.704125
225.7000,-58.7288,249.823,0.699007
225.6000,-60.2786,250.36,0.705615
225.5000,-62.7278,251.132,0.715089
225.4000,-58.9958,251.641,0.721322
225.3000,-58.1045,253.397,0.742759
225.2000,-59.8497,252.195,0.728098
225.1000,-60.9722,252.607,0.733134
225.0000,-63.8627,251.766,0.722861
224.9000,-58.3321,252.12,0.727184
224.8000,-59.9285,253.382,0.742579
224.7000,-61.4714,251.723,0.722334
224.6000,-63.3667,252.67,0.733895
224.5000,-59.3392,254.119,0.751533
224.4000,-62.3713,254.708,0.75868
224.3000,-62.3784,254.198,0.752496
224.2000,-62.5643,254.272,0.75339
224.1000,-61.0511,253.758,0.747155
224.0000,-62.0548,253.848,0.748243
223.9000,-59.3194,253.245,0.74091
223.8000,-63.6923,255.531,0.768636
223.7000,-65.9377,255.75,0.771292
223.6000,-62.5336,256.413,0.779289
223.5000,-63.2257,255.704,0.770731
223.4000,-58.8935,255.995,0.774247
223.3000,-64.6707,257.064,0.78712
223.2000,-61.4549,257.292,0.789871
223.1000,-66.6963,257.427,0.791492
223.0000,-64.8209,257.153,0.788196
222.9000,-64.9787,256.208,0.776817
222.8000,-64.8426,258.193,0.800681
222.7000,-64.621,259.671,0.818345
222.6000,-65.762,257.922,0.797435
222.5000,-65.1841,258.113,0.799717
222.4000,-63.5081,258.044,0.798889
222.3000,-64.4166,259.273,0.813599
222.2000,-66.7744,259.361,0.814654
222.1000,-65.8124,259.965,0.821857
222.0000,-64.2453,259.3,0.813924
221.9000,-64.669,259.45,0.815709
221.8000,-66.8091,260.567,0.829019
221.7000,-64.1871,260.29,0.82573
221.6000,-63.5551,260.135,0.823882
221.5000,-66.9514,261.234,0.836948
221.4000,-65.319,261.114,0.835522
221.3000,-62.3141,261.144,0.835872
221.2000,-67.9288,263.276,0.8611
221.1000,-64.6649,262.991,0.857732
221.0000,-64.8243,263.004,0.857893
220.9000,-60.2983,262.5,0.851938
220.8000,-65.4318,263.618,0.865133
220.7000,-63.7192,264.149,0.871374
220.6000,-66.3529,263.698,0.866067
220.5000,-65.6954,264.252,0.872586
220.4000,-63.1844,264.417,0.87453
220.3000,-64.7487,265.373,0.885749
220.2000,-63.99,265.346,0.88543
220.1000,-62.6216,265.559,0.887925
220.0000,-62.7692,265.76,0.890272
219.9000,-64.6913,266.584,0.899897
219.8000,-64.5263,265.622,0.888654
219.7000,-64.2746,265.909,0.892021
219.6000,-65.2118,268.142,0.918034
219.5000,-66.3896,266.517,0.899117
219.4000,-67.4563,267.413,0.909563
219.3000,-62.8034,267.314,0.908416
219.2000,-61.5238,268.036,0.91681
219.1000,-60.9083,267.598,0.911712
219.0000,-63.3231,269.053,0.928599
218.9000,-63.1046,269.101,0.929163
218.8000,-65.295,269.008,0.928087
218.7000,-63.9631,269.195,0.930251
218.6000,-63.6144,269.731,0.93645
218.5000,-60.6909,269.084,0.928966
218.4000,-66.1463,269.66,0.935625
218.3000,-64.4428,271.203,0.953421
218.2000,-68.935,269.959,0.939081
218.1000,-59.6306,271.239,0.953838
218.0000,-64.987,271.238,0.953825
217.9000,-61.7673,270.977,0.950813
217.8000,-61.184,271.857,0.960935
217.7000,-66.1878,273.26,0.977006
217.6000,-60.2346,273.814,0.983335
217.5000,-64.3534,272.241,0.965342
217.4000,-64.1415,273.852,0.983774
217.3000,-61.0002,273.394,0.978547
217.2000,-62.5338,274.39,0.989911
217.1000,-60.5587,275.032,0.997211
217.0000,-64.6471,274.813,0.994723
216.9000,-64.4178,275.063,0.997572
216.8000,-63.2966,275.506,1.00261
216.7000,-66.9342,275.855,1.00657
216.6000,-61.7829,275.845,1.00645
216.5000,-69.0044,275.31,1.00038
216.4000,-63.6121,277.367,1.02367
216.3000,-63.8466,277.392,1.02395
216.2000,-64.065,277.505,1.02523
216.1000,-64.2731,278.491,1.03634
216.0000,-60.2615,277.835,1.02895
215.9000,-62.9246,278.277,1.03393
215.8000,-61.888,278.218,1.03327
215.7000,-69.0262,278.808,1.03991
215.6000,-64.651,279.008,1.04215
215.5000,-66.4166,278.336,1.0346
215.4000,-61.0475,280.093,1.05433
215.3000,-64.1954,280.223,1.05579
215.2000,-63.3401,281.326,1.06811
215.1000,-60.6162,280.552,1.05947
215.0000,-60.2852,282.255,1.07847
214.9000,-65.0648,281.157,1.06623
214.8000,-66.4797,280.918,1.06356
214.7000,-60.4357,283.189,1.08884
214.6000,-63.2669,282.909,1.08573
214.5000,-62.1236,283.538,1.09271
214.4000,-64.0806,283.006,1.08682
214.3000,-60.9642,283.978,1.0976
214.2000,-67.802,282.563,1.08189
214.1000,-61.4051,284.001,1.09785
214.0000,-63.461,284.588,1.10434
213.9000,-63.5796,284.598,1.10445
213.8000,-62.9179,286.217,1.12231
213.7000,-59.0312,284.917,1.10797
213.6000,-62.8551,286.811,1.12883
213.5000,-62.4748,286.607,1.12659
213.4000,-65.8764,286.796,1.12867
213.3000,-66.317,287.047,1.13142
213.2000,-68.6866,286.816,1.12888
213.1000,-64.3444,288.189,1.14393
213.0000,-63.0859,287.333,1.13456
212.9000,-64.3791,289.141,1.15433
212.8000,-65.2397,289.383,1.15697
212.7000,-62.8157,290.453,1.16861
212.6000,-62.3318,288.868,1.15135
212.5000,-62.5596,292.01,1.18549
212.4000,-67.3251,291.337,1.1782
212.3000,-66.9805,293.233,1.19871
212.2000,-63.5951,292.433,1.19007
212.1000,-64.6766,292.73,1.19328
212.0000,-65.544,293.478,1.20135
211.9000,-66.7404,293.046,1.19669
211.8000,-63.5852,294.579,1.21319
211.7000,-67.975,294.509,1.21244
211.6000,-63.9218,296.575,1.23456
211.5000,-65.4421,295.172,1.21955
211.4000,-62.4619,297.023,1.23935
211.3000,-67.9039,297.474,1.24416
211.2000,-64.3831,296.924,1.23829
211.1000,-68.6602,297.565,1.24512
211.0000,-64.5154,297.943,1.24915
210.9000,-67.1801,299.22,1.26271
210.8000,-67.0098,299.301,1.26357
210.7000,-68.5769,300.81,1.27953
210.6000,-69.7601,300.806,1.27948
210.5000,-65.6227,300.991,1.28144
210.4000,-70.4455,302.043,1.29252
210.3000,-71.2339,302.07,1.2928
210.2000,-67.4847,302.872,1.30123
210.1000,-67.0867,302.426,1.29654
210.0000,-67.9375,302.306,1.29528
209.9000,-69.2599,303.687,1.30977
209.8000,-65.5553,305.848,1.33233
209.7000,-70.7305,305.849,1.33234
209.6000,-66.7184,306.357,1.33762
209.5000,-68.0866,306.746,1.34167
209.4000,-73.2173,308.469,1.35951
209.3000,-65.9783,308.186,1.35659
209.2000,-70.8478,309.722,1.37244
209.1000,-70.2008,310.752,1.38303
209.0000,-72.3694,309.68,1.37201
208.9000,-73.2985,311.842,1.39421
208.8000,-65.8326,312.001,1.39585
208.7000,-66.301,313.179,1.40788
208.6000,-65.1809,313.627,1.41246
208.5000,-68.3377,315.284,1.42931
208.4000,-64.6938,314.614,1.42251
208.3000,-68.8388,313.644,1.41263
208.2000,-63.924,317.398,1.45071
208.1000,-68.1403,317.377,1.45049
208.0000,-66.699,318.48,1.46161
207.9000,-69.2835,320.118,1.47805
207.8000,-63.4857,320.102,1.47789
207.7000,-66.93,320.953,1.48641
207.6000,-61.8294,321.732,1.4942
207.5000,-64.5653,322.227,1.49913
207.4000,-63.6469,323.742,1.5142
207.3000,-63.111,324.472,1.52144
207.2000,-63.7408,324.494,1.52165
207.1000,-64.5531,326.4,1.5405
207.0000,-64.9408,326.641,1.54287
206.9000,-60.5781,327.957,1.55582
206.8000,-58.1391,328.647,1.56259
206.7000,-56.7686,330.116,1.57695
206.6000,-62.3083,330.118,1.57698
206.5000,-54.5837,331.883,1.59418
206.4000,-57.3282,333.448,1.60936
206.3000,-59.6594,335.075,1.62509
206.2000,-55.5755,335.412,1.62833
206.1000,-49.841,336.456,1.63839
206.0000,-58.3935,337.091,1.64448
205.9000,-50.8435,338.495,1.65793
205.8000,-52.6359,339.776,1.67017
205.7000,-54.868,341.429,1.68589
205.6000,-45.8913,342.746,1.69838
205.5000,-45.8399,342.919,1.70002
205.4000,-47.1472,343.327,1.70387
205.3000,-45.2559,347.028,1.73869
205.2000,-47.9455,346.517,1.7339
205.1000,-48.8545,347.953,1.74734
205.0000,-49.1155,348.717,1.75448
204.9000,-50.3977,350.648,1.77245
204.8000,-35.341,351.225,1.7778
204.7000,-37.669,352.724,1.79168
204.6000,-37.487,353.916,1.80267
204.5000,-39.7,354.323,1.80642
204.4000,-35.2856,358.335,1.84318
204.3000,-24.7039,357.581,1.8363
204.2000,-39.5258,360.347,1.86148
204.1000,-34.619,360.007,1.8584
204.0000,-36.2313,361.339,1.87047
203.9000,-24.9056,364.535,1.8993
203.8000,-25.4352,365.761,1.91031
203.7000,-34.5624,368.123,1.93142
203.6000,-24.1914,368.624,1.93589
203.5000,-31.6097,370.462,1.95222
203.4000,-27.6017,372.027,1.96607
203.3000,-24.4838,372.723,1.97221
203.2000,-25.5923,375.233,1.9943
203.1000,-20.5301,376.603,2.0063
203.0000,-20.7568,378.745,2.02498
202.9000,-14.8776,379.201,2.02895
202.8000,-25.482,379.098,2.02806
202.7000,-21.1328,383.219,2.06374
202.6000,-10.3617,383.324,2.06463
202.5000,-16.199,385.787,2.0858
202.4000,-11.6332,387.02,2.09635
202.3000,-14.8452,388.736,2.111
202.2000,-19.0397,390.981,2.13007
202.1000,-6.37153,394.559,2.16028
202.0000,-18.6451,395.666,2.16957
201.9000,-0.595196,397.499,2.18493
201.8000,9.20049,399.738,2.2036
201.7000,-0.644973,400.442,2.20944
201.6000,0.476936,403.153,2.2319
201.5000,0.421713,404.965,2.24684
201.4000,-3.71806,406.759,2.26157
201.3000,7.75884,409.637,2.28509
201.2000,7.51621,411.603,2.30108
201.1000,-1.82178,412.715,2.3101
201.0000,9.99422,415.164,2.32988
200.9000,14.2467,417.429,2.34808
200.8000,14.0753,418.427,2.35608
200.7000,8.88816,421.255,2.37866
200.6000,13.617,422.813,2.39104
200.5000,25.9374,424.85,2.40717
200.4000,11.0793,429.712,2.44541
200.3000,6.01947,430.469,2.45133
200.2000,15.3307,431.689,2.46084
200.1000,18.1796,435.745,2.49235
200.0000,11.7987,438.111,2.51061
199.9000,22.2977,439.472,2.52107
199.8000,12.4437,440.993,2.53274
199.7000,12.0793,444.386,2.55864
199.6000,19.9485,446.33,2.5734
199.5000,20.9154,448.733,2.59158
199.4000,28.2967,451.057,2.60908
199.3000,22.6775,452.553,2.6203
199.2000,28.8077,453.489,2.62731
199.1000,19.574,455.397,2.64155
199.0000,36.1785,459.926,2.67517
198.9000,33.1849,461.718,2.68839
198.8000,25.1605,464.628,2.70977
198.7000,26.3055,467.517,2.73089
198.6000,29.2105,469.795,2.74746
198.5000,37.4993,473.332,2.77306
198.4000,32.5074,476.445,2.79545
198.3000,46.6409,477.137,2.80041
198.2000,42.8376,480.35,2.82337
198.1000,42.3544,484.111,2.85007
198.0000,46.5286,485.138,2.85733
197.9000,31.382,487.622,2.87485
197.8000,34.3762,490.266,2.8934
197.7000,22.0078,494.309,2.92162
197.6000,34.7466,496.251,2.9351
197.5000,33.6707,498.478,2.95051
197.4000,39.0554,501.301,2.96995
197.3000,34.3086,504.66,2.99297
197.2000,34.808,507.658,3.01341
197.1000,27.245,509.73,3.02747
197.0000,34.1713,513.547,3.05325
196.9000,43.7973,515.618,3.06717
196.8000,24.4391,517.834,3.08201
196.7000,37.4142,520.468,3.09958
196.6000,36.8179,523.709,3.1211
196.5000,25.9165,526.719,3.14098
196.4000,30.0673,531.215,3.17051
196.3000,39.9144,532.024,3.1758
196.2000,23.5146,536.09,3.20228
196.1000,33.8025,538.556,3.21826
196.0000,37.9215,542.534,3.2439
195.9000,35.7646,544.694,3.25776
195.8000,38.2724,546.51,3.26938
195.7000,27.5952,550.444,3.29443
195.6000,23.1818,552.961,3.31037
195.5000,26.8201,555.636,3.32725
195.4000,26.6526,558.711,3.34658
195.3000,34.8817,561.779,3.36576
195.2000,18.1493,565.145,3.38671
195.1000,24.7578,564.966,3.3856
195.0000,27.2569,568.058,3.40475
194.9000,35.2202,570.881,3.42217
194.8000,38.5872,572.598,3.43272
194.7000,32.0491,576.259,3.45513
194.6000,30.1051,577.226,3.46104
194.5000,24.62,579.745,3.47637
194.4000,18.5469,581.836,3.48905
194.3000,14.8624,584.425,3.5047
194.2000,23.8677,587.459,3.52296
194.1000,42.3681,590.241,3.53964
194.0000,26.6586,591.709,3.54841
193.9000,29.6496,596.509,3.57697
193.8000,26.1187,599.172,3.59273
193.7000,22.4719,601.234,3.60489
193.6000,31.8157,603.889,3.6205
193.5000,30.2641,607.518,3.64174
193.4000,30.7722,608.734,3.64883
193.3000,28.1512,609.982,3.6561
193.2000,19.445,612.585,3.67121
193.1000,30.983,615.015,3.68528
193.0000,21.82,616.729,3.69516
192.9000,27.9553,619.343,3.7102
192.8000,24.6722,621.478,3.72245
192.7000,13.8904,623.694,3.73511
192.6000,19.7888,626.644,3.75192
192.5000,22.022,629.207,3.76647
192.4000,14.2429,633.411,3.79022
192.3000,25.3556,634.926,3.79875
192.2000,29.3244,638.865,3.82084
192.1000,15.3459,639.854,3.82637
192.0000,24.017,642.258,3.83977
191.9000,21.8366,644.539,3.85245
191.8000,42.4894,646.736,3.86463
191.7000,22.2447,648.516,3.87447
191.6000,22.0145,652.107,3.89426
191.5000,22.8178,653.816,3.90364
191.4000,23.5103,656.906,3.92055
191.3000,29.4504,658.555,3.92954
191.2000,31.3821,661.293,3.94444
191.1000,27.7924,664.321,3.96085
191.0000,20.7449,668.619,3.98404
190.9000,20.0849,673.192,4.00857
190.8000,14.0416,676.245,4.02487
190.7000,11.8482,680.125,4.04549
190.6000,7.53179,682.892,4.06014
190.5000,4.05966,685.715,4.07503
190.4000,16.38,688.774,4.0911
190.3000,14.0086,691.638,4.1061
190.2000,14.4274,694.643,4.12178
190.1000,1.77898,696.721,4.13259
190.0000,28.6467,700.467,4.152

##### Extended Information
[Comments]
Sample name,ds + JL Protein and buffer
Comment,Protein and buffer
User,Drew Seitzman and Julia Linthicum
Division
Company,Saint Mary's College

[Detailed Information]
Creation date,9/29/2022 2:34 PM

Data array type,Linear data array * 3
Horizontal axis,Wavelength [nm]
Vertical axis(1),CD [mdeg]
Vertical axis(2),HT [V]
Vertical axis(3),Abs
Start,320 nm
End,190 nm
Data interval,0.1 nm
Data points,1301    

[Measurement Information]
Instrument name,J-1500
Model name,J-1500
Serial No.,B051061638

Detector,PM-539
Detector S/N,B051061638
  Lock-in amp.,X mode
  HT volt,Auto

Accessory,PTC-517
Accessory S/N,B026561646
  Temperature,22.70 C
  Control sensor,Holder
  Monitor sensor,Holder

Measurement date,9/29/2022 2:33 PM

CD Overload detect,970
Photometric mode,CD, HT, Abs
Measure range,320 - 190 nm
Data pitch,0.1 nm
CD scale,20 mdeg/0.05 dOD
FL scale,20 mdeg/0.05 dOD
D.I.T.,8 msec
Bandwidth,2.00 nm
Start mode,Immediately
Scanning mode,Continuous
Scanning speed,200 nm/min
Baseline correction,None
Shutter control,Auto
No. of cycle,1/1
N2 Flowmeter,Manual

Solvent,NaPO4 buffer

