TITLE,ds + JL Protein and buffer
DATA TYPE,
ORIGIN,JASCO
OWNER,
DATE,22/09/29
TIME,15:35:05
SPECTROMETER/DATA SYSTEM,
LOCALE,1033
RESOLUTION,
DELTAX,-0.1
XUNITS,NANOMETERS
YUNITS,CD [mdeg]
Y2UNITS,HT [V]
Y3UNITS,ABSORBANCE
FIRSTX,  320.0000
LASTX,  190.0000
NPOINTS,    1301
FIRSTY,    -0.26671
MAXY,    51.77750
MINY,   -74.55338
XYDATA
320.0000,-0.266715,209.562,0.166513
319.9000,1.047,209.272,0.162381
319.8000,1.13305,208.663,0.153698
319.7000,2.48009,209.135,0.160426
319.6000,-0.409164,208.429,0.150345
319.5000,-0.665272,208.976,0.158163
319.4000,2.28805,208.891,0.15695
319.3000,1.20074,208.66,0.153649
319.2000,-0.346522,208.991,0.158373
319.1000,-0.449811,208.614,0.152985
319.0000,0.101991,209.217,0.161605
318.9000,-0.476904,209.315,0.162994
318.8000,0.418323,208.984,0.158276
318.7000,0.147166,208.686,0.154021
318.6000,0.347646,208.701,0.154232
318.5000,1.63401,209.809,0.170028
318.4000,1.74523,209.173,0.160975
318.3000,0.786616,209.445,0.164851
318.2000,0.794121,209.748,0.169158
318.1000,1.16518,208.535,0.151868
318.0000,0.903024,209.186,0.161153
317.9000,-0.897246,209.215,0.161573
317.8000,2.48627,209.055,0.159295
317.7000,0.512428,208.909,0.157209
317.6000,1.68908,208.68,0.15394
317.5000,0.568585,208.251,0.1478
317.4000,1.27502,209.194,0.161266
317.3000,1.26747,208.448,0.15062
317.2000,1.8589,209.055,0.159295
317.1000,0.65074,209.71,0.168625
317.0000,2.06487,209.633,0.167529
316.9000,0.123052,208.535,0.151868
316.8000,1.52194,208.493,0.151268
316.7000,0.931306,208.641,0.153374
316.6000,1.23707,208.084,0.145415
316.5000,0.982708,208.567,0.152321
316.4000,1.4799,209.548,0.166319
316.3000,2.08406,207.735,0.140414
316.2000,1.02061,209.28,0.162494
316.1000,1.05697,209.066,0.15944
316.0000,0.975837,208.458,0.150766
315.9000,0.775398,209.667,0.168013
315.8000,1.10902,209.263,0.162251
315.7000,0.963592,208.806,0.155737
315.6000,1.2259,207.752,0.140658
315.5000,-0.579724,209.825,0.170254
315.4000,0.867192,208.644,0.153422
315.3000,0.382211,208.722,0.154539
315.2000,2.34401,208.18,0.146778
315.1000,1.09558,209.148,0.16062
315.0000,0.840394,208.261,0.147946
314.9000,0.818643,208.717,0.154458
314.8000,0.751517,208.197,0.147021
314.7000,2.03065,209.256,0.162154
314.6000,0.819017,207.82,0.141633
314.5000,-0.118508,208.745,0.154863
314.4000,-0.973622,208.464,0.150847
314.3000,0.810757,208.416,0.150167
314.2000,1.5592,208.218,0.14733
314.1000,1.21173,208.37,0.149502
314.0000,-0.939327,209.134,0.16041
313.9000,3.2954,207.811,0.141503
313.8000,-0.485605,208.433,0.15041
313.7000,-0.123871,208.431,0.150377
313.6000,1.9817,208.56,0.152224
313.5000,-1.3165,208.569,0.152354
313.4000,2.89526,208.898,0.157047
313.3000,1.31809,208.185,0.146859
313.2000,1.71221,208.373,0.149551
313.1000,0.5752,208.64,0.153357
313.0000,0.77195,207.382,0.135341
312.9000,-0.529075,208.158,0.14647
312.8000,0.0232542,207.815,0.141551
312.7000,1.04018,208.216,0.147297
312.6000,0.958075,208.412,0.150102
312.5000,2.73092,208.019,0.144474
312.4000,2.30402,208.89,0.156934
312.3000,0.849352,208.023,0.144539
312.2000,0.655357,208.795,0.155575
312.1000,1.26695,208.788,0.155478
312.0000,0.651298,207.754,0.140674
311.9000,1.52846,208.392,0.14981
311.8000,0.844165,208.47,0.150928
311.7000,2.90983,208.969,0.158066
311.6000,-0.470365,208.557,0.152175
311.5000,-0.131947,208.387,0.149745
311.4000,1.00298,208.381,0.149664
311.3000,2.22282,208.287,0.148319
311.2000,-1.17845,209.017,0.158745
311.1000,0.0699754,208.103,0.145675
311.0000,0.349193,209.167,0.160878
310.9000,1.24193,208.398,0.149907
310.8000,0.521591,209.006,0.158583
310.7000,1.35584,208.293,0.1484
310.6000,0.923479,208.302,0.148529
310.5000,2.29464,207.119,0.131564
310.4000,1.79319,208.881,0.156804
310.3000,2.44477,208.99,0.158357
310.2000,1.25137,208.384,0.149696
310.1000,-0.54508,209.402,0.164237
310.0000,1.807,208.06,0.145058
309.9000,0.783732,209.153,0.160684
309.8000,2.10894,208.508,0.151479
309.7000,1.11334,208.882,0.156821
309.6000,2.3553,208.218,0.14733
309.5000,1.45805,208.365,0.149437
309.4000,-0.492107,208.297,0.148465
309.3000,0.497403,208.445,0.150572
309.2000,0.204887,208.513,0.151544
309.1000,-0.479253,208.043,0.144815
309.0000,-0.349713,208.143,0.146259
308.9000,0.280518,208.18,0.146778
308.8000,0.260959,208.777,0.155316
308.7000,0.0517969,209.263,0.162251
308.6000,0.603575,208.21,0.147216
308.5000,-0.345886,208.271,0.148092
308.4000,2.72732,208.311,0.148659
308.3000,0.480133,208.094,0.145545
308.2000,-0.276992,208.702,0.154248
308.1000,0.329684,208.312,0.148675
308.0000,0.277644,208.602,0.152823
307.9000,0.489199,208.214,0.147265
307.8000,0.0748149,208.163,0.146535
307.7000,2.18782,208.529,0.151771
307.6000,1.31685,208.814,0.15585
307.5000,1.22193,208.245,0.147719
307.4000,-0.0903453,208.319,0.148773
307.3000,0.617102,207.224,0.133079
307.2000,-0.359931,209.696,0.168416
307.1000,1.04902,208.475,0.151009
307.0000,-1.48544,207.678,0.139586
306.9000,-0.0444402,209.625,0.167416
306.8000,1.6023,208.624,0.153131
306.7000,1.62603,207.105,0.131369
306.6000,0.799226,208.278,0.148189
306.5000,-0.936638,208.224,0.147411
306.4000,1.96207,207.633,0.138952
306.3000,1.4229,208.744,0.154847
306.2000,1.20493,207.965,0.143711
306.1000,0.839742,209.795,0.169834
306.0000,0.0267679,207.433,0.136073
305.9000,0.552494,207.868,0.142315
305.8000,0.213736,208.039,0.144766
305.7000,-0.310214,208.856,0.156449
305.6000,0.375574,208.734,0.154701
305.5000,1.22179,209.329,0.163188
305.4000,0.85872,208.985,0.158292
305.3000,0.157462,209.131,0.160377
305.2000,0.299746,208.412,0.150102
305.1000,1.04764,208.364,0.149421
305.0000,-0.146755,208.626,0.153163
304.9000,0.376755,208.161,0.146519
304.8000,-0.368428,208.351,0.149226
304.7000,1.5679,208.891,0.15695
304.6000,0.273483,209.003,0.158551
304.5000,-1.48896,209.037,0.159036
304.4000,-1.20894,209.042,0.159101
304.3000,2.8349,207.938,0.143322
304.2000,2.07139,207.721,0.140203
304.1000,1.32503,208.735,0.154717
304.0000,0.940588,208.284,0.14827
303.9000,2.4937,208.487,0.151171
303.8000,1.73517,208.147,0.146308
303.7000,1.74592,208.092,0.145529
303.6000,1.72551,207.673,0.13952
303.5000,1.55844,207.93,0.143208
303.4000,-1.46417,207.692,0.139797
303.3000,1.30562,208.947,0.157743
303.2000,1.62982,208.274,0.148124
303.1000,0.0536046,208.422,0.150248
303.0000,3.04943,208.096,0.145577
302.9000,0.685351,207.779,0.141031
302.8000,-0.0538882,208.488,0.151187
302.7000,1.37603,208.706,0.154313
302.6000,1.95964,208.629,0.153212
302.5000,1.13582,208.692,0.154102
302.4000,1.72586,207.879,0.142477
302.3000,0.593589,207.351,0.134902
302.2000,0.967985,208.503,0.151398
302.1000,1.60859,207.828,0.141746
302.0000,0.936664,208.004,0.144263
301.9000,1.289,208.32,0.148789
301.8000,1.9706,207.665,0.139407
301.7000,0.808965,207.971,0.143792
301.6000,-1.15962,207.943,0.143386
301.5000,0.160347,207.614,0.138675
301.4000,0.150799,207.705,0.139975
301.3000,0.838583,208.66,0.153649
301.2000,1.82508,208.152,0.146389
301.1000,2.53741,208.702,0.154248
301.0000,0.718997,208.507,0.151463
300.9000,1.73019,207.714,0.140105
300.8000,2.9228,208.363,0.149405
300.7000,-0.60637,208.263,0.147978
300.6000,1.75285,206.834,0.127457
300.5000,0.562475,208.134,0.146129
300.4000,0.681334,208.671,0.153811
300.3000,2.4587,208.271,0.148092
300.2000,0.209561,207.655,0.13926
300.1000,-0.00574936,208.678,0.153908
300.0000,0.33133,208.88,0.156788
299.9000,1.71692,208.208,0.147183
299.8000,2.48454,207.858,0.142168
299.7000,-0.0745061,207.423,0.135927
299.6000,0.316022,207.859,0.142185
299.5000,1.38272,207.891,0.14264
299.4000,-1.11903,207.409,0.135731
299.3000,0.115849,207.134,0.131776
299.2000,-0.147814,207.062,0.13075
299.1000,2.5324,207.835,0.141844
299.0000,0.971129,208.069,0.145188
298.9000,0.380158,208.181,0.146794
298.8000,1.59972,207.869,0.142331
298.7000,1.012,207.885,0.142558
298.6000,0.951826,208.087,0.145448
298.5000,2.17601,208.012,0.144377
298.4000,0.786045,208.292,0.148384
298.3000,1.60673,208.303,0.148546
298.2000,1.4217,207.399,0.135585
298.1000,1.25831,206.59,0.12395
298.0000,-0.553826,207.717,0.140154
297.9000,0.913979,208.577,0.152467
297.8000,-0.972341,208.367,0.149453
297.7000,2.06632,207.852,0.142087
297.6000,2.37992,208.086,0.145432
297.5000,2.53604,207.688,0.139732
297.4000,1.28347,207.235,0.133225
297.3000,1.48396,207.775,0.140983
297.2000,-0.353951,208.708,0.154329
297.1000,0.226173,207.098,0.131255
297.0000,0.739477,207.913,0.142964
296.9000,0.255821,207.621,0.138773
296.8000,0.226474,207.852,0.142087
296.7000,-1.0833,208.178,0.146762
296.6000,1.30635,209.075,0.159569
296.5000,1.50239,207.618,0.138724
296.4000,1.85984,208.065,0.145139
296.3000,2.44472,206.585,0.123884
296.2000,0.876341,206.854,0.127751
296.1000,1.67958,207.662,0.139358
296.0000,-0.547168,207.384,0.135374
295.9000,1.87816,208.001,0.144215
295.8000,0.401883,208.91,0.157225
295.7000,-0.0920809,209.167,0.160878
295.6000,1.46234,207.431,0.136041
295.5000,-1.32081,208.16,0.146502
295.4000,1.33122,207.973,0.143825
295.3000,1.71642,207.618,0.138724
295.2000,1.34294,208.284,0.14827
295.1000,-0.436368,209.058,0.159327
295.0000,0.306632,206.661,0.124978
294.9000,2.03763,208.431,0.150377
294.8000,1.23055,208.08,0.145351
294.7000,1.77473,207.674,0.139537
294.6000,1.92267,207.827,0.14173
294.5000,1.14568,207.629,0.138886
294.4000,-0.0607866,207.217,0.132965
294.3000,0.985721,208.165,0.146567
294.2000,1.98124,207.948,0.143468
294.1000,0.458851,208.122,0.145951
294.0000,2.21758,208.742,0.154814
293.9000,1.34937,207.725,0.140268
293.8000,0.526835,208.27,0.148075
293.7000,1.17619,207.783,0.141097
293.6000,1.53585,208.06,0.145058
293.5000,1.25481,207.535,0.137537
293.4000,-3.21841,208.194,0.146989
293.3000,0.279749,206.963,0.129315
293.2000,1.45664,208.297,0.148465
293.1000,0.189659,208.475,0.151009
293.0000,0.962069,207.869,0.142331
292.9000,-0.0929818,208.121,0.145935
292.8000,-0.0150112,207.825,0.141698
292.7000,-0.00903843,207.311,0.134316
292.6000,1.63405,207.434,0.13609
292.5000,1.73763,208.387,0.149745
292.4000,-0.484768,207.034,0.130342
292.3000,1.8601,206.941,0.129006
292.2000,1.00931,207.942,0.14337
292.1000,-1.34607,208.486,0.151155
292.0000,2.42846,207.639,0.139033
291.9000,0.10841,207.28,0.133876
291.8000,1.11383,207.756,0.140707
291.7000,-0.645938,206.993,0.129756
291.6000,1.28017,207.246,0.133388
291.5000,1.44674,206.914,0.128615
291.4000,-0.621404,206.81,0.127115
291.3000,1.22478,207.323,0.134495
291.2000,1.57232,207.858,0.142168
291.1000,-0.168162,207.865,0.142266
291.0000,0.650543,206.875,0.12806
290.9000,-0.247051,208.158,0.14647
290.8000,0.71681,207.234,0.133209
290.7000,0.928949,206.98,0.12956
290.6000,1.45786,208.342,0.149097
290.5000,-1.01923,207.201,0.132737
290.4000,0.432938,207.447,0.136268
290.3000,1.46898,207.627,0.138854
290.2000,1.62027,207.611,0.138626
290.1000,0.276115,208.039,0.144766
290.0000,0.732064,207.422,0.13591
289.9000,1.35763,207.635,0.138968
289.8000,-1.36096,207.623,0.138805
289.7000,-0.565873,207.892,0.142656
289.6000,1.2933,208.309,0.148627
289.5000,-0.0285698,208.254,0.147848
289.4000,1.47675,208.013,0.144393
289.3000,2.81117,208.343,0.149113
289.2000,0.398264,208.367,0.149453
289.1000,2.00244,208.05,0.144928
289.0000,0.244808,207.635,0.138968
288.9000,-0.557951,207.775,0.140983
288.8000,2.10777,207.931,0.143224
288.7000,1.20317,207.997,0.144166
288.6000,-0.391204,208.182,0.146811
288.5000,1.96144,208.498,0.151333
288.4000,0.710962,207.959,0.143614
288.3000,2.28254,207.816,0.141568
288.2000,2.34915,208.561,0.15224
288.1000,0.679985,208.798,0.155623
288.0000,0.252082,209.397,0.164157
287.9000,0.423298,207.865,0.142266
287.8000,1.31161,209.213,0.161541
287.7000,-0.559829,208.22,0.147362
287.6000,-0.422189,206.553,0.123411
287.5000,0.13125,208.111,0.145789
287.4000,0.808122,207.98,0.143922
287.3000,0.270506,207.237,0.133258
287.2000,2.08459,208.623,0.153114
287.1000,-0.205493,207.697,0.139862
287.0000,0.897621,206.874,0.128044
286.9000,0.435836,208.559,0.152208
286.8000,-0.596627,208.731,0.154669
286.7000,1.16116,207.567,0.137992
286.6000,1.3836,208.539,0.151916
286.5000,-0.0656536,207.792,0.141227
286.4000,-0.308252,208.719,0.154491
286.3000,0.558482,208.764,0.155138
286.2000,-1.01884,208.501,0.151382
286.1000,1.11978,208.806,0.155737
286.0000,2.40236,207.844,0.141974
285.9000,-0.0061544,208.533,0.151835
285.8000,1.16854,208.208,0.147183
285.7000,0.985679,208.35,0.14921
285.6000,-0.0903823,208.449,0.150636
285.5000,0.793113,208.293,0.1484
285.4000,0.22365,208.276,0.148156
285.3000,-0.856848,208.241,0.147654
285.2000,0.398283,208.636,0.153309
285.1000,0.744004,208.284,0.14827
285.0000,1.67121,207.729,0.140317
284.9000,1.71371,208.271,0.148092
284.8000,-0.0765347,208.721,0.154523
284.7000,-0.490456,208.554,0.152127
284.6000,-0.822041,209.088,0.159763
284.5000,0.371761,207.748,0.140593
284.4000,-0.171795,208.403,0.149972
284.3000,1.24147,208.222,0.147378
284.2000,1.26928,208.914,0.157274
284.1000,-0.237817,208.624,0.153131
284.0000,-0.304283,208.989,0.158341
283.9000,-0.0644428,208.752,0.15496
283.8000,2.15689,209.285,0.162574
283.7000,1.48848,209.055,0.159295
283.6000,0.484857,208.674,0.153843
283.5000,-0.151753,206.707,0.12563
283.4000,0.151862,207.755,0.14069
283.3000,0.956986,208.15,0.146356
283.2000,2.26662,208.363,0.149405
283.1000,1.15929,208.164,0.146551
283.0000,0.28411,208.233,0.14754
282.9000,0.0963598,208.601,0.152807
282.8000,2.31963,207.345,0.134804
282.7000,-0.16508,208.084,0.145415
282.6000,0.125233,209.196,0.161299
282.5000,0.934944,207.921,0.143078
282.4000,-0.0436742,208.53,0.151787
282.3000,0.36674,208.227,0.147459
282.2000,1.63008,208.441,0.150523
282.1000,0.459064,208.091,0.145513
282.0000,1.25556,208.588,0.152613
281.9000,0.551496,208.44,0.150507
281.8000,1.85883,208.098,0.14561
281.7000,0.3912,208.436,0.150442
281.6000,2.42992,208.712,0.154393
281.5000,0.251293,209.147,0.160604
281.4000,0.446397,207.981,0.143938
281.3000,-0.80504,208.751,0.154944
281.2000,-0.253976,208.106,0.145724
281.1000,1.95497,209.284,0.162558
281.0000,0.922248,208.559,0.152208
280.9000,1.5217,208.955,0.157856
280.8000,0.375986,208.769,0.155203
280.7000,0.186116,208.452,0.150669
280.6000,1.58764,208.746,0.154879
280.5000,0.709078,208.743,0.154831
280.4000,1.26157,208.61,0.152936
280.3000,1.63866,208.207,0.147167
280.2000,0.392671,209.095,0.15986
280.1000,-1.63572,209.785,0.16969
280.0000,2.51172,208.133,0.146113
279.9000,1.66775,208.482,0.151106
279.8000,1.28382,209.199,0.161347
279.7000,0.715332,209.144,0.160555
279.6000,0.733651,207.648,0.139163
279.5000,1.25351,208.73,0.154652
279.4000,-0.024004,207.757,0.140723
279.3000,-0.639975,208.797,0.155607
279.2000,0.670547,209.045,0.159149
279.1000,-1.11687,208.508,0.151479
279.0000,1.51976,208.837,0.156174
278.9000,0.003906,208.032,0.144669
278.8000,1.87348,210.195,0.175519
278.7000,-1.18011,208.781,0.155381
278.6000,0.528249,208.512,0.151528
278.5000,-0.117462,209.082,0.159666
278.4000,-1.22811,208.995,0.158438
278.3000,1.13111,208.312,0.148675
278.2000,1.13816,208.652,0.153536
278.1000,1.02431,209.266,0.1623
278.0000,0.176147,208.642,0.15339
277.9000,0.812982,208.615,0.153001
277.8000,0.407209,208.605,0.152855
277.7000,-0.291672,209.428,0.164609
277.6000,1.30352,208.91,0.157225
277.5000,0.89273,208.135,0.146145
277.4000,0.388549,208.113,0.145821
277.3000,1.2896,208.516,0.151592
277.2000,-0.0384985,209.111,0.160087
277.1000,0.487015,208.414,0.150134
277.0000,-0.862294,208.684,0.153989
276.9000,-1.13572,209.068,0.159472
276.8000,0.117806,209.117,0.160168
276.7000,1.46027,208.867,0.15661
276.6000,1.68397,208.541,0.151949
276.5000,-0.0791551,208.739,0.154782
276.4000,2.85224,208.798,0.155623
276.3000,-0.636859,207.544,0.137667
276.2000,0.780326,208.412,0.150102
276.1000,0.199394,209.38,0.163915
276.0000,-0.339687,207.426,0.135976
275.9000,0.339865,209.109,0.160054
275.8000,-1.4992,208.019,0.144474
275.7000,1.03807,209.066,0.15944
275.6000,-0.191076,208.053,0.144961
275.5000,0.467778,208.781,0.155381
275.4000,2.07068,209.187,0.161169
275.3000,2.4174,208.31,0.148643
275.2000,0.406818,208.506,0.151447
275.1000,-1.15046,208.432,0.150393
275.0000,-0.0110062,208.709,0.154345
274.9000,0.562434,208.484,0.151139
274.8000,0.663268,208.889,0.156918
274.7000,1.33843,207.98,0.143922
274.6000,0.694653,208.746,0.154879
274.5000,0.390903,209.683,0.168239
274.4000,0.763531,209.54,0.166206
274.3000,0.176603,209.324,0.163123
274.2000,-0.837052,209.103,0.159973
274.1000,0.699986,210.224,0.175922
274.0000,1.35659,208.857,0.156465
273.9000,0.146572,208.019,0.144474
273.8000,1.06942,207.928,0.143175
273.7000,-0.306444,208.912,0.157241
273.6000,1.04625,208.507,0.151463
273.5000,0.815715,209.186,0.161153
273.4000,1.29746,209.054,0.159279
273.3000,-0.0543623,209.954,0.17209
273.2000,0.57049,209.007,0.158599
273.1000,0.295801,208.862,0.15653
273.0000,-1.2125,207.894,0.142688
272.9000,0.794109,208.865,0.156578
272.8000,-0.515343,208.5,0.151366
272.7000,1.10879,208.757,0.155041
272.6000,2.46817,209.718,0.168738
272.5000,-0.275774,209.12,0.160216
272.4000,-0.713788,208.164,0.146551
272.3000,-0.445816,208.566,0.152305
272.2000,0.5142,208.219,0.147346
272.1000,0.36708,208.558,0.152192
272.0000,1.29717,208.211,0.147232
271.9000,1.8879,208.726,0.154588
271.8000,0.807608,208.32,0.148789
271.7000,-0.156937,208.386,0.149729
271.6000,0.881567,209.733,0.168948
271.5000,-0.945439,208.597,0.152742
271.4000,-0.0626907,208.239,0.147622
271.3000,0.741316,208.002,0.144231
271.2000,1.1987,209.901,0.171333
271.1000,-0.343818,208.325,0.148854
271.0000,0.319762,208.617,0.153034
270.9000,-0.201555,208.76,0.155073
270.8000,0.270209,208.269,0.148059
270.7000,1.56072,209.389,0.164044
270.6000,1.97456,209.412,0.164383
270.5000,0.804301,207.688,0.139732
270.4000,0.667854,208.6,0.152791
270.3000,-0.582705,209.099,0.159909
270.2000,-1.24735,210.887,0.185322
270.1000,0.82648,208.856,0.156449
270.0000,0.907837,209.433,0.164673
269.9000,-0.95521,208.478,0.151042
269.8000,0.0278885,209.143,0.160539
269.7000,0.10109,208.455,0.150717
269.6000,-0.0306419,207.777,0.141015
269.5000,-0.189869,208.932,0.157532
269.4000,0.0570215,209.026,0.158874
269.3000,-0.61563,208.476,0.151025
269.2000,0.320859,207.372,0.135195
269.1000,1.49404,208.745,0.154863
269.0000,-0.888812,209.551,0.166351
268.9000,0.45414,209.378,0.163899
268.8000,0.299611,210.483,0.179605
268.7000,0.792174,208.844,0.156271
268.6000,-1.10189,209,0.158502
268.5000,-0.997551,208.77,0.155219
268.4000,-0.400186,209.315,0.162994
268.3000,-1.15793,209.51,0.165771
268.2000,0.402697,209.194,0.161266
268.1000,1.35095,209.568,0.166593
268.0000,0.0736761,210.068,0.173717
267.9000,-0.32955,208.165,0.146567
267.8000,-1.86463,210.589,0.181099
267.7000,0.0566912,211.123,0.188675
267.6000,-0.688154,209.915,0.171543
267.5000,-0.26958,208.413,0.150118
267.4000,-0.168429,209.589,0.1669
267.3000,0.158587,209.812,0.170076
267.2000,0.939493,209.48,0.165351
267.1000,0.275716,208.602,0.152823
267.0000,0.975544,209.373,0.163818
266.9000,1.15847,209.212,0.161524
266.8000,0.168458,209.199,0.161347
266.7000,-0.284025,209.894,0.171237
266.6000,1.71062,209.394,0.164125
266.5000,-0.463153,209.373,0.163818
266.4000,-0.55707,209.819,0.170173
266.3000,1.21273,209.186,0.161153
266.2000,0.770785,209.021,0.15881
266.1000,1.80175,210.355,0.177788
266.0000,0.750484,209.011,0.158664
265.9000,-0.515751,209.756,0.16927
265.8000,1.86189,210.816,0.184327
265.7000,0.438696,210.561,0.180714
265.6000,0.742927,211.051,0.187649
265.5000,0.553408,209.024,0.158842
265.4000,0.101151,209.342,0.163382
265.3000,-1.47693,209.922,0.171639
265.2000,0.0251538,209.818,0.170157
265.1000,0.181615,209.962,0.172203
265.0000,0.884227,210.389,0.17827
264.9000,0.317133,210.283,0.176758
264.8000,0.599795,211.301,0.191191
264.7000,-0.259635,209.474,0.165254
264.6000,1.24579,210.048,0.173427
264.5000,1.23228,210.603,0.181308
264.4000,0.357917,210.235,0.176083
264.3000,-1.17919,209.625,0.167416
264.2000,-0.765938,210.087,0.173974
264.1000,0.549744,209.954,0.17209
264.0000,-0.147409,210.085,0.173958
263.9000,0.102538,210.325,0.177354
263.8000,-1.46753,210.153,0.174924
263.7000,1.29459,210.243,0.176195
263.6000,1.04024,209.862,0.170785
263.5000,1.55425,210.351,0.177723
263.4000,-0.362837,209.982,0.172493
263.3000,0.644211,210.817,0.184343
263.2000,0.901341,210.277,0.176678
263.1000,0.865659,210,0.172751
263.0000,-1.10351,210.127,0.174554
262.9000,-0.0203497,211.084,0.188114
262.8000,-0.334317,210.142,0.174763
262.7000,0.277661,209.613,0.167239
262.6000,1.6158,210.535,0.180344
262.5000,-1.65465,209.912,0.171494
262.4000,1.56077,210.782,0.183846
262.3000,0.760656,210.633,0.181726
262.2000,-0.626657,210.926,0.185884
262.1000,-0.812039,210.437,0.178946
262.0000,1.54464,210.093,0.174071
261.9000,0.117233,211.289,0.191015
261.8000,0.718825,211.232,0.190214
261.7000,1.61395,210.6,0.18126
261.6000,1.06042,211.795,0.198171
261.5000,1.09887,210.167,0.175117
261.4000,0.186318,210.739,0.183235
261.3000,-0.358132,210.191,0.175455
261.2000,-0.886223,210.39,0.178286
261.1000,1.48245,210.632,0.18171
261.0000,-1.04015,211.042,0.18752
260.9000,0.773988,210.57,0.180842
260.8000,2.3696,211.229,0.190166
260.7000,-1.34077,211.267,0.190711
260.6000,-0.458066,211.05,0.187633
260.5000,0.0835659,210.69,0.182545
260.4000,-0.164764,211.57,0.194987
260.3000,-0.621289,211.394,0.192505
260.2000,-0.780319,211.572,0.195019
260.1000,-0.91641,211.612,0.195579
260.0000,0.528883,211.35,0.19188
259.9000,-0.319344,210.916,0.18574
259.8000,-0.492587,211.259,0.190599
259.7000,-0.132642,210.69,0.182545
259.6000,-0.547166,211.301,0.191191
259.5000,-0.365681,211.767,0.197771
259.4000,-0.513301,211.035,0.187424
259.3000,-1.21067,211.029,0.187344
259.2000,-0.720405,211.224,0.190102
259.1000,-1.56427,213.401,0.220761
259.0000,0.812743,211.74,0.197387
258.9000,-0.958932,210.483,0.179605
258.8000,0.985253,212.631,0.209954
258.7000,-1.19176,211.631,0.195851
258.6000,-0.325547,211.465,0.193514
258.5000,0.896447,212.156,0.203253
258.4000,-0.404015,211.015,0.187136
258.3000,1.71687,211.921,0.199945
258.2000,-1.1839,212.194,0.203796
258.1000,-0.0343188,212.876,0.213395
258.0000,-0.246938,212.757,0.211722
257.9000,0.080247,211.978,0.200745
257.8000,3.0246,212.267,0.204817
257.7000,0.230875,212.653,0.210257
257.6000,1.29579,211.962,0.200521
257.5000,0.960605,211.154,0.189108
257.4000,0.792816,212.197,0.203843
257.3000,-1.01795,211.643,0.196027
257.2000,-2.18696,211.522,0.194314
257.1000,1.20189,210.412,0.178592
257.0000,-0.339414,212.26,0.204721
256.9000,-0.125624,212.94,0.214287
256.8000,0.951816,212.068,0.202023
256.7000,0.824012,212.157,0.203268
256.6000,-0.0420085,211.571,0.195003
256.5000,2.0623,212.18,0.203604
256.4000,0.857921,212.193,0.20378
256.3000,0.00440589,212.022,0.201368
256.2000,0.16928,212.14,0.203029
256.1000,-1.57586,212.546,0.208758
256.0000,0.285099,212.246,0.20453
255.9000,0.481973,212.741,0.211499
255.8000,-0.261671,213.383,0.220507
255.7000,-1.20367,212.383,0.206461
255.6000,-0.282307,212.177,0.203556
255.5000,-0.64239,212.89,0.213586
255.4000,-0.268996,212.662,0.210384
255.3000,0.0108543,212.306,0.205376
255.2000,-0.956168,213.257,0.218742
255.1000,0.510562,213.66,0.224399
255.0000,-0.00849941,213.064,0.216038
254.9000,2.78883,214.336,0.233849
254.8000,-0.813778,212.829,0.212726
254.7000,-0.211587,213.116,0.21677
254.6000,0.829322,212.292,0.205168
254.5000,1.2412,213.539,0.222699
254.4000,-0.095002,212.908,0.213841
254.3000,-0.376666,212.237,0.204402
254.2000,0.189899,211.68,0.196539
254.1000,-0.169189,214.008,0.22927
254.0000,-0.134881,212.269,0.204849
253.9000,-0.381332,213.583,0.223319
253.8000,0.939712,212.975,0.21478
253.7000,2.13903,213.223,0.218265
253.6000,-1.21345,213.106,0.216626
253.5000,1.26898,212.679,0.210623
253.4000,0.351138,212.696,0.210862
253.3000,2.14756,213.498,0.222127
253.2000,0.0993811,214.259,0.232772
253.1000,-1.38532,212.016,0.201288
253.0000,0.352882,215.589,0.251321
252.9000,0.0830217,214.176,0.231616
252.8000,-0.716483,213.051,0.215847
252.7000,-0.932884,212.943,0.214335
252.6000,0.51535,213.649,0.22424
252.5000,2.55943,213.23,0.21836
252.4000,-0.9727,214.09,0.230411
252.3000,-0.247952,214.195,0.231885
252.2000,1.06359,213.299,0.21933
252.1000,-0.0807839,213.033,0.215592
252.0000,-0.142811,214.889,0.241568
251.9000,1.87735,214.046,0.229793
251.8000,-0.516358,214.332,0.233801
251.7000,1.5376,214.372,0.234356
251.6000,0.850591,213.541,0.222731
251.5000,-0.982685,213.908,0.227874
251.4000,-1.44733,213.764,0.225859
251.3000,0.326324,214.804,0.240383
251.2000,-0.294495,213.873,0.227382
251.1000,-1.04823,214.333,0.233817
251.0000,0.0477128,213.584,0.223335
250.9000,0.202761,214.002,0.22919
250.8000,1.70587,214.066,0.230078
250.7000,-2.16297,214.209,0.232075
250.6000,1.5991,213.83,0.226779
250.5000,-0.432618,213.676,0.224621
250.4000,-0.541238,213.897,0.227715
250.3000,1.68573,213.776,0.226018
250.2000,0.565687,213.7,0.224954
250.1000,0.765388,214.203,0.231996
250.0000,-1.0343,214.304,0.233405
249.9000,-1.49144,214.85,0.241031
249.8000,-1.91363,214.737,0.239451
249.7000,1.14163,215.333,0.247758
249.6000,-0.379796,215.149,0.245201
249.5000,-0.982329,213.446,0.221397
249.4000,-0.0959393,214.524,0.236477
249.3000,-0.0541799,213.775,0.226002
249.2000,-1.68421,215.201,0.245927
249.1000,-0.478131,214.683,0.238707
249.0000,-1.01816,213.876,0.227414
248.9000,-0.214653,212.916,0.213952
248.8000,-0.716173,214.107,0.230649
248.7000,1.65445,214.349,0.234039
248.6000,-0.465621,214.67,0.238518
248.5000,-1.38661,214.314,0.233548
248.4000,0.3977,214.806,0.240415
248.3000,-1.09207,214.922,0.242042
248.2000,-0.19919,213.399,0.220729
248.1000,0.445127,215.091,0.244396
248.0000,-1.70669,215.618,0.251731
247.9000,-0.733432,214.191,0.231821
247.8000,0.00882689,215.403,0.248736
247.7000,-0.333002,215.163,0.245391
247.6000,-1.23879,215.592,0.251369
247.5000,-0.745049,215.908,0.255763
247.4000,-1.02316,213.984,0.228937
247.3000,-0.240015,215.08,0.244238
247.2000,-2.77903,216.818,0.268381
247.1000,-1.87801,216.441,0.263153
247.0000,-1.46945,215.549,0.25077
246.9000,-0.480924,216.092,0.258312
246.8000,-1.5501,216.198,0.25979
246.7000,-2.37212,216.16,0.259256
246.6000,-0.969046,215.584,0.251258
246.5000,-0.769045,215.125,0.24487
246.4000,-1.30353,215.209,0.246038
246.3000,-0.151619,216.002,0.257069
246.2000,-0.554421,215.992,0.256927
246.1000,-1.73018,215.951,0.256361
246.0000,-0.167584,216.048,0.257698
245.9000,-1.91713,215.686,0.252676
245.8000,-2.83548,216.358,0.262007
245.7000,-2.99354,216.218,0.260058
245.6000,-2.35135,215.962,0.256503
245.5000,-2.99532,216.39,0.262446
245.4000,-1.84685,216.649,0.266043
245.3000,-1.31581,216.552,0.264693
245.2000,-0.673146,216.606,0.265446
245.1000,-1.34085,216.565,0.264881
245.0000,-1.18763,216.064,0.257919
244.9000,-0.661664,217.032,0.271344
244.8000,-2.32004,216.734,0.26722
244.7000,-2.40781,217.002,0.270921
244.6000,-2.57856,217.157,0.273068
244.5000,-1.86515,217.535,0.278297
244.4000,-3.71958,217.331,0.27548
244.3000,-2.33959,217.021,0.271188
244.2000,-2.79753,216.91,0.269651
244.1000,-1.7873,216.278,0.260891
244.0000,-1.80754,217.093,0.272191
243.9000,-2.27405,217.357,0.27584
243.8000,-2.78906,216.248,0.260482
243.7000,-3.48851,217.208,0.273773
243.6000,-3.39949,217.629,0.279595
243.5000,-3.60791,217.176,0.273334
243.4000,-3.54075,218.425,0.290556
243.3000,-4.32659,218.046,0.285345
243.2000,-4.67347,217.101,0.2723
243.1000,-4.46494,217.699,0.280549
243.0000,-3.78789,216.996,0.270843
242.9000,-4.43899,217.456,0.277202
242.8000,-5.63191,217.878,0.283018
242.7000,-4.78502,217.859,0.282768
242.6000,-5.33334,217.569,0.278766
242.5000,-3.76491,217.081,0.272018
242.4000,-3.74465,217.974,0.284346
242.3000,-3.23819,217.753,0.281299
242.2000,-4.23773,217.791,0.28183
242.1000,-6.81435,218.509,0.29171
242.0000,-3.04356,218.811,0.295869
241.9000,-6.15542,218.509,0.29171
241.8000,-5.22075,218.557,0.29238
241.7000,-5.68433,218.847,0.296367
241.6000,-4.63888,218.884,0.296865
241.5000,-7.61097,219.875,0.310459
241.4000,-5.41539,219.276,0.302247
241.3000,-6.79323,219.601,0.306704
241.2000,-6.45287,219.483,0.305089
241.1000,-6.30515,219.323,0.302899
241.0000,-5.39672,218.935,0.297566
240.9000,-7.11412,219.591,0.306564
240.8000,-6.43094,220.233,0.315355
240.7000,-7.116,220.084,0.31331
240.6000,-6.48084,220.059,0.31297
240.5000,-7.81206,219.568,0.306254
240.4000,-6.40552,219.798,0.309404
240.3000,-8.67659,220.322,0.316563
240.2000,-8.54847,220.367,0.317182
240.1000,-7.35832,220.946,0.325083
240.0000,-7.78455,219.756,0.30883
239.9000,-7.98386,220.642,0.320941
239.8000,-8.86836,220.938,0.324975
239.7000,-8.39848,221.262,0.329389
239.6000,-7.69054,220.72,0.322008
239.5000,-8.21733,221.626,0.334338
239.4000,-11.0974,221.737,0.335847
239.3000,-9.04482,221.426,0.331625
239.2000,-10.2271,222.088,0.340617
239.1000,-9.62786,222.161,0.341602
239.0000,-9.228,222.413,0.345029
238.9000,-10.6384,221.863,0.337556
238.8000,-11.3126,222.794,0.350186
238.7000,-10.5494,222.47,0.345797
238.6000,-12.3287,222.498,0.346181
238.5000,-11.5038,222.363,0.344353
238.4000,-10.2609,223.705,0.362498
238.3000,-12.2412,224.677,0.37559
238.2000,-14.4014,224.368,0.37143
238.1000,-12.134,222.218,0.342386
238.0000,-11.8572,223.418,0.358628
237.9000,-15.2719,222.934,0.352088
237.8000,-14.6125,223.784,0.363568
237.7000,-14.4017,223.623,0.361397
237.6000,-13.6271,223.4,0.358383
237.5000,-15.0534,225.194,0.38253
237.4000,-15.5299,224.216,0.369386
237.3000,-14.548,225.331,0.384369
237.2000,-13.4584,225.989,0.393187
237.1000,-16.5812,224.696,0.37585
237.0000,-15.2412,224.975,0.379595
236.9000,-15.5997,225.265,0.383488
236.8000,-17.258,226.061,0.394142
236.7000,-15.5201,225.714,0.389502
236.6000,-15.1108,225.769,0.390245
236.5000,-16.7591,225.819,0.390913
236.4000,-17.6391,226.177,0.395703
236.3000,-18.3265,225.787,0.390488
236.2000,-17.1706,227.617,0.414907
236.1000,-19.0554,227.042,0.407244
236.0000,-18.5867,227.694,0.415932
235.9000,-18.8689,227.31,0.410821
235.8000,-20.2289,227.166,0.408905
235.7000,-18.9387,227.481,0.413098
235.6000,-21.6216,228.509,0.426748
235.5000,-21.1366,227.615,0.414877
235.4000,-21.9098,228.535,0.427094
235.3000,-23.5111,227.675,0.415676
235.2000,-22.1567,228.54,0.427154
235.1000,-22.3141,228.409,0.425426
235.0000,-22.0124,229.208,0.436005
234.9000,-22.3631,229.226,0.436244
234.8000,-24.8319,228.805,0.430667
234.7000,-23.4901,228.943,0.432497
234.6000,-24.0572,229.704,0.442562
234.5000,-23.8518,230.247,0.449719
234.4000,-24.2176,229.778,0.443534
234.3000,-24.1982,230.439,0.452241
234.2000,-24.712,231.198,0.462222
234.1000,-24.7678,230.204,0.449152
234.0000,-25.531,229.527,0.440213
233.9000,-25.9955,230.934,0.458754
233.8000,-25.9327,231.175,0.461924
233.7000,-27.4245,231.599,0.467485
233.6000,-26.026,231.744,0.469386
233.5000,-29.7995,232.05,0.473393
233.4000,-27.8074,232.4,0.477973
233.3000,-28.1899,233.014,0.485993
233.2000,-29.7683,231.895,0.47136
233.1000,-29.0397,232.916,0.484707
233.0000,-31.1959,234.291,0.502614
232.9000,-30.2508,233.458,0.491783
232.8000,-29.841,233.727,0.495279
232.7000,-32.3355,234.46,0.504806
232.6000,-32.5989,234.077,0.499832
232.5000,-32.9396,234.37,0.503644
232.4000,-33.3637,234.21,0.501554
232.3000,-31.593,235.194,0.514323
232.2000,-34.9525,234.926,0.510845
232.1000,-34.0723,234.429,0.504409
232.0000,-34.9074,234.859,0.509978
231.9000,-34.9842,236.332,0.52902
231.8000,-34.8025,235.896,0.523391
231.7000,-35.7284,236.657,0.533211
231.6000,-36.4901,236.289,0.528465
231.5000,-37.077,237.524,0.544357
231.4000,-37.0764,237.766,0.54747
231.3000,-37.5658,236.076,0.525717
231.2000,-37.7402,237.745,0.547193
231.1000,-40.0969,237.799,0.547891
231.0000,-37.5221,236.618,0.532714
230.9000,-38.7142,238.324,0.554615
230.8000,-40.4112,237.558,0.544794
230.7000,-40.3031,237.755,0.547324
230.6000,-41.9706,236.861,0.535837
230.5000,-39.5715,237.247,0.540806
230.4000,-42.5739,238.135,0.552191
230.3000,-42.0918,238.959,0.562745
230.2000,-43.0575,238.068,0.551334
230.1000,-41.2607,240.845,0.586756
230.0000,-43.6604,239.41,0.568502
229.9000,-41.3243,239.394,0.5683
229.8000,-41.281,241.501,0.595074
229.7000,-43.6627,239.711,0.572331
229.6000,-43.054,240.852,0.586842
229.5000,-48.432,241.099,0.589976
229.4000,-43.287,241.094,0.589919
229.3000,-46.2256,242.106,0.60273
229.2000,-45.0758,241.429,0.59417
229.1000,-45.7748,241.7,0.597599
229.0000,-46.6724,242.678,0.609955
228.9000,-48.1305,242.283,0.604963
228.8000,-46.959,242.993,0.613926
228.7000,-48.0313,243.163,0.616067
228.6000,-49.0621,243.911,0.625473
228.5000,-52.5439,243.23,0.616909
228.4000,-50.901,243.396,0.619005
228.3000,-49.4837,243.8,0.624078
228.2000,-51.9299,244.577,0.633832
228.1000,-50.9589,244.917,0.63809
228.0000,-49.1741,244.881,0.637636
227.9000,-52.1068,244.3,0.630351
227.8000,-53.5742,246.093,0.652785
227.7000,-54.5821,245.433,0.644539
227.6000,-55.4877,245.301,0.642896
227.5000,-53.0958,245.69,0.647752
227.4000,-53.5005,246.431,0.656993
227.3000,-55.4534,246.639,0.659589
227.2000,-56.5642,248.513,0.682842
227.1000,-56.3571,246.967,0.663662
227.0000,-55.9666,248.312,0.680346
226.9000,-56.8458,247.96,0.675996
226.8000,-54.7153,247.493,0.670193
226.7000,-54.5028,248.026,0.67681
226.6000,-57.1552,247.992,0.676389
226.5000,-57.0615,248.198,0.678943
226.4000,-55.626,248.014,0.676656
226.3000,-60.6154,250.09,0.702285
226.2000,-57.4025,248.505,0.682743
226.1000,-58.5701,249.554,0.695685
226.0000,-58.2133,249.318,0.692779
225.9000,-56.2785,249.916,0.700151
225.8000,-58.5346,249.784,0.698519
225.7000,-56.5816,250.174,0.70333
225.6000,-57.7655,252.19,0.728043
225.5000,-59.7403,251.347,0.717728
225.4000,-60.7456,251.917,0.724704
225.3000,-61.3316,251.272,0.716811
225.2000,-59.3378,252.172,0.727821
225.1000,-61.1307,251.781,0.723041
225.0000,-61.1216,251.056,0.714158
224.9000,-60.8555,251.989,0.725577
224.8000,-59.0146,253.686,0.746274
224.7000,-65.2109,252.935,0.737128
224.6000,-61.414,253.709,0.746549
224.5000,-63.6929,253.255,0.741035
224.4000,-61.2688,253.593,0.745144
224.3000,-61.7271,255.949,0.773686
224.2000,-59.8967,254.708,0.75868
224.1000,-62.7837,253.685,0.74626
224.0000,-61.5979,254.658,0.758076
223.9000,-63.6983,254.131,0.751684
223.8000,-61.7245,253.698,0.746425
223.7000,-64.0738,255.401,0.767075
223.6000,-62.0091,255.589,0.769348
223.5000,-61.3741,256.813,0.784107
223.4000,-62.2361,256.044,0.774835
223.3000,-64.3953,256.25,0.777322
223.2000,-67.1933,256.945,0.785689
223.1000,-63.9097,257.12,0.787801
223.0000,-64.1313,256.737,0.783193
222.9000,-64.5755,257.085,0.787379
222.8000,-62.5166,257.905,0.797231
222.7000,-64.0566,258.25,0.80136
222.6000,-63.128,257.357,0.790648
222.5000,-63.8781,259.208,0.812827
222.4000,-64.7801,259.11,0.81165
222.3000,-64.1156,258.445,0.803695
222.2000,-64.9098,258.729,0.807098
222.1000,-68.0856,259.108,0.811623
222.0000,-65.1109,259.683,0.818494
221.9000,-63.6998,261.105,0.835415
221.8000,-66.7826,260.792,0.8317
221.7000,-65.8084,261.2,0.836544
221.6000,-65.2865,262.51,0.852058
221.5000,-65.4824,262.363,0.850317
221.4000,-65.3837,261.087,0.835199
221.3000,-67.7292,261.424,0.839193
221.2000,-64.6508,261.88,0.844605
221.1000,-62.4719,262.224,0.848668
221.0000,-65.9828,261.896,0.844792
220.9000,-64.5694,263.121,0.85927
220.8000,-62.2118,263.028,0.858174
220.7000,-67.8491,264.472,0.875169
220.6000,-64.4856,264.027,0.869948
220.5000,-65.1022,264.782,0.878814
220.4000,-63.1989,264.831,0.879386
220.3000,-62.843,264.389,0.874197
220.2000,-65.498,265.499,0.887222
220.1000,-65.6791,265.368,0.885683
220.0000,-67.0524,265.715,0.889742
219.9000,-66.5386,266.918,0.903796
219.8000,-58.207,265.735,0.88998
219.7000,-66.3851,267.2,0.907083
219.6000,-63.2688,267.067,0.905539
219.5000,-65.398,267.2,0.907083
219.4000,-65.4378,269.542,0.934263
219.3000,-62.7839,268.247,0.919257
219.2000,-64.8621,268.501,0.922203
219.1000,-65.0985,267.462,0.91013
219.0000,-64.5294,268.581,0.923136
218.9000,-66.6534,268.784,0.925488
218.8000,-66.7583,269.92,0.938636
218.7000,-64.3377,270.724,0.947903
218.6000,-63.4905,269.077,0.928887
218.5000,-61.8575,268.974,0.927693
218.4000,-64.6369,270.556,0.945971
218.3000,-67.2748,270.601,0.946493
218.2000,-60.8488,271.571,0.957655
218.1000,-62.8328,270.896,0.949887
218.0000,-64.9815,271.015,0.951257
217.9000,-64.1328,271.91,0.961546
217.8000,-62.5852,272.149,0.96429
217.7000,-67.2786,272.357,0.966667
217.6000,-63.6896,271.544,0.957343
217.5000,-65.3071,273.321,0.977705
217.4000,-62.7907,272.875,0.972612
217.3000,-63.2568,274.037,0.985882
217.2000,-65.9882,273.576,0.980618
217.1000,-63.3774,274.218,0.987949
217.0000,-67.9294,275.131,0.998344
216.9000,-61.8057,275.186,0.998963
216.8000,-65.8323,276.739,1.01658
216.7000,-62.2649,276.619,1.01522
216.6000,-64.5481,275.84,1.00639
216.5000,-68.8458,276.635,1.0154
216.4000,-62.1546,276.884,1.01822
216.3000,-65.4411,276.478,1.01362
216.2000,-62.8081,277.059,1.02019
216.1000,-64.6499,279.362,1.04614
216.0000,-61.8978,277.862,1.02926
215.9000,-62.5531,278.767,1.03945
215.8000,-64.1604,278.378,1.03507
215.7000,-65.7271,279.269,1.04509
215.6000,-62.6996,279.104,1.04323
215.5000,-62.2998,279.583,1.04861
215.4000,-62.0484,279.229,1.04463
215.3000,-61.5331,279.485,1.04751
215.2000,-62.6808,280.742,1.06159
215.1000,-66.7817,280.385,1.0576
215.0000,-62.6746,281.293,1.06774
214.9000,-62.5036,280.902,1.06338
214.8000,-62.492,281.951,1.07508
214.7000,-59.9312,282.695,1.08335
214.6000,-64.0356,283.441,1.09164
214.5000,-63.8242,283.063,1.08745
214.4000,-62.9347,283.101,1.08787
214.3000,-63.5097,284.109,1.09904
214.2000,-66.6947,284.64,1.10492
214.1000,-61.3671,284.806,1.10674
214.0000,-60.694,285.202,1.11112
213.9000,-64.2371,285.125,1.11027
213.8000,-64.1802,285.792,1.11763
213.7000,-61.918,286.344,1.1237
213.6000,-62.1492,286.643,1.12699
213.5000,-66.0603,287.047,1.13142
213.4000,-65.7231,286.387,1.12417
213.3000,-66.7543,287.471,1.13607
213.2000,-64.7121,287.597,1.13746
213.1000,-65.4021,288.724,1.14978
213.0000,-65.45,288.992,1.15271
212.9000,-66.4621,289.379,1.15692
212.8000,-64.4478,288.797,1.15058
212.7000,-63.5004,289.935,1.16298
212.6000,-63.3112,290.795,1.17233
212.5000,-65.6343,291.238,1.17714
212.4000,-64.8753,290.999,1.17454
212.3000,-64.9834,291.308,1.1779
212.2000,-66.7845,291.899,1.18429
212.1000,-61.7402,292.193,1.18748
212.0000,-66.0259,293.187,1.19821
211.9000,-64.6669,294.402,1.21128
211.8000,-61.4114,294.584,1.21324
211.7000,-66.7709,294.811,1.21567
211.6000,-65.3396,295.89,1.22725
211.5000,-69.1152,295.567,1.22379
211.4000,-66.0354,296.801,1.23698
211.3000,-63.9284,297.578,1.24526
211.2000,-74.0408,297.292,1.24221
211.1000,-67.9978,297.511,1.24454
211.0000,-63.8285,298.087,1.25068
210.9000,-61.9969,298.014,1.2499
210.8000,-65.0233,299.158,1.26205
210.7000,-71.1586,300.487,1.27612
210.6000,-66.692,300.565,1.27694
210.5000,-64.5824,299.994,1.27091
210.4000,-69.0836,300.084,1.27185
210.3000,-66.4301,301.438,1.28615
210.2000,-65.7049,302.367,1.29592
210.1000,-68.1029,303.448,1.30727
210.0000,-74.3738,304.603,1.31934
209.9000,-71.7446,304.447,1.31772
209.8000,-66.3969,305.993,1.33384
209.7000,-71.8137,306.054,1.33447
209.6000,-69.0604,306.398,1.33806
209.5000,-74.5534,307.328,1.3477
209.4000,-68.7185,308.774,1.36267
209.3000,-67.9734,308.237,1.35712
209.2000,-70.1238,309.911,1.37439
209.1000,-64.9734,310.447,1.3799
209.0000,-68.1499,310.261,1.37799
208.9000,-67.5252,311.343,1.38911
208.8000,-64.9532,312.135,1.39722
208.7000,-68.7215,312.767,1.40368
208.6000,-66.3484,312.356,1.39948
208.5000,-67.7504,312.872,1.40475
208.4000,-68.2371,314.697,1.42335
208.3000,-65.3417,316.621,1.44285
208.2000,-71.8471,316.686,1.44351
208.1000,-64.416,317.09,1.44759
208.0000,-63.2409,319.15,1.46834
207.9000,-63.509,319.361,1.47046
207.8000,-67.4695,321.004,1.48692
207.7000,-63.2059,321.979,1.49666
207.6000,-63.5504,320.733,1.48421
207.5000,-61.9913,323.575,1.51254
207.4000,-59.5965,323.098,1.5078
207.3000,-64.4681,324.73,1.524
207.2000,-64.4908,325.279,1.52942
207.1000,-62.7102,326.037,1.53691
207.0000,-65.502,327.137,1.54775
206.9000,-68.0639,327.783,1.5541
206.8000,-58.886,328.745,1.56354
206.7000,-59.1662,330.327,1.57901
206.6000,-62.1524,330.393,1.57966
206.5000,-54.4309,331.655,1.59195
206.4000,-59.4527,333.748,1.61227
206.3000,-58.66,334.131,1.61597
206.2000,-50.5164,335.412,1.62833
206.1000,-56.0108,335.943,1.63345
206.0000,-61.2055,337.114,1.6447
205.9000,-54.7482,338.423,1.65725
205.8000,-59.0134,338.907,1.66187
205.7000,-50.6945,340.498,1.67704
205.6000,-47.8262,340.284,1.675
205.5000,-51.4522,343.094,1.70167
205.4000,-51.6878,343.128,1.70199
205.3000,-56.1008,345.298,1.72245
205.2000,-50.4869,346.684,1.73546
205.1000,-44.6175,348.418,1.75169
205.0000,-47.3726,348.758,1.75486
204.9000,-53.2972,350.334,1.76953
204.8000,-41.2335,350.819,1.77404
204.7000,-41.1581,352.621,1.79072
204.6000,-42.0842,354.99,1.81256
204.5000,-45.5762,355.419,1.8165
204.4000,-39.7976,356.509,1.8265
204.3000,-38.5223,357.531,1.83585
204.2000,-31.9972,359.847,1.85694
204.1000,-37.3177,361.021,1.8676
204.0000,-32.7835,362.553,1.88145
203.9000,-32.8851,363.536,1.89031
203.8000,-31.3144,365.509,1.90805
203.7000,-29.4604,367.931,1.92971
203.6000,-36.416,368.838,1.93779
203.5000,-30.394,371.363,1.9602
203.4000,-22.5497,370.855,1.9557
203.3000,-17.5631,373.16,1.97607
203.2000,-20.2524,375.015,1.99238
203.1000,-13.8869,377.062,2.01031
203.0000,-15.1944,377.718,2.01604
202.9000,-18.4705,378.055,2.01897
202.8000,-14.6415,381.068,2.04515
202.7000,-18.9962,382.101,2.05409
202.6000,-17.9526,384.649,2.07604
202.5000,-13.1356,385.286,2.08151
202.4000,-9.47137,387.311,2.09884
202.3000,-11.5756,387.909,2.10395
202.2000,-1.66785,390.87,2.12913
202.1000,6.77519,393.851,2.15432
202.0000,-10.054,395.929,2.17178
201.9000,-5.69194,398.163,2.19047
201.8000,-9.68527,400.403,2.20912
201.7000,5.7596,400.776,2.21222
201.6000,-4.49005,404.238,2.24085
201.5000,-6.34122,405.985,2.25522
201.4000,-4.00604,407.205,2.26523
201.3000,3.03023,408.495,2.27577
201.2000,1.50834,409.897,2.28721
201.1000,5.57121,413.047,2.31278
201.0000,-0.467243,414.934,2.32802
200.9000,23.6518,416.067,2.33715
200.8000,0.456439,418.294,2.35502
200.7000,15.6268,419.906,2.3679
200.6000,13.5612,422.378,2.38758
200.5000,18.0046,426.219,2.41797
200.4000,11.4416,426.989,2.42403
200.3000,25.111,430.085,2.44832
200.2000,12.7013,432.003,2.4633
200.1000,17.5477,435.343,2.48923
200.0000,5.36688,436.912,2.50136
199.9000,12.3949,440.245,2.52701
199.8000,34.1463,442.728,2.546
199.7000,13.0309,444.445,2.55908
199.6000,34.2477,446.584,2.57533
199.5000,23.6021,448.856,2.5925
199.4000,35.5343,450.709,2.60646
199.3000,4.15104,452.231,2.61789
199.2000,39.196,455.316,2.64095
199.1000,28.7131,455.802,2.64458
199.0000,33.1852,460.076,2.67628
198.9000,25.4183,462.239,2.69223
198.8000,25.7448,465.319,2.71483
198.7000,38.8271,468.161,2.73558
198.6000,30.1945,469.879,2.74807
198.5000,33.4757,472.491,2.76699
198.4000,14.6457,475.604,2.78941
198.3000,21.5095,477.953,2.80625
198.2000,32.5866,480.397,2.8237
198.1000,32.6858,484.084,2.84988
198.0000,24.9409,484.829,2.85516
197.9000,32.4274,489.158,2.88564
197.8000,23.2908,490.679,2.8963
197.7000,37.3502,493.854,2.91846
197.6000,32.8546,496.144,2.93436
197.5000,36.738,498.559,2.95106
197.4000,30.4535,501.719,2.97282
197.3000,40.7961,504.813,2.99402
197.2000,22.0893,506.945,3.00855
197.1000,24.5724,509.535,3.02614
197.0000,51.7775,512.161,3.04391
196.9000,29.7891,514.215,3.05775
196.8000,35.8099,517.633,3.08067
196.7000,39.9885,520.365,3.0989
196.6000,32.704,522.763,3.11483
196.5000,29.8763,527.327,3.14499
196.4000,23.6545,529.917,3.16201
196.3000,37.0024,533.934,3.18826
196.2000,12.5594,535.42,3.19792
196.1000,16.3808,538.68,3.21906
196.0000,23.6953,542.369,3.24284
195.9000,30.2032,544.888,3.259
195.8000,39.1234,548.982,3.28514
195.7000,23.1058,550.706,3.29609
195.6000,39.3059,553.211,3.31195
195.5000,40.0572,555.749,3.32797
195.4000,31.6036,558.091,3.34269
195.3000,24.2224,562.051,3.36746
195.2000,30.012,562.857,3.37248
195.1000,33.5964,564.949,3.38549
195.0000,23.1891,567.257,3.3998
194.9000,28.2295,572.003,3.42907
194.8000,23.64,572.576,3.43259
194.7000,28.2793,575.684,3.45162
194.6000,24.9704,578.13,3.46654
194.5000,35.7235,580.346,3.48001
194.4000,34.7298,581.605,3.48765
194.3000,37.5698,584.894,3.50753
194.2000,35.2308,585.994,3.51415
194.1000,32.509,590.76,3.54274
194.0000,18.7181,593.438,3.55872
193.9000,21.3481,596.022,3.57408
193.8000,24.1646,599.254,3.59322
193.7000,26.2488,600.662,3.60152
193.6000,32.7337,602.983,3.61518
193.5000,29.0255,606.687,3.63689
193.4000,25.0592,608.557,3.6478
193.3000,17.0695,610.567,3.6595
193.2000,20.2496,611.864,3.66703
193.1000,39.6549,614.483,3.6822
193.0000,24.3189,615.887,3.69031
192.9000,30.7221,618.497,3.70535
192.8000,19.1485,621.214,3.72094
192.7000,24.3721,623.292,3.73282
192.6000,24.3086,626.12,3.74894
192.5000,15.0245,628.383,3.7618
192.4000,16.6619,632.605,3.78568
192.3000,22.6689,634.264,3.79503
192.2000,21.827,637.616,3.81384
192.1000,13.4308,639.802,3.82608
192.0000,19.2814,641.799,3.83721
191.9000,6.47188,643.792,3.8483
191.8000,29.0603,646.506,3.86336
191.7000,26.0549,648.341,3.87351
191.6000,27.1517,651.258,3.88958
191.5000,24.739,653.764,3.90335
191.4000,24.2229,656.269,3.91707
191.3000,24.9053,659.035,3.93216
191.2000,17.3016,662.183,3.94927
191.1000,29.0861,664.069,3.95949
191.0000,23.7683,668.691,3.98443
190.9000,14.2544,671.444,3.99921
190.8000,20.167,675.043,4.01846
190.7000,3.46628,678.106,4.03477
190.6000,11.864,682.258,4.05679
190.5000,2.52577,684.297,4.06755
190.4000,3.32112,687.738,4.08567
190.3000,20.6863,690.445,4.09986
190.2000,14.8076,693.114,4.11381
190.1000,13.3908,696.588,4.1319
190.0000,7.47613,699.117,4.14501

##### Extended Information
[Comments]
Sample name,ds + JL Protein and buffer
Comment,Protein and buffer
User,Drew Seitzman and Julia Linthicum
Division
Company,Saint Mary's College

[Detailed Information]
Creation date,9/29/2022 2:35 PM

Data array type,Linear data array * 3
Horizontal axis,Wavelength [nm]
Vertical axis(1),CD [mdeg]
Vertical axis(2),HT [V]
Vertical axis(3),Abs
Start,320 nm
End,190 nm
Data interval,0.1 nm
Data points,1301    

[Measurement Information]
Instrument name,J-1500
Model name,J-1500
Serial No.,B051061638

Detector,PM-539
Detector S/N,B051061638
  Lock-in amp.,X mode
  HT volt,Auto

Accessory,PTC-517
Accessory S/N,B026561646
  Temperature,22.62 C
  Control sensor,Holder
  Monitor sensor,Holder

Measurement date,9/29/2022 2:34 PM

CD Overload detect,943
Photometric mode,CD, HT, Abs
Measure range,320 - 190 nm
Data pitch,0.1 nm
CD scale,20 mdeg/0.05 dOD
FL scale,20 mdeg/0.05 dOD
D.I.T.,8 msec
Bandwidth,2.00 nm
Start mode,Immediately
Scanning mode,Continuous
Scanning speed,200 nm/min
Baseline correction,None
Shutter control,Auto
No. of cycle,1/1
N2 Flowmeter,Manual

Solvent,NaPO4 buffer

