TITLE,ds + JL protein and additive
DATA TYPE,
ORIGIN,JASCO
OWNER,
DATE,22/09/29
TIME,15:47:06
SPECTROMETER/DATA SYSTEM,
LOCALE,1033
RESOLUTION,
DELTAX,-0.1
XUNITS,NANOMETERS
YUNITS,CD [mdeg]
Y2UNITS,HT [V]
Y3UNITS,ABSORBANCE
FIRSTX,  320.0000
LASTX,  190.0000
NPOINTS,    1301
FIRSTY,     0.54339
MAXY,    52.70999
MINY,   -65.20674
XYDATA
320.0000,0.543385,209.521,0.165932
319.9000,2.38154,208.643,0.153406
319.8000,0.339607,209.393,0.164108
319.7000,0.41603,208.6,0.152791
319.6000,1.45653,209.007,0.158599
319.5000,1.25688,208.622,0.153098
319.4000,1.95719,209.497,0.165593
319.3000,0.805916,209.59,0.166916
319.2000,0.681203,209.445,0.164851
319.1000,0.567598,208.602,0.152823
319.0000,0.703298,209.578,0.166739
318.9000,0.846192,209.05,0.159214
318.8000,0.567131,209.258,0.162187
318.7000,0.444214,209.283,0.162542
318.6000,1.54518,208.941,0.157662
318.5000,0.925051,208.152,0.146389
318.4000,0.708132,208.939,0.157629
318.3000,1.5924,209.088,0.159763
318.2000,1.6169,208.898,0.157047
318.1000,1.47265,209.298,0.162752
318.0000,1.50265,208.719,0.154491
317.9000,1.06782,208.356,0.149307
317.8000,0.371342,208.199,0.147054
317.7000,0.351455,208.746,0.154879
317.6000,0.645742,209.339,0.163333
317.5000,1.71128,208.209,0.1472
317.4000,0.270706,209.108,0.160038
317.3000,0.47595,208.055,0.144993
317.2000,0.625917,209.096,0.159876
317.1000,1.29905,209.544,0.166255
317.0000,2.97117,208.344,0.149129
316.9000,1.48813,209.38,0.163915
316.8000,-0.329026,208.937,0.157597
316.7000,1.24174,209.753,0.169238
316.6000,-0.827068,208.728,0.15462
316.5000,1.24996,209.435,0.164706
316.4000,0.195215,209.511,0.165787
316.3000,1.5378,208.61,0.152936
316.2000,1.44664,208.631,0.153228
316.1000,1.36647,208.195,0.147005
316.0000,1.34899,208.96,0.157937
315.9000,3.09518,208.958,0.157904
315.8000,-0.0429504,209.489,0.16548
315.7000,1.84963,208.465,0.150863
315.6000,3.05909,208.725,0.154571
315.5000,0.677738,208.747,0.154895
315.4000,-0.635793,209.304,0.162833
315.3000,1.38239,208.784,0.155413
315.2000,1.15942,208.294,0.148416
315.1000,1.68004,208.146,0.146291
315.0000,1.1773,208.793,0.155542
314.9000,0.657175,207.896,0.142721
314.8000,1.77988,208.656,0.153584
314.7000,1.61934,208.36,0.149356
314.6000,2.73329,208.467,0.150896
314.5000,1.97972,208.838,0.15619
314.4000,1.76873,209.485,0.165416
314.3000,0.0800812,209.006,0.158583
314.2000,1.03394,209.198,0.161331
314.1000,0.84946,208.267,0.148027
314.0000,0.179549,208.635,0.153293
313.9000,-0.242345,208.065,0.145139
313.8000,0.581446,207.926,0.143143
313.7000,1.27221,209.466,0.165141
313.6000,0.0378903,208.743,0.154831
313.5000,0.995653,208.236,0.147589
313.4000,-0.542587,208.353,0.149259
313.3000,2.52616,208.276,0.148156
313.2000,2.16682,209.04,0.159068
313.1000,-0.219715,208.399,0.149923
313.0000,2.79473,208.239,0.147622
312.9000,0.119287,207.951,0.1435
312.8000,-0.0633212,209.014,0.158696
312.7000,2.88013,207.441,0.136187
312.6000,0.686426,208.25,0.147784
312.5000,0.223763,207.911,0.142932
312.4000,1.53482,208.929,0.157484
312.3000,0.0104958,208.813,0.155834
312.2000,-0.158127,208.344,0.149129
312.1000,0.976922,208.158,0.14647
312.0000,2.11878,208.804,0.155704
311.9000,0.80103,208.991,0.158373
311.8000,0.383517,208.41,0.150069
311.7000,0.893657,207.721,0.140203
311.6000,1.55831,208.089,0.14548
311.5000,0.255541,209.088,0.159763
311.4000,2.11181,208.046,0.144864
311.3000,-0.532941,207.613,0.138659
311.2000,0.117051,208.239,0.147622
311.1000,2.2349,208.44,0.150507
311.0000,1.74035,208.142,0.146243
310.9000,2.14509,207.667,0.139439
310.8000,1.70663,208.461,0.150798
310.7000,2.72809,207.896,0.142721
310.6000,0.349527,207.379,0.135292
310.5000,0.394507,208.055,0.144993
310.4000,-1.37906,208.276,0.148156
310.3000,1.21308,208.024,0.144555
310.2000,0.842802,208.543,0.151981
310.1000,1.18888,208.337,0.149032
310.0000,0.574537,208.612,0.152969
309.9000,0.548959,208.197,0.147021
309.8000,0.882115,207.913,0.142964
309.7000,-0.0836514,208.429,0.150345
309.6000,-0.128992,206.936,0.128925
309.5000,1.43,207.213,0.132916
309.4000,-0.0700444,208.635,0.153293
309.3000,-0.391446,208.456,0.150734
309.2000,-0.12943,209.029,0.158923
309.1000,0.640885,208.36,0.149356
309.0000,1.26594,209.046,0.159165
308.9000,1.90795,208.961,0.157953
308.8000,1.68291,208.583,0.152548
308.7000,1.548,208.836,0.156157
308.6000,1.37967,208.321,0.148805
308.5000,0.491542,208.358,0.149324
308.4000,0.323917,206.841,0.127571
308.3000,0.419676,207.783,0.141097
308.2000,1.51406,208.036,0.144718
308.1000,1.22314,207.511,0.137195
308.0000,-0.4375,208.541,0.151949
307.9000,1.29932,208.137,0.146162
307.8000,0.149973,208.646,0.153455
307.7000,1.0663,208.963,0.157969
307.6000,1.46404,208.539,0.151916
307.5000,2.46502,208.691,0.154086
307.4000,2.27518,208.742,0.154814
307.3000,0.172084,208.449,0.150636
307.2000,1.55664,208.51,0.151511
307.1000,1.82546,207.388,0.135422
307.0000,1.91243,208.112,0.145805
306.9000,0.565734,207.779,0.141031
306.8000,0.600613,207.734,0.140398
306.7000,2.22197,208.447,0.150604
306.6000,0.765808,209.014,0.158696
306.5000,1.4385,208.767,0.15517
306.4000,0.982667,208.378,0.149615
306.3000,1.2717,208.284,0.14827
306.2000,1.71535,208.674,0.153843
306.1000,0.542664,207.589,0.138318
306.0000,1.21436,208.22,0.147362
305.9000,1.28944,207.475,0.136675
305.8000,-0.459224,208.602,0.152823
305.7000,1.2782,208.462,0.150815
305.6000,0.857582,207.584,0.138236
305.5000,1.67508,207.698,0.139878
305.4000,0.161355,208.308,0.148611
305.3000,1.44116,207.817,0.141584
305.2000,0.362512,208.031,0.144653
305.1000,1.54958,208.971,0.158082
305.0000,2.95417,208.44,0.150507
304.9000,0.71153,208.325,0.148854
304.8000,0.799433,207.447,0.136268
304.7000,1.49493,209.976,0.172396
304.6000,3.34957,208.048,0.144896
304.5000,0.628357,207.756,0.140707
304.4000,1.65562,207.528,0.137439
304.3000,0.651861,208.941,0.157662
304.2000,1.66401,209.161,0.160797
304.1000,-0.509121,207.884,0.142542
304.0000,-0.205745,207.563,0.137943
303.9000,2.04385,207.811,0.141503
303.8000,-0.532324,208.018,0.144458
303.7000,0.716021,208.052,0.144945
303.6000,1.52944,207.516,0.137261
303.5000,1.21144,207.295,0.134088
303.4000,1.24177,207.828,0.141746
303.3000,1.56694,208.636,0.153309
303.2000,1.70224,209.485,0.165416
303.1000,1.863,207.16,0.13215
303.0000,-0.99518,207.541,0.137618
302.9000,-0.174926,208.759,0.155057
302.8000,0.770303,207.405,0.135666
302.7000,1.85357,209.015,0.158713
302.6000,1.84741,208.427,0.150312
302.5000,1.68891,207.985,0.143987
302.4000,0.223686,207.827,0.14173
302.3000,2.68255,207.405,0.135666
302.2000,-0.495409,207.424,0.135943
302.1000,3.55607,208.735,0.154717
302.0000,0.719579,209.134,0.16041
301.9000,1.97851,208.333,0.148967
301.8000,0.767873,208.934,0.157565
301.7000,0.526356,207.466,0.136545
301.6000,0.484153,208.364,0.149421
301.5000,1.31789,207.499,0.137017
301.4000,1.8427,208.313,0.148692
301.3000,2.35104,208.363,0.149405
301.2000,0.802782,207.196,0.132672
301.1000,0.92118,207.89,0.142623
301.0000,2.21095,206.904,0.128468
300.9000,-0.505826,207.943,0.143386
300.8000,1.27539,207.86,0.142201
300.7000,-0.167494,209.109,0.160054
300.6000,0.349506,207.914,0.14298
300.5000,0.929318,207.953,0.143533
300.4000,0.945488,207.697,0.139862
300.3000,1.06192,207.217,0.132965
300.2000,-0.0546709,207.772,0.140934
300.1000,1.21458,207.461,0.13648
300.0000,0.61543,208.39,0.149794
299.9000,0.86443,207.905,0.142851
299.8000,1.53575,207.947,0.143451
299.7000,1.65327,207.796,0.141275
299.6000,0.175214,208.325,0.148854
299.5000,0.476078,206.853,0.127734
299.4000,1.15511,207.822,0.141649
299.3000,0.747847,207.162,0.132183
299.2000,0.864728,207.987,0.14402
299.1000,-0.383894,207.647,0.139147
299.0000,0.958542,208.38,0.149648
298.9000,0.357963,208.203,0.147119
298.8000,0.809499,208.341,0.149081
298.7000,1.83732,208.406,0.150021
298.6000,0.253403,207.279,0.13386
298.5000,1.10382,207.709,0.14004
298.4000,1.5038,207.965,0.143711
298.3000,2.68973,207.648,0.139163
298.2000,0.493943,207.253,0.133486
298.1000,-0.494468,207.916,0.142997
298.0000,1.0006,208.742,0.154814
297.9000,0.311593,207.542,0.137635
297.8000,-1.50327,207.613,0.138659
297.7000,1.41452,208.149,0.14634
297.6000,0.542413,206.827,0.127359
297.5000,1.93118,207.109,0.131417
297.4000,0.446304,207.401,0.135618
297.3000,1.3024,208.573,0.152402
297.2000,1.36636,207.452,0.13635
297.1000,0.762098,206.778,0.126658
297.0000,0.880133,207.882,0.14251
296.9000,0.45093,208.538,0.1519
296.8000,1.6822,208.189,0.146908
296.7000,-0.625315,207.46,0.136464
296.6000,1.52579,209.133,0.160393
296.5000,0.343492,207.505,0.137114
296.4000,1.64344,208.061,0.145075
296.3000,1.47698,207.814,0.141535
296.2000,1.5008,206.696,0.125483
296.1000,0.598425,207.879,0.142477
296.0000,1.5627,208.174,0.146697
295.9000,0.983735,206.499,0.122643
295.8000,0.900325,207.962,0.143663
295.7000,-0.266645,208.354,0.149275
295.6000,-0.308866,207.769,0.140902
295.5000,0.321707,206.858,0.127816
295.4000,1.59784,207.607,0.138578
295.3000,0.384138,207.325,0.134527
295.2000,-0.138507,206.546,0.123313
295.1000,0.0336433,207.213,0.132916
295.0000,-0.551786,207.979,0.143906
294.9000,0.767963,206.821,0.127278
294.8000,2.58455,206.827,0.127359
294.7000,1.99846,208.044,0.144831
294.6000,1.8497,207.311,0.134316
294.5000,0.413004,207.772,0.140934
294.4000,0.204732,207.706,0.139992
294.3000,-0.114885,207.166,0.132232
294.2000,0.927943,207.876,0.142429
294.1000,2.22629,207.084,0.131059
294.0000,-0.557777,206.973,0.129462
293.9000,-0.0063823,207.925,0.143127
293.8000,-0.020953,207.358,0.134999
293.7000,2.10231,208.382,0.14968
293.6000,1.58363,207.505,0.137114
293.5000,1.83189,207.196,0.132672
293.4000,2.30408,207.092,0.131173
293.3000,2.52428,207.596,0.138415
293.2000,0.336178,207.621,0.138773
293.1000,0.375696,208.566,0.152305
293.0000,-0.34819,208.571,0.15237
292.9000,1.19803,208.531,0.151803
292.8000,0.636845,205.804,0.112604
292.7000,1.12982,208.687,0.154037
292.6000,1.27144,206.82,0.127261
292.5000,2.45621,207.427,0.135992
292.4000,2.20313,207.357,0.134983
292.3000,0.922937,206.29,0.119621
292.2000,0.836644,206.771,0.12656
292.1000,2.33229,207.144,0.131922
292.0000,2.88396,207.96,0.14363
291.9000,-0.516761,207.947,0.143451
291.8000,0.335389,208.745,0.154863
291.7000,1.98191,208.174,0.146697
291.6000,1.77672,206.21,0.118477
291.5000,-0.477607,206.309,0.119899
291.4000,1.338,207.348,0.134853
291.3000,0.216864,207.67,0.139472
291.2000,1.28215,206.25,0.119049
291.1000,-0.631657,206.895,0.128337
291.0000,2.78864,206.897,0.12837
290.9000,-0.316921,207.903,0.142818
290.8000,1.29234,206.227,0.118722
290.7000,-0.183904,208.997,0.158454
290.6000,0.758107,207.078,0.130978
290.5000,1.97589,206.934,0.128908
290.4000,2.20854,206.309,0.119899
290.3000,1.7034,207.632,0.138935
290.2000,-0.051531,207.739,0.140463
290.1000,1.59895,207.835,0.141844
290.0000,0.545829,207.822,0.141649
289.9000,-0.164005,207.255,0.133518
289.8000,0.507014,208.64,0.153357
289.7000,0.273615,207.143,0.131906
289.6000,0.227757,207.56,0.137895
289.5000,0.00820293,207.952,0.143516
289.4000,1.37642,208.634,0.153276
289.3000,-0.168098,207.081,0.13101
289.2000,1.5024,206.441,0.12181
289.1000,0.277311,207.067,0.130815
289.0000,0.155776,208.313,0.148692
288.9000,0.262023,209.479,0.165335
288.8000,1.67137,206.559,0.123509
288.7000,2.50356,208.534,0.151851
288.6000,1.0975,207.947,0.143451
288.5000,2.63751,208.077,0.145302
288.4000,-0.915616,207.73,0.140333
288.3000,2.21774,208.27,0.148075
288.2000,2.12541,207.994,0.144117
288.1000,0.766162,208.852,0.156384
288.0000,-0.727701,208.183,0.146827
287.9000,-0.0309124,207.101,0.131304
287.8000,0.970262,208.174,0.146697
287.7000,-0.571348,207.948,0.143468
287.6000,0.319854,208.308,0.148611
287.5000,1.12365,207.828,0.141746
287.4000,1.35105,208.253,0.147832
287.3000,1.57469,209.053,0.159262
287.2000,-1.14446,207.397,0.135553
287.1000,0.43583,208.066,0.145156
287.0000,0.051779,208.631,0.153228
286.9000,-0.189324,207.885,0.142558
286.8000,1.29055,208.427,0.150312
286.7000,1.7274,207.01,0.13
286.6000,0.995285,207.127,0.131678
286.5000,0.855739,209.208,0.161476
286.4000,1.9831,208.343,0.149113
286.3000,0.286232,209.04,0.159068
286.2000,0.92033,207.535,0.137537
286.1000,1.77493,207.171,0.132313
286.0000,-0.456179,209.484,0.165399
285.9000,1.30731,209.382,0.163947
285.8000,0.114952,207.931,0.143224
285.7000,0.420298,207.656,0.139277
285.6000,-0.800434,208.43,0.150361
285.5000,1.76108,207.866,0.142282
285.4000,0.757595,208.358,0.149324
285.3000,0.690429,208.02,0.14449
285.2000,0.195892,208.599,0.152775
285.1000,0.69507,208.734,0.154701
285.0000,1.82956,207.639,0.139033
284.9000,0.811246,208.433,0.15041
284.8000,-0.360833,209.44,0.16477
284.7000,-0.670236,208.177,0.146746
284.6000,-0.382539,207.922,0.143094
284.5000,1.62732,208.656,0.153584
284.4000,-0.342426,208.345,0.149145
284.3000,0.136106,209.067,0.159456
284.2000,1.48643,207.458,0.136431
284.1000,0.782956,208.787,0.155462
284.0000,0.481034,208.444,0.150555
283.9000,-1.68392,208.379,0.149632
283.8000,-0.706684,208.031,0.144653
283.7000,1.01741,207.947,0.143451
283.6000,0.502909,209.247,0.162025
283.5000,0.728119,208.099,0.145626
283.4000,1.91154,208.021,0.144506
283.3000,-1.99139,208.343,0.149113
283.2000,-0.863134,207.103,0.131336
283.1000,1.23982,207.167,0.132248
283.0000,0.522226,208.268,0.148043
282.9000,1.3614,208.06,0.145058
282.8000,1.98737,207.325,0.134527
282.7000,-0.676138,208.641,0.153374
282.6000,1.08762,208.295,0.148432
282.5000,0.787868,209.01,0.158648
282.4000,1.4168,208.273,0.148108
282.3000,-0.185877,208.227,0.147459
282.2000,0.785012,209.08,0.15965
282.1000,-0.209559,208.961,0.157953
282.0000,2.47776,208.624,0.153131
281.9000,0.702838,208.197,0.147021
281.8000,1.18244,208.88,0.156788
281.7000,0.0315808,208.361,0.149372
281.6000,0.325654,209.083,0.159683
281.5000,0.822388,207.29,0.134023
281.4000,-1.15055,208.484,0.151139
281.3000,0.208456,208.055,0.144993
281.2000,0.45343,208.999,0.158486
281.1000,0.19078,208.007,0.144312
281.0000,-0.368181,208.22,0.147362
280.9000,-0.269035,207.548,0.137732
280.8000,1.62066,209.562,0.166513
280.7000,0.479439,208.147,0.146308
280.6000,0.510346,208.821,0.155947
280.5000,1.04888,209.291,0.162655
280.4000,1.12905,207.474,0.136659
280.3000,1.72007,208.582,0.152532
280.2000,0.0180612,208.334,0.148983
280.1000,0.482858,207.139,0.131857
280.0000,1.79383,208.169,0.146632
279.9000,-0.804776,208.439,0.150491
279.8000,2.05464,208.157,0.146454
279.7000,0.117267,207.939,0.143338
279.6000,0.896774,209.088,0.159763
279.5000,1.12247,208.414,0.150134
279.4000,-0.126021,207.635,0.138968
279.3000,1.01978,209.493,0.165529
279.2000,0.576134,208.071,0.145221
279.1000,0.322247,208.736,0.154733
279.0000,1.238,208.284,0.14827
278.9000,-2.14181,207.88,0.142493
278.8000,0.881569,208.079,0.145334
278.7000,0.233715,207.248,0.133421
278.6000,1.15776,207.921,0.143078
278.5000,-1.51769,207.529,0.137456
278.4000,1.38552,207.333,0.134641
278.3000,1.40534,208.83,0.156077
278.2000,0.751211,208.634,0.153276
278.1000,0.860529,208.925,0.157435
278.0000,-0.17728,207.953,0.143533
277.9000,-0.570902,208.907,0.157177
277.8000,0.370357,209,0.158502
277.7000,2.25356,208.195,0.147005
277.6000,0.866408,209.173,0.160975
277.5000,2.93314,209.227,0.161735
277.4000,0.331586,208.282,0.148238
277.3000,-1.41101,209.071,0.159521
277.2000,-0.191624,207.897,0.142737
277.1000,0.125994,208.063,0.145107
277.0000,-0.0475348,207.626,0.138838
276.9000,1.68774,209.037,0.159036
276.8000,0.56299,207.746,0.140561
276.7000,0.754656,211.102,0.18837
276.6000,0.707328,208.75,0.154928
276.5000,-1.55449,207.288,0.13399
276.4000,-1.20729,206.939,0.128973
276.3000,0.960925,209.144,0.160555
276.2000,0.964788,208.753,0.154976
276.1000,0.527324,209.223,0.161686
276.0000,1.02829,206.735,0.126038
275.9000,1.50714,208.925,0.157435
275.8000,1.22612,208.532,0.151819
275.7000,-0.745953,208.987,0.158325
275.6000,0.336094,209.188,0.161185
275.5000,0.178232,208.872,0.156675
275.4000,-1.02778,208.016,0.144442
275.3000,0.141533,208.401,0.14994
275.2000,1.33355,208.036,0.144718
275.1000,-0.71607,209.017,0.158745
275.0000,-0.384224,208.378,0.149615
274.9000,0.761025,207.963,0.143679
274.8000,0.82231,208.27,0.148075
274.7000,0.376919,208.986,0.158309
274.6000,0.695479,209.034,0.158987
274.5000,0.505538,208.115,0.145853
274.4000,2.31814,208.818,0.155899
274.3000,0.613038,208.837,0.156174
274.2000,-1.07968,208.253,0.147832
274.1000,0.852913,208.307,0.148594
274.0000,0.5504,208.541,0.151949
273.9000,0.690971,209.489,0.16548
273.8000,0.391684,209.143,0.160539
273.7000,0.0238424,208.645,0.153438
273.6000,-0.121322,208.767,0.15517
273.5000,1.50613,208.015,0.144425
273.4000,0.687546,209.925,0.171671
273.3000,0.713093,208.91,0.157225
273.2000,0.0788264,208.837,0.156174
273.1000,1.79144,209.076,0.159585
273.0000,-0.485842,207.867,0.142299
272.9000,1.8471,208.639,0.153341
272.8000,0.447883,209.105,0.160006
272.7000,1.41833,208.636,0.153309
272.6000,0.65859,209.007,0.158599
272.5000,0.788873,207.534,0.137521
272.4000,2.0043,208.474,0.150993
272.3000,0.870685,209.369,0.163769
272.2000,-0.72346,207.606,0.138561
272.1000,-0.0240805,208.64,0.153357
272.0000,-0.133056,208.001,0.144215
271.9000,0.72191,208.744,0.154847
271.8000,-1.21754,208.859,0.156497
271.7000,0.566926,207.626,0.138838
271.6000,0.729848,208.274,0.148124
271.5000,-0.252941,209.585,0.166835
271.4000,0.618752,208.64,0.153357
271.3000,-0.0803005,207.254,0.133502
271.2000,1.50362,207.887,0.142591
271.1000,1.86252,208.967,0.158034
271.0000,-1.00922,208.177,0.146746
270.9000,0.578241,208.692,0.154102
270.8000,-0.914213,207.477,0.136708
270.7000,-0.113793,208.769,0.155203
270.6000,-0.513058,207.894,0.142688
270.5000,1.29418,210.196,0.175536
270.4000,0.383498,208.341,0.149081
270.3000,-0.418193,208.521,0.151657
270.2000,1.94487,209.089,0.15978
270.1000,1.00066,208.329,0.148919
270.0000,-0.47535,209.257,0.162171
269.9000,1.91273,208.816,0.155882
269.8000,-0.13972,208.403,0.149972
269.7000,0.560592,209.472,0.165238
269.6000,1.6659,209.188,0.161185
269.5000,0.277665,209.1,0.159925
269.4000,1.10753,208.898,0.157047
269.3000,3.05682,209.037,0.159036
269.2000,2.12229,208.302,0.148529
269.1000,-0.907545,207.731,0.140349
269.0000,2.02754,208.978,0.158195
268.9000,-0.84055,209.353,0.163543
268.8000,1.01579,209.147,0.160604
268.7000,0.729333,209.075,0.159569
268.6000,-1.30908,207.712,0.140073
268.5000,0.408498,208.291,0.148367
268.4000,0.822254,209.194,0.161266
268.3000,-0.552866,209.497,0.165593
268.2000,-2.09337,209.514,0.165835
268.1000,-0.0474186,209.391,0.164076
268.0000,0.555128,209.514,0.165835
267.9000,0.418571,209.007,0.158599
267.8000,0.0342409,209.355,0.16356
267.7000,0.535029,208.373,0.149551
267.6000,0.237833,208.854,0.156416
267.5000,0.613551,209.398,0.164173
267.4000,-0.106786,209.297,0.162736
267.3000,2.05302,209.736,0.168996
267.2000,-0.43387,209.948,0.17201
267.1000,-1.2343,209.044,0.159133
267.0000,0.99502,209.275,0.162429
266.9000,0.43748,209.05,0.159214
266.8000,-2.51683,209.42,0.164496
266.7000,0.524971,209.583,0.166819
266.6000,1.18232,208.747,0.154895
266.5000,-0.413044,209.982,0.172493
266.4000,-0.708296,208.601,0.152807
266.3000,-1.01422,210.783,0.183862
266.2000,-0.595442,208.785,0.155429
266.1000,-1.06135,209.789,0.169738
266.0000,1.14953,210.426,0.178801
265.9000,-0.49308,209.076,0.159585
265.8000,0.858524,209.406,0.164286
265.7000,0.525998,209.315,0.162994
265.6000,0.288383,209.816,0.170125
265.5000,0.345285,209.402,0.164237
265.4000,-1.10625,210.357,0.17782
265.3000,0.226931,211.703,0.196875
265.2000,-1.14846,208.191,0.14694
265.1000,0.0439547,209.828,0.170302
265.0000,1.82291,210.664,0.182176
264.9000,-1.08244,209.297,0.162736
264.8000,0.519032,210.279,0.17671
264.7000,1.37082,210.397,0.178383
264.6000,0.706599,209.521,0.165932
264.5000,0.937721,210.062,0.17362
264.4000,-0.271892,208.671,0.153811
264.3000,0.830089,209.877,0.170995
264.2000,0.0665323,209.74,0.169045
264.1000,0.473731,209.131,0.160377
264.0000,-0.0247159,210.355,0.177788
263.9000,-0.205618,210.822,0.184408
263.8000,0.771582,209.534,0.166109
263.7000,2.12092,209.743,0.169093
263.6000,-0.846834,210.433,0.178897
263.5000,-0.284631,210.641,0.181838
263.4000,-0.498341,210.622,0.181581
263.3000,1.05264,209.791,0.16977
263.2000,-0.528374,209.942,0.171913
263.1000,-1.34812,209.511,0.165787
263.0000,-0.799431,210.007,0.172847
262.9000,0.518198,211.526,0.194363
262.8000,-0.201057,209.433,0.164673
262.7000,-0.181941,208.439,0.150491
262.6000,1.35857,210.419,0.178688
262.5000,-1.86603,210.762,0.183557
262.4000,0.615227,210.295,0.176935
262.3000,-0.326578,210.089,0.174006
262.2000,0.445171,209.848,0.170576
262.1000,0.234186,209.755,0.169254
262.0000,1.31777,211.215,0.189974
261.9000,0.266297,210.907,0.185611
261.8000,0.973535,211.353,0.191928
261.7000,0.667224,210.779,0.183797
261.6000,0.0441365,212.014,0.201256
261.5000,0.155827,211.442,0.193178
261.4000,0.169823,210.727,0.183059
261.3000,0.630156,209.708,0.168593
261.2000,0.822254,210.357,0.17782
261.1000,-1.3371,211.115,0.188563
261.0000,1.12624,211.279,0.190871
260.9000,-0.29777,210.647,0.181935
260.8000,1.43062,211.11,0.188482
260.7000,0.741239,210.305,0.17708
260.6000,0.842784,211.047,0.1876
260.5000,1.06316,210.449,0.179122
260.4000,2.66256,211.188,0.189589
260.3000,-0.444829,210.54,0.180408
260.2000,1.07706,210.193,0.175487
260.1000,-1.0719,210.762,0.183557
260.0000,-1.04848,211.169,0.189316
259.9000,0.303383,211.599,0.195403
259.8000,-1.80675,210.971,0.186526
259.7000,2.98013,211.087,0.188162
259.6000,-2.0051,210.284,0.176775
259.5000,0.127038,210.956,0.186301
259.4000,0.558095,211.083,0.188098
259.3000,1.53546,210.117,0.174409
259.2000,-0.102685,211.353,0.191928
259.1000,-0.207588,211.1,0.188338
259.0000,1.59693,212.207,0.203971
258.9000,-0.243785,211.784,0.198011
258.8000,0.535915,211.398,0.192553
258.7000,1.2395,209.88,0.171043
258.6000,1.14201,211.294,0.191095
258.5000,2.07627,211.409,0.192713
258.4000,-1.82124,212.451,0.207418
258.3000,1.12265,212.583,0.209268
258.2000,-1.3202,212.467,0.207642
258.1000,0.676343,212.514,0.208295
258.0000,0.559608,211.379,0.192297
257.9000,1.23224,211.395,0.192521
257.8000,-1.8049,211.977,0.200728
257.7000,-0.404382,211.371,0.192185
257.6000,0.0189096,211.944,0.200265
257.5000,1.66191,211.836,0.198746
257.4000,-1.35105,211.47,0.193578
257.3000,1.23922,210.6,0.18126
257.2000,-0.618601,211.997,0.201016
257.1000,-0.814556,211.946,0.200297
257.0000,0.627997,212.075,0.202119
256.9000,0.00310021,211.839,0.198794
256.8000,0.868108,211.401,0.192601
256.7000,-1.26453,212.483,0.207865
256.6000,-0.528187,211.336,0.191688
256.5000,0.309888,211.739,0.197371
256.4000,-0.776162,212.129,0.202885
256.3000,-0.39266,212.425,0.207051
256.2000,-1.74301,212.052,0.201799
256.1000,0.570276,210.947,0.186173
256.0000,0.244855,212.213,0.204067
255.9000,1.08668,211.946,0.200297
255.8000,-1.32322,210.925,0.185868
255.7000,0.515284,212.541,0.208678
255.6000,-0.557505,211.981,0.200792
255.5000,0.844105,212.06,0.201911
255.4000,0.398873,212.645,0.210145
255.3000,-1.01147,213.121,0.216833
255.2000,-0.978834,213.196,0.217883
255.1000,-0.291627,212.396,0.206636
255.0000,0.993072,212.549,0.20879
254.9000,-1.08407,212.679,0.210623
254.8000,0.805754,212.009,0.201192
254.7000,0.573643,211.878,0.199338
254.6000,0.819219,212.122,0.202773
254.5000,-1.10557,213.317,0.219585
254.4000,-0.54154,212.932,0.214175
254.3000,-0.0758767,213.24,0.218503
254.2000,-0.825455,212.641,0.210081
254.1000,0.113626,212.41,0.206844
254.0000,0.618191,212.886,0.213538
253.9000,0.614837,212.39,0.206557
253.8000,0.315385,213.746,0.225605
253.7000,-0.209563,211.735,0.197323
253.6000,-0.280068,213.136,0.21704
253.5000,-0.697543,212.208,0.203987
253.4000,0.404125,212.926,0.214096
253.3000,-0.341606,212.992,0.215019
253.2000,0.365353,212.868,0.213284
253.1000,0.731458,213.318,0.2196
253.0000,-0.356381,213.328,0.219744
252.9000,0.205229,212.687,0.210735
252.8000,1.13351,213.287,0.219171
252.7000,0.243389,213.001,0.215146
252.6000,1.85798,213.301,0.219362
252.5000,1.13805,214.101,0.230569
252.4000,-0.0417742,212.826,0.212694
252.3000,-0.429845,213.53,0.222572
252.2000,-1.69658,212.944,0.21435
252.1000,0.92488,213.559,0.222985
252.0000,-0.731424,213.547,0.222811
251.9000,-0.342497,212.748,0.211595
251.8000,0.072518,214.508,0.236255
251.7000,0.390388,213.851,0.227065
251.6000,-0.0823147,214.169,0.23152
251.5000,0.80869,213.511,0.222302
251.4000,-2.41934,214.023,0.229476
251.3000,-0.613218,213.46,0.221587
251.2000,0.244489,213.149,0.217231
251.1000,2.58235,214.281,0.233089
251.0000,-0.187194,214.189,0.231806
250.9000,-0.326528,213.153,0.217279
250.8000,0.362546,213.494,0.222064
250.7000,-0.413624,213.009,0.215258
250.6000,0.201675,214.085,0.230348
250.5000,-0.128551,213.496,0.222096
250.4000,1.01807,213.147,0.217199
250.3000,0.462031,213.939,0.228302
250.2000,0.321763,213.068,0.216085
250.1000,1.06665,213.103,0.216579
250.0000,0.941751,213.828,0.226747
249.9000,0.44284,213.242,0.218535
249.8000,0.945891,213.573,0.223176
249.7000,0.825565,214.702,0.23896
249.6000,0.459503,215.18,0.245628
249.5000,-0.184948,216.202,0.259837
249.4000,-2.82681,214.431,0.235179
249.3000,-2.27862,213.992,0.229047
249.2000,0.850111,213.916,0.227985
249.1000,0.7538,213.877,0.22743
249.0000,-0.234199,214.087,0.230379
248.9000,-0.571866,214.338,0.233881
248.8000,0.751143,214.597,0.237505
248.7000,0.204051,215.077,0.244191
248.6000,-0.427138,214.417,0.234989
248.5000,0.625874,214.682,0.238691
248.4000,-1.75388,214.354,0.234102
248.3000,-0.578956,215.045,0.243749
248.2000,-1.68278,214.725,0.239292
248.1000,-1.05676,214.911,0.241884
248.0000,-2.117,214.935,0.242217
247.9000,-1.31939,214.793,0.240241
247.8000,-0.175501,214.961,0.24258
247.7000,-1.82347,213.877,0.22743
247.6000,0.249294,213.855,0.227128
247.5000,-0.368038,215.831,0.254692
247.4000,-1.21483,215.443,0.249288
247.3000,-0.966893,214.861,0.241189
247.2000,-0.631357,214.874,0.241363
247.1000,-2.29064,213.7,0.224954
247.0000,-1.21592,214.374,0.234387
246.9000,-0.627077,216.196,0.259759
246.8000,-1.3007,214.892,0.241616
246.7000,-2.4764,215.384,0.248468
246.6000,0.437148,216.049,0.257714
246.5000,0.575502,215.377,0.248373
246.4000,-0.261346,214.998,0.243101
246.3000,-2.07456,216.279,0.260906
246.2000,-2.49957,216.732,0.267188
246.1000,0.200667,216.406,0.262666
246.0000,-1.52765,215.448,0.249366
245.9000,-0.414994,215.452,0.249414
245.8000,-0.677313,215.355,0.248073
245.7000,-0.501857,216.305,0.261268
245.6000,-0.342155,215.738,0.253401
245.5000,-1.86719,216.424,0.262918
245.4000,-0.304314,216.618,0.265603
245.3000,-1.16157,216.238,0.260341
245.2000,-3.07813,216.099,0.258406
245.1000,-0.728466,216.284,0.260985
245.0000,-0.798903,216.346,0.261834
244.9000,-1.11149,216.355,0.261959
244.8000,-1.31655,215.635,0.251967
244.7000,-0.987238,217.474,0.277452
244.6000,0.667314,215.475,0.249745
244.5000,-2.77012,215.378,0.248389
244.4000,-1.86082,216.415,0.262792
244.3000,-2.55566,215.828,0.254645
244.2000,-2.86726,216.457,0.263373
244.1000,-0.897238,217.531,0.278234
244.0000,-3.54616,216.766,0.267659
243.9000,-2.47934,216.483,0.263735
243.8000,-1.61025,216.731,0.267173
243.7000,-3.44655,217.096,0.272222
243.6000,-2.87284,216.113,0.258611
243.5000,-3.23991,217.246,0.274305
243.4000,-2.66792,216.434,0.263059
243.3000,-2.58025,217.461,0.277264
243.2000,0.45968,217.261,0.274509
243.1000,-2.76301,217.37,0.276012
243.0000,-2.74569,216.863,0.269008
242.9000,-2.0366,217.327,0.275417
242.8000,-3.48914,217.328,0.275433
242.7000,-4.2428,216.925,0.269855
242.6000,-3.49746,216.888,0.269353
242.5000,-3.00569,218.001,0.284721
242.4000,-3.68109,218.003,0.284752
242.3000,-3.66241,218.01,0.284845
242.2000,-2.69196,217.592,0.279079
242.1000,-5.52455,218.469,0.291164
242.0000,-4.87127,217.578,0.278891
241.9000,-4.22027,217.739,0.281112
241.8000,-5.04477,217.294,0.274963
241.7000,-6.23025,218.011,0.284861
241.6000,-3.82322,218.23,0.287874
241.5000,-5.01284,218.622,0.293268
241.4000,-7.1325,219.434,0.304422
241.3000,-6.27209,218.257,0.288248
241.2000,-4.13242,219.074,0.299479
241.1000,-6.40542,218.827,0.296087
241.0000,-6.06294,218.446,0.290852
240.9000,-4.29507,219.005,0.29853
240.8000,-5.46953,219.729,0.308458
240.7000,-6.66719,219.228,0.301594
240.6000,-6.68782,219.241,0.301765
240.5000,-5.66837,218.965,0.297986
240.4000,-6.70024,219.816,0.309652
240.3000,-7.70796,218.885,0.296881
240.2000,-5.67887,219.752,0.308768
240.1000,-6.4536,220.089,0.313388
240.0000,-5.24543,220.62,0.320632
239.9000,-7.01895,219.791,0.309311
239.8000,-6.3673,219.753,0.308783
239.7000,-7.07642,220.684,0.321513
239.6000,-6.22319,220.652,0.32108
239.5000,-9.48876,220.354,0.317012
239.4000,-8.67812,221.085,0.326982
239.3000,-7.94867,221.312,0.330068
239.2000,-8.63854,221.563,0.33349
239.1000,-8.2807,221.881,0.337802
239.0000,-9.07701,221.953,0.338787
238.9000,-10.2205,222.167,0.341694
238.8000,-8.41946,221.825,0.337048
238.7000,-9.52676,221.768,0.336278
238.6000,-12.0005,222.197,0.342093
238.5000,-10.7075,221.494,0.33255
238.4000,-9.96963,223.033,0.353421
238.3000,-10.0787,223.474,0.359378
238.2000,-11.2811,223.035,0.353452
238.1000,-12.8116,223.362,0.357863
238.0000,-12.1267,222.661,0.348391
237.9000,-11.8563,223.844,0.364377
237.8000,-11.7551,222.67,0.348514
237.7000,-12.4904,223.508,0.359837
237.6000,-9.99444,223.842,0.364347
237.5000,-11.9907,223.443,0.358964
237.4000,-13.2336,223.37,0.35797
237.3000,-15.5291,223.49,0.359592
237.2000,-11.0224,224.399,0.371857
237.1000,-13.0635,224.388,0.371704
237.0000,-10.8481,224.347,0.371155
236.9000,-14.0123,224.179,0.368882
236.8000,-13.6762,224.326,0.370865
236.7000,-15.8621,224.859,0.378042
236.6000,-15.8758,225.374,0.384946
236.5000,-13.4734,225.191,0.3825
236.4000,-16.3805,225.691,0.389198
236.3000,-16.5615,225.374,0.384946
236.2000,-17.2921,225.746,0.389927
236.1000,-16.0219,226.7,0.40268
236.0000,-18.3522,226.16,0.395476
235.9000,-16.7742,226.811,0.404162
235.8000,-15.9888,226.609,0.40147
235.7000,-16.0115,226.587,0.401183
235.6000,-15.5687,226.24,0.396536
235.5000,-18.906,226.883,0.405129
235.4000,-18.0774,227.399,0.411998
235.3000,-18.9586,227.305,0.410746
235.2000,-18.509,227.906,0.418748
235.1000,-20.0872,227.696,0.415947
235.0000,-21.3319,227.384,0.411801
234.9000,-18.8182,227.875,0.418327
234.8000,-18.6759,228.178,0.422359
234.7000,-20.9649,229.111,0.434716
234.6000,-21.5399,228.73,0.429676
234.5000,-19.5804,228.466,0.426177
234.4000,-20.8178,229.188,0.435735
234.3000,-21.3492,229.974,0.44612
234.2000,-22.9393,228.946,0.432542
234.1000,-20.8839,228.969,0.432842
234.0000,-23.176,230.035,0.446926
233.9000,-23.6847,229.685,0.442307
233.8000,-25.3258,230.446,0.45233
233.7000,-21.6481,230.909,0.458426
233.6000,-24.575,229.862,0.44464
233.5000,-25.8831,231.393,0.46478
233.4000,-26.2098,231.248,0.462877
233.3000,-25.7025,230.767,0.456564
233.2000,-23.8362,232.079,0.473778
233.1000,-25.913,231.717,0.46903
233.0000,-25.3742,232.113,0.474223
232.9000,-27.2817,231.76,0.469594
232.8000,-28.3122,233.232,0.48883
232.7000,-27.4186,231.83,0.470514
232.6000,-27.4695,232.469,0.478877
232.5000,-27.6687,233.074,0.486776
232.4000,-28.3368,234.087,0.499964
232.3000,-28.6413,234.014,0.499007
232.2000,-29.9883,234.083,0.499905
232.1000,-29.1628,233.388,0.490868
232.0000,-31.8113,234.44,0.504541
231.9000,-31.8545,234.026,0.499169
231.8000,-31.4584,234.543,0.505879
231.7000,-35.5604,234.726,0.50826
231.6000,-31.896,235.539,0.518779
231.5000,-33.9042,235.458,0.517739
231.4000,-30.6764,235.279,0.515423
231.3000,-33.7168,235.2,0.514396
231.2000,-32.7543,235.391,0.516874
231.1000,-35.0523,236.027,0.525088
231.0000,-36.1015,236.249,0.527954
230.9000,-34.6193,236.434,0.530335
230.8000,-39.0281,236.306,0.528684
230.7000,-34.5448,236.647,0.533079
230.6000,-37.8999,236.223,0.527617
230.5000,-36.4382,236.196,0.527266
230.4000,-36.1223,237.244,0.540762
230.3000,-36.8538,237.139,0.539407
230.2000,-37.1001,237.74,0.547135
230.1000,-38.2957,238.409,0.555703
230.0000,-37.8784,238.029,0.550841
229.9000,-38.5882,237.565,0.544881
229.8000,-37.6586,237.758,0.547368
229.7000,-39.7538,238.141,0.552278
229.6000,-40.0065,238.602,0.558182
229.5000,-40.5584,238.357,0.555035
229.4000,-39.5677,238.893,0.561891
229.3000,-40.5814,239.087,0.564381
229.2000,-39.2206,239.585,0.570728
229.1000,-42.5943,239.486,0.569471
229.0000,-43.2977,240.201,0.578577
228.9000,-39.6491,239.879,0.574482
228.8000,-40.7894,240.886,0.587274
228.7000,-44.1565,241.138,0.590479
228.6000,-44.3524,240.967,0.588309
228.5000,-47.8993,240.555,0.583072
228.4000,-45.8773,241.726,0.597929
228.3000,-44.2427,241.087,0.589833
228.2000,-44.5916,241.957,0.600853
228.1000,-44.6561,242.754,0.610912
228.0000,-45.9948,242.892,0.612655
227.9000,-44.3875,242.756,0.610941
227.8000,-49.3961,243.387,0.618891
227.7000,-50.1785,243.53,0.620687
227.6000,-45.9143,244.604,0.634173
227.5000,-46.3205,244.174,0.628773
227.4000,-48.5852,244.553,0.633534
227.3000,-48.5872,244.712,0.635522
227.2000,-50.7194,244.479,0.632596
227.1000,-49.8738,245.203,0.641663
227.0000,-48.8066,244.743,0.635905
226.9000,-50.3023,245.763,0.648671
226.8000,-48.9077,245.52,0.645629
226.7000,-52.7881,246.596,0.659053
226.6000,-48.232,245.689,0.647737
226.5000,-48.9944,245.437,0.644595
226.4000,-48.9655,246.37,0.656231
226.3000,-47.0964,245.826,0.649449
226.2000,-52.164,247.227,0.666901
226.1000,-50.7231,247.555,0.670966
226.0000,-51.5986,247.46,0.669785
225.9000,-53.4747,247.311,0.667942
225.8000,-52.8294,249.227,0.69166
225.7000,-52.5001,248.144,0.67827
225.6000,-52.2368,248.976,0.688555
225.5000,-51.9849,249.163,0.690863
225.4000,-52.3615,248.919,0.687855
225.3000,-53.1336,247.581,0.671289
225.2000,-54.8972,249.583,0.696048
225.1000,-52.5178,249.569,0.69588
225.0000,-51.9039,249.832,0.699119
224.9000,-55.679,250.012,0.701337
224.8000,-53.6675,250.252,0.704278
224.7000,-51.7068,250.012,0.701337
224.6000,-56.4414,251.47,0.719227
224.5000,-54.4579,249.769,0.698337
224.4000,-55.24,250.886,0.712073
224.3000,-55.1728,251.197,0.715881
224.2000,-56.4929,251.342,0.717658
224.1000,-54.8894,252.439,0.731088
224.0000,-54.416,251.629,0.721183
223.9000,-54.6309,251.994,0.725647
223.8000,-55.2813,251.921,0.724746
223.7000,-58.5747,253.143,0.739668
223.6000,-57.5585,252.886,0.736534
223.5000,-54.2856,252.639,0.733521
223.4000,-57.4204,252.117,0.727143
223.3000,-55.5784,253.222,0.740634
223.2000,-55.1719,254.403,0.754985
223.1000,-54.1514,254.073,0.750983
223.0000,-56.2538,254.589,0.757238
222.9000,-54.8701,254.384,0.754751
222.8000,-58.7387,255.244,0.76517
222.7000,-56.3449,256.193,0.776639
222.6000,-56.2939,254.318,0.753954
222.5000,-58.4707,255.647,0.770047
222.4000,-56.9903,256.423,0.779412
222.3000,-58.1671,256.42,0.779371
222.2000,-57.0028,256.689,0.782606
222.1000,-59.1812,255.719,0.770909
222.0000,-58.1436,257.829,0.79632
221.9000,-59.1895,257.265,0.789544
221.8000,-57.9602,257.384,0.790974
221.7000,-56.8446,257.323,0.790239
221.6000,-53.0756,258.921,0.809388
221.5000,-56.5138,258.138,0.800016
221.4000,-58.0013,258.517,0.804563
221.3000,-59.5295,258.956,0.809808
221.2000,-55.5814,258.401,0.803165
221.1000,-57.3912,259.285,0.813748
221.0000,-58.061,259.614,0.817669
220.9000,-56.6852,260.258,0.825339
220.8000,-57.8961,259.237,0.813166
220.7000,-54.8904,260.386,0.826863
220.6000,-53.2003,260.96,0.833692
220.5000,-58.1203,261.281,0.837499
220.4000,-54.7446,260.666,0.830192
220.3000,-57.9929,261.731,0.842833
220.2000,-56.1013,262.295,0.849513
220.1000,-59.723,262.247,0.84895
220.0000,-57.2052,261.873,0.844524
219.9000,-54.4928,262.454,0.851388
219.8000,-58.4015,263.175,0.859911
219.7000,-57.1546,263.327,0.861702
219.6000,-53.8936,263.042,0.858334
219.5000,-58.8804,263.86,0.867975
219.4000,-56.564,263.382,0.862343
219.3000,-58.3553,264.691,0.87775
219.2000,-57.1129,264.101,0.870814
219.1000,-57.962,264.951,0.880795
219.0000,-54.658,264.614,0.876846
218.9000,-57.2546,264.929,0.880542
218.8000,-56.4559,265.464,0.886811
218.7000,-57.8112,266.313,0.896735
218.6000,-58.3144,266.186,0.895253
218.5000,-56.0444,266.163,0.894988
218.4000,-55.9874,265.667,0.889185
218.3000,-54.9189,265.262,0.884448
218.2000,-57.5725,266.861,0.903135
218.1000,-57.7047,267.598,0.911712
218.0000,-56.7094,266.468,0.898548
217.9000,-57.673,268.217,0.918916
217.8000,-55.8329,267.798,0.914045
217.7000,-54.964,267.701,0.912912
217.6000,-59.2771,269.703,0.936123
217.5000,-58.2917,269.053,0.928599
217.4000,-54.1566,269.62,0.935167
217.3000,-57.648,269.363,0.932192
217.2000,-54.6427,268.687,0.924358
217.1000,-56.8645,270.164,0.941449
217.0000,-56.1232,269.76,0.936778
216.9000,-55.9994,272.564,0.969044
216.8000,-58.6041,271.412,0.955819
216.7000,-59.0027,272.202,0.964901
216.6000,-58.003,271.582,0.957772
216.5000,-56.5866,272.329,0.966356
216.4000,-55.6777,272.224,0.965147
216.3000,-50.2146,271.746,0.95966
216.2000,-55.8104,273.058,0.974699
216.1000,-57.1415,273.473,0.97944
216.0000,-59.2299,273.571,0.980566
215.9000,-53.8552,274.687,0.993292
215.8000,-56.6569,274.386,0.98986
215.7000,-55.7114,273.749,0.982598
215.6000,-59.0329,275.36,1.00095
215.5000,-58.7124,274.111,0.986721
215.4000,-54.759,274.784,0.994388
215.3000,-61.6595,275.928,1.00739
215.2000,-53.2744,275.367,1.00102
215.1000,-51.8854,276.595,1.01495
215.0000,-58.0629,276.675,1.01585
214.9000,-55.9707,277.53,1.02551
214.8000,-53.4776,278.006,1.03088
214.7000,-56.3692,277.164,1.02138
214.6000,-52.3848,277.919,1.0299
214.5000,-56.8438,277.279,1.02267
214.4000,-57.4324,279.379,1.04633
214.3000,-58.4593,278.362,1.03489
214.2000,-57.0336,278.923,1.0412
214.1000,-54.3893,280.148,1.05494
214.0000,-57.0252,279.375,1.04628
213.9000,-56.1582,280.916,1.06353
213.8000,-52.9746,280,1.05329
213.7000,-55.1586,281.301,1.06783
213.6000,-56.7854,280.728,1.06143
213.5000,-59.7269,282.067,1.07637
213.4000,-53.9056,281.815,1.07357
213.3000,-57.5257,282.955,1.08625
213.2000,-54.8908,283.887,1.09658
213.1000,-59.1489,282.91,1.08575
213.0000,-59.1861,283.793,1.09554
212.9000,-55.0023,283.624,1.09367
212.8000,-52.9999,284.458,1.1029
212.7000,-55.3125,283.813,1.09576
212.6000,-58.5823,284.414,1.10241
212.5000,-55.0851,285.108,1.11008
212.4000,-60.0341,285.22,1.11132
212.3000,-54.6922,286.187,1.12197
212.2000,-57.96,286.978,1.13066
212.1000,-60.3758,286.816,1.12888
212.0000,-61.4533,286.923,1.13006
211.9000,-55.8261,287.108,1.13209
211.8000,-55.4073,288.412,1.14637
211.7000,-56.8187,288.507,1.14741
211.6000,-59.9392,289.401,1.15717
211.5000,-61.8719,289.844,1.16199
211.4000,-64.1863,289.654,1.15992
211.3000,-56.8263,290.598,1.17019
211.2000,-63.4684,290.107,1.16486
211.1000,-57.5526,291.172,1.17642
211.0000,-59.4446,292.377,1.18946
210.9000,-59.2008,292.725,1.19322
210.8000,-60.5673,292.229,1.18787
210.7000,-61.0325,293.688,1.2036
210.6000,-62.6388,294.123,1.20829
210.5000,-60.6469,294.617,1.21359
210.4000,-62.722,293.385,1.20034
210.3000,-58.3285,295.648,1.22465
210.2000,-58.4559,295.763,1.22589
210.1000,-62.1176,296.691,1.23581
210.0000,-61.5473,297.265,1.24192
209.9000,-59.5824,298.032,1.25009
209.8000,-63.7604,298.949,1.25983
209.7000,-63.2531,298.235,1.25225
209.6000,-59.1973,299.662,1.26739
209.5000,-60.9132,301.405,1.2858
209.4000,-63.2412,300.599,1.2773
209.3000,-57.5955,302.802,1.30049
209.2000,-60.706,302.573,1.29809
209.1000,-62.2053,303.688,1.30978
209.0000,-60.7192,303.302,1.30573
208.9000,-56.5075,303.939,1.3124
208.8000,-60.2604,304.519,1.31847
208.7000,-65.2067,303.792,1.31087
208.6000,-55.6017,306.99,1.3442
208.5000,-51.2857,307.26,1.347
208.4000,-60.2253,306.606,1.34021
208.3000,-61.6371,307.186,1.34623
208.2000,-58.6532,309.161,1.36666
208.1000,-61.6525,309.608,1.37127
208.0000,-60.4719,310.04,1.37572
207.9000,-61.6932,311.688,1.39264
207.8000,-59.3495,312.676,1.40275
207.7000,-51.1145,313.911,1.41535
207.6000,-57.7416,313.048,1.40655
207.5000,-56.4951,313.009,1.40615
207.4000,-54.8234,314.532,1.42167
207.3000,-52.6098,314.988,1.42631
207.2000,-52.101,315.881,1.43536
207.1000,-58.2624,316.942,1.44609
207.0000,-52.6336,318.302,1.45982
206.9000,-48.1689,317.754,1.45429
206.8000,-51.6046,319.835,1.47522
206.7000,-57.3394,320.58,1.48268
206.6000,-49.2342,321.438,1.49126
206.5000,-50.9812,321.5,1.49188
206.4000,-56.4702,324.712,1.52382
206.3000,-51.036,323.78,1.51457
206.2000,-51.4443,324.813,1.52482
206.1000,-45.4199,325.682,1.53341
206.0000,-46.8646,327.16,1.54798
205.9000,-46.7958,326.805,1.54448
205.8000,-52.8237,328.517,1.56131
205.7000,-52.2036,330.243,1.57819
205.6000,-49.6134,330.907,1.58467
205.5000,-44.6337,331.576,1.59119
205.4000,-48.2699,332.726,1.60237
205.3000,-38.8578,333.27,1.60764
205.2000,-47.5937,334.744,1.6219
205.1000,-40.0371,335.93,1.63332
205.0000,-43.612,336.371,1.63757
204.9000,-33.7309,337.925,1.65248
204.8000,-37.2953,339.665,1.66911
204.7000,-36.5263,340.516,1.67721
204.6000,-28.5595,341.803,1.68944
204.5000,-33.98,342.525,1.69628
204.4000,-41.1334,345.745,1.72666
204.3000,-35.2527,345.981,1.72887
204.2000,-26.0842,347.417,1.74233
204.1000,-28.4361,348.456,1.75204
204.0000,-28.3176,348.209,1.74973
203.9000,-20.9868,349.276,1.75969
203.8000,-22.6507,353.071,1.79488
203.7000,-25.6309,352.699,1.79145
203.6000,-28.126,353.977,1.80324
203.5000,-21.5232,354.789,1.81072
203.4000,-25.7896,358.082,1.84087
203.3000,-22.9453,357.398,1.83462
203.2000,-23.1066,361.038,1.86775
203.1000,-22.7345,362.506,1.88102
203.0000,-18.033,362.936,1.88491
202.9000,-11.9927,362.895,1.88454
202.8000,-23.8707,365.846,1.91107
202.7000,-17.2346,364.843,1.90207
202.6000,-10.5167,367.236,1.92351
202.5000,-12.1027,369.039,1.93958
202.4000,-9.53614,370.845,1.95561
202.3000,-16.4369,372.306,1.96853
202.2000,-15.1862,373.426,1.97841
202.1000,-5.92323,376.965,2.00946
202.0000,-8.13769,377.021,2.00995
201.9000,-0.395433,380.03,2.03615
201.8000,-10.0997,380.597,2.04107
201.7000,-15.493,382.879,2.06081
201.6000,-1.96627,384.356,2.07352
201.5000,-3.56646,386.068,2.08821
201.4000,-4.62538,386.899,2.09533
201.3000,4.45225,389.486,2.11738
201.2000,8.69616,393.01,2.14723
201.1000,5.61019,393.293,2.14962
201.0000,11.4049,393.785,2.15376
200.9000,9.90818,397.779,2.18727
200.8000,4.54185,396.661,2.17791
200.7000,15.4866,399.694,2.20323
200.6000,14.9328,401.655,2.21951
200.5000,16.2362,403.318,2.23326
200.4000,18.0909,406.829,2.26214
200.3000,2.81233,407.689,2.26919
200.2000,21.3158,408.781,2.27811
200.1000,10.4788,412.247,2.30631
200.0000,13.6066,414.029,2.32072
199.9000,17.8539,415.832,2.33526
199.8000,23.1519,417.57,2.34922
199.7000,18.7517,420.656,2.37388
199.6000,29.6172,421.785,2.38287
199.5000,24.9474,422.685,2.39002
199.4000,22.18,424.785,2.40665
199.3000,15.0782,426.563,2.42068
199.2000,28.3359,428.484,2.43578
199.1000,34.4611,430.494,2.45152
199.0000,27.1399,433.103,2.47185
198.9000,28.1699,434.824,2.48521
198.8000,23.816,437.45,2.50552
198.7000,31.6005,440.116,2.52602
198.6000,46.9613,441.612,2.53748
198.5000,38.4349,443.318,2.55051
198.4000,40.0326,446.363,2.57365
198.3000,35.4968,448.288,2.58822
198.2000,26.482,451.004,2.60868
198.1000,37.5687,452.049,2.61652
198.0000,47.2022,454.886,2.63774
197.9000,42.8532,458.411,2.66395
197.8000,35.7144,459.8,2.67424
197.7000,32.3076,462.065,2.69095
197.6000,38.8032,463.315,2.70014
197.5000,31.8644,466.374,2.72255
197.4000,28.8827,468.079,2.73498
197.3000,43.9896,470.55,2.75294
197.2000,51.0636,473.07,2.77117
197.1000,46.2791,474.933,2.78459
197.0000,37.5479,477.547,2.80335
196.9000,26.7127,480.499,2.82443
196.8000,37.8053,481.667,2.83274
196.7000,36.576,485.174,2.85759
196.6000,45.9497,487.357,2.87299
196.5000,52.71,488.976,2.88437
196.4000,43.764,491.607,2.90279
196.3000,40.2647,495.13,2.92732
196.2000,33.0965,496.849,2.93924
196.1000,33.3431,499.347,2.95651
196.0000,37.7096,501.483,2.9712
195.9000,36.3358,504.131,2.98936
195.8000,46.3751,506.068,3.00258
195.7000,36.8756,508.729,3.02068
195.6000,37.9512,509.865,3.02838
195.5000,33.3716,512.502,3.04621
195.4000,36.2817,515.792,3.06833
195.3000,32.9961,516.465,3.07285
195.2000,26.107,518.999,3.08979
195.1000,37.8992,519.781,3.09501
195.0000,37.6494,521.443,3.10607
194.9000,33.4899,524.77,3.12812
194.8000,47.9303,526.592,3.14015
194.7000,42.2243,529.692,3.16053
194.6000,26.9425,529.828,3.16142
194.5000,39.8139,531.754,3.17403
194.4000,33.3513,534.183,3.18988
194.3000,36.7777,536.105,3.20238
194.2000,35.4063,538.408,3.2173
194.1000,30.4145,540.688,3.23202
194.0000,46.5463,541.97,3.24028
193.9000,47.8496,544.499,3.25651
193.8000,38.6917,547.446,3.27535
193.7000,46.8332,549.407,3.28784
193.6000,30.9978,551.489,3.30105
193.5000,34.9552,554.258,3.31857
193.4000,30.8149,554.367,3.31925
193.3000,47.271,555.538,3.32664
193.2000,49.4937,558.134,3.34296
193.1000,38.4623,559.846,3.35369
193.0000,37.9965,561.328,3.36295
192.9000,34.1638,562.577,3.37074
192.8000,31.8863,564.427,3.38225
192.7000,29.4224,567.198,3.39943
192.6000,33.5009,569.424,3.41319
192.5000,19.8865,571.55,3.42628
192.4000,24.4665,572.987,3.4351
192.3000,35.4223,575.744,3.45199
192.2000,32.4345,577.198,3.46086
192.1000,41.7037,578.261,3.46734
192.0000,33.865,579.801,3.4767
191.9000,44.262,582.064,3.49043
191.8000,38.7612,583.588,3.49964
191.7000,29.3487,585.3,3.50997
191.6000,23.4245,587.463,3.52298
191.5000,31.7092,588.749,3.5307
191.4000,27.3657,590.611,3.54185
191.3000,22.2718,593.133,3.5569
191.2000,31.9304,595.098,3.5686
191.1000,41.764,597.825,3.58476
191.0000,22.187,602.074,3.60983
190.9000,28.3177,602.845,3.61437
190.8000,23.0903,605.186,3.6281
190.7000,43.8802,606.833,3.63774
190.6000,20.1327,609.983,3.65611
190.5000,23.732,611.368,3.66415
190.4000,15.7729,613.537,3.67673
190.3000,16.6529,615.831,3.68999
190.2000,23.4683,618.05,3.70277
190.1000,13.9673,619.7,3.71225
190.0000,34.4055,622.113,3.72608

##### Extended Information
[Comments]
Sample name,ds + JL protein and additive
Comment,Protein and additive
User,Drew Seitzman and Julia Linthicum
Division
Company,Saint Mary's College

[Detailed Information]
Creation date,9/29/2022 2:47 PM

Data array type,Linear data array * 3
Horizontal axis,Wavelength [nm]
Vertical axis(1),CD [mdeg]
Vertical axis(2),HT [V]
Vertical axis(3),Abs
Start,320 nm
End,190 nm
Data interval,0.1 nm
Data points,1301    

[Measurement Information]
Instrument name,J-1500
Model name,J-1500
Serial No.,B051061638

Detector,PM-539
Detector S/N,B051061638
  Lock-in amp.,X mode
  HT volt,Auto

Accessory,PTC-517
Accessory S/N,B026561646
  Temperature,22.54 C
  Control sensor,Holder
  Monitor sensor,Holder

Measurement date,9/29/2022 2:46 PM

CD Overload detect,970
Photometric mode,CD, HT, Abs
Measure range,320 - 190 nm
Data pitch,0.1 nm
CD scale,20 mdeg/0.05 dOD
FL scale,20 mdeg/0.05 dOD
D.I.T.,8 msec
Bandwidth,2.00 nm
Start mode,Immediately
Scanning mode,Continuous
Scanning speed,200 nm/min
Baseline correction,None
Shutter control,Auto
No. of cycle,1/1
N2 Flowmeter,Manual

Solvent,NaPO4 buffer

