TITLE,DS+JL Buffer
DATA TYPE,
ORIGIN,JASCO
OWNER,
DATE,22/09/29
TIME,14:58:55
SPECTROMETER/DATA SYSTEM,
LOCALE,1033
RESOLUTION,
DELTAX,-0.1
XUNITS,NANOMETERS
YUNITS,CD [mdeg]
Y2UNITS,HT [V]
Y3UNITS,ABSORBANCE
FIRSTX,  320.0000
LASTX,  190.0000
NPOINTS,    1301
FIRSTY,     0.47601
MAXY,    10.88090
MINY,    -2.49792
XYDATA
320.0000,0.476015,208.33,0.148935
319.9000,1.34724,209.094,0.159844
319.8000,2.04017,208.904,0.157128
319.7000,-0.584698,209.078,0.159618
319.6000,0.206411,208.589,0.152629
319.5000,2.92848,208.751,0.154944
319.4000,1.34719,208.787,0.155462
319.3000,0.167906,209.112,0.160103
319.2000,1.65559,208.256,0.147865
319.1000,2.96498,208.512,0.151528
319.0000,1.62689,209.233,0.161831
318.9000,2.16672,208.871,0.156659
318.8000,0.780561,208.457,0.15075
318.7000,1.6396,207.942,0.14337
318.6000,2.0803,208.487,0.151171
318.5000,1.52608,207.999,0.144198
318.4000,1.91947,208.591,0.152661
318.3000,1.62263,208.194,0.146989
318.2000,1.3421,207.844,0.141974
318.1000,1.55022,208.268,0.148043
318.0000,1.39282,208.677,0.153892
317.9000,1.87853,207.834,0.141827
317.8000,2.90004,208.269,0.148059
317.7000,1.25601,209.123,0.160264
317.6000,1.92306,208.456,0.150734
317.5000,1.90244,209.023,0.158826
317.4000,-0.805226,208.189,0.146908
317.3000,2.8773,208.701,0.154232
317.2000,2.68318,208.266,0.14801
317.1000,3.37954,208.548,0.152046
317.0000,0.943275,208.195,0.147005
316.9000,1.34128,209.249,0.162058
316.8000,1.37216,208.082,0.145383
316.7000,1.97157,208.343,0.149113
316.6000,0.9191,208.303,0.148546
316.5000,1.63311,208.507,0.151463
316.4000,2.51417,208.774,0.155284
316.3000,3.09227,207.981,0.143938
316.2000,2.39181,208.372,0.149534
316.1000,3.37934,207.814,0.141535
316.0000,0.332337,206.848,0.127669
315.9000,2.39326,208.666,0.15373
315.8000,1.17093,208.498,0.151333
315.7000,1.59575,208.132,0.146097
315.6000,0.194603,208.397,0.149891
315.5000,-0.354811,208.149,0.14634
315.4000,2.15833,208.785,0.155429
315.3000,3.73229,207.178,0.132411
315.2000,2.6748,208.617,0.153034
315.1000,2.1663,208.103,0.145675
315.0000,1.14419,208.222,0.147378
314.9000,1.84548,208.172,0.146665
314.8000,0.976362,208.594,0.15271
314.7000,2.58465,208.296,0.148448
314.6000,1.88652,208.171,0.146648
314.5000,1.04251,207.697,0.139862
314.4000,1.71043,207.873,0.14238
314.3000,0.465492,208.785,0.155429
314.2000,2.31534,208.319,0.148773
314.1000,1.33769,208.978,0.158195
314.0000,1.08652,208.232,0.147524
313.9000,0.614499,207.894,0.142688
313.8000,1.84185,208.212,0.147248
313.7000,0.885602,208.165,0.146567
313.6000,0.979321,208.65,0.153503
313.5000,-0.0379829,209.325,0.16314
313.4000,2.44637,207.989,0.144052
313.3000,2.14692,208.444,0.150555
313.2000,1.90888,207.643,0.139081
313.1000,1.31064,208.125,0.146
313.0000,1.76593,207.261,0.1336
312.9000,0.169371,208.048,0.144896
312.8000,2.71301,208.547,0.15203
312.7000,2.94536,208.569,0.152354
312.6000,1.57183,208.109,0.145772
312.5000,0.770012,208.228,0.147476
312.4000,1.85907,208.625,0.153147
312.3000,1.47351,207.726,0.140284
312.2000,2.21941,209.319,0.163059
312.1000,2.6522,208.677,0.153892
312.0000,1.72888,207.64,0.139049
311.9000,0.660401,207.982,0.143955
311.8000,1.51134,208.497,0.151317
311.7000,0.844413,207.392,0.135487
311.6000,0.701211,208.328,0.148902
311.5000,2.0818,208.22,0.147362
311.4000,1.92223,207.322,0.134479
311.3000,-0.0289168,208.096,0.145577
311.2000,0.542363,208.392,0.14981
311.1000,1.47236,208.472,0.150961
311.0000,1.17687,208.182,0.146811
310.9000,2.21307,207.952,0.143516
310.8000,2.04236,208.954,0.15784
310.7000,0.870038,208.304,0.148562
310.6000,0.741096,208.027,0.144588
310.5000,-0.41925,207.926,0.143143
310.4000,1.14848,207.799,0.141324
310.3000,2.57109,208.065,0.145139
310.2000,1.44683,207.965,0.143711
310.1000,1.51809,207.913,0.142964
310.0000,2.1272,207.965,0.143711
309.9000,1.24178,208.056,0.14501
309.8000,0.795906,208.359,0.14934
309.7000,0.727027,207.707,0.140008
309.6000,0.573068,207.328,0.13456
309.5000,1.86897,208.521,0.151657
309.4000,2.19771,208.863,0.156546
309.3000,0.631737,207.819,0.141617
309.2000,1.91234,207.666,0.139423
309.1000,0.739184,209.777,0.169577
309.0000,0.478569,208.585,0.15258
308.9000,3.08024,207.918,0.143029
308.8000,2.41547,209.177,0.161024
308.7000,0.53922,207.806,0.141421
308.6000,0.628084,207.207,0.132835
308.5000,1.057,208.575,0.152434
308.4000,2.21322,207.939,0.143338
308.3000,2.81873,208.015,0.144425
308.2000,1.63278,209.014,0.158696
308.1000,0.982128,208.799,0.15564
308.0000,0.657244,209.035,0.159004
307.9000,3.10009,208.295,0.148432
307.8000,1.25882,207.796,0.141275
307.7000,0.580331,207.684,0.139683
307.6000,2.43476,207.33,0.134592
307.5000,3.05269,208.755,0.155009
307.4000,1.19239,207.258,0.133567
307.3000,0.443058,208.131,0.146081
307.2000,2.50588,208.424,0.15028
307.1000,-0.0835793,207.735,0.140414
307.0000,3.47171,207.691,0.13978
306.9000,0.131155,208.108,0.145756
306.8000,2.92404,208.508,0.151479
306.7000,4.01807,208.582,0.152532
306.6000,2.43305,208.243,0.147686
306.5000,2.30906,208.957,0.157888
306.4000,2.14222,207.292,0.134056
306.3000,1.80908,208.175,0.146713
306.2000,3.05352,208.288,0.148335
306.1000,-0.0672397,206.999,0.129837
306.0000,3.27014,207.834,0.141827
305.9000,1.67354,208.742,0.154814
305.8000,0.285943,206.743,0.126152
305.7000,2.71604,208.68,0.15394
305.6000,1.8483,208.696,0.154167
305.5000,0.988592,207.98,0.143922
305.4000,1.94974,207.874,0.142396
305.3000,0.242056,208.262,0.147962
305.2000,0.164935,208.588,0.152613
305.1000,2.95055,207.769,0.140902
305.0000,1.87562,208.386,0.149729
304.9000,1.15635,207.925,0.143127
304.8000,1.11433,207.808,0.141454
304.7000,2.03198,207.507,0.13713
304.6000,1.24519,207.999,0.144198
304.5000,1.1732,206.832,0.127441
304.4000,1.62517,207.857,0.142152
304.3000,3.36463,207.797,0.141292
304.2000,1.54775,208.59,0.152645
304.1000,2.75997,207.971,0.143792
304.0000,2.59414,208.998,0.15847
303.9000,0.540798,207.98,0.143922
303.8000,0.350704,208.232,0.147524
303.7000,0.76173,207.794,0.141259
303.6000,0.367762,207.022,0.130163
303.5000,2.51844,207.28,0.133876
303.4000,1.44436,207.615,0.138692
303.3000,0.784678,207.943,0.143386
303.2000,1.84117,208.503,0.151398
303.1000,2.46336,207.273,0.133779
303.0000,2.70552,207.142,0.13189
302.9000,2.13707,208.498,0.151333
302.8000,0.812414,208.414,0.150134
302.7000,0.193116,208.355,0.149291
302.6000,2.58702,207.752,0.140658
302.5000,2.09404,207.524,0.137374
302.4000,2.81692,207.548,0.137732
302.3000,1.79755,207.666,0.139423
302.2000,2.84173,207.173,0.132346
302.1000,0.789669,207.288,0.13399
302.0000,0.81821,207.426,0.135976
301.9000,0.180332,207.673,0.13952
301.8000,1.54308,208.475,0.151009
301.7000,1.8569,208.343,0.149113
301.6000,1.91185,207.024,0.130196
301.5000,2.03171,207.309,0.1343
301.4000,1.27256,206.836,0.12749
301.3000,1.36705,206.903,0.128452
301.2000,2.70887,207.714,0.140105
301.1000,0.829743,207.573,0.13809
301.0000,1.79975,207.611,0.138626
300.9000,2.07507,208.205,0.147135
300.8000,0.49914,206.79,0.126837
300.7000,1.77773,208.018,0.144458
300.6000,1.67805,207.402,0.135634
300.5000,1.19914,207.156,0.132102
300.4000,2.15657,207.597,0.138431
300.3000,2.83558,208.197,0.147021
300.2000,0.900498,207.784,0.141113
300.1000,0.847226,207.297,0.13412
300.0000,3.90145,207.339,0.134723
299.9000,2.00454,208.037,0.144734
299.8000,0.905383,207.98,0.143922
299.7000,3.63449,207.349,0.134869
299.6000,2.67603,207.485,0.136822
299.5000,0.804268,207.781,0.141064
299.4000,1.19098,207.701,0.139927
299.3000,2.39909,207.508,0.137147
299.2000,2.58289,207.278,0.133844
299.1000,0.711406,208.329,0.148919
299.0000,1.15913,207.305,0.134234
298.9000,2.22391,207.151,0.13202
298.8000,1.74464,207.78,0.141048
298.7000,0.327271,206.908,0.128533
298.6000,1.61574,208.109,0.145772
298.5000,1.98661,207.218,0.132981
298.4000,2.19229,207.542,0.137635
298.3000,1.1466,206.821,0.127278
298.2000,1.67176,207.277,0.133828
298.1000,0.626584,207.033,0.130326
298.0000,0.666016,206.841,0.127571
297.9000,2.60724,208.066,0.145156
297.8000,3.31745,207.771,0.140918
297.7000,-0.0208056,207.167,0.132248
297.6000,1.18923,207.032,0.13031
297.5000,2.19015,206.926,0.128794
297.4000,1.30709,207.445,0.136252
297.3000,1.33046,207.213,0.132916
297.2000,2.36149,207.646,0.13913
297.1000,2.77445,206.786,0.126772
297.0000,1.18989,206.457,0.122039
296.9000,3.91884,207.525,0.137391
296.8000,1.7769,207.786,0.141145
296.7000,1.97256,207.273,0.133779
296.6000,1.14978,207.09,0.131141
296.5000,2.34735,207.212,0.132899
296.4000,-0.16945,207.791,0.14121
296.3000,2.16377,207.542,0.137635
296.2000,1.65507,207.333,0.134641
296.1000,1.57939,207.687,0.139715
296.0000,1.99803,207.283,0.133925
295.9000,-0.0626018,206.432,0.12168
295.8000,0.957707,207.36,0.135032
295.7000,1.60669,207.576,0.138123
295.6000,1.39126,207.028,0.130261
295.5000,0.902892,207.115,0.131499
295.4000,1.96589,207.158,0.132118
295.3000,-0.522937,207.122,0.131613
295.2000,2.54033,207.164,0.132216
295.1000,1.7586,208.019,0.144474
295.0000,-0.527882,206.437,0.121745
294.9000,0.588151,206.781,0.126707
294.8000,1.34638,207.283,0.133925
294.7000,0.800223,207.013,0.130033
294.6000,1.23666,207.29,0.134023
294.5000,1.19669,207.138,0.131841
294.4000,1.79302,207.237,0.133258
294.3000,2.90037,206.778,0.126658
294.2000,3.97418,207.24,0.133306
294.1000,1.64454,206.866,0.12793
294.0000,0.73037,208.005,0.144279
293.9000,0.450077,207.445,0.136252
293.8000,1.79595,207.521,0.137342
293.7000,1.49195,207.487,0.136854
293.6000,2.40984,207.657,0.139293
293.5000,1.94273,207.218,0.132981
293.4000,0.921172,206.968,0.129397
293.3000,2.2388,206.909,0.128549
293.2000,1.37486,206.843,0.127587
293.1000,1.78851,206.131,0.117333
293.0000,1.63893,206.582,0.123835
292.9000,1.61428,206.92,0.128696
292.8000,2.34387,206.887,0.128223
292.7000,2.44662,207.258,0.133567
292.6000,1.4157,207.013,0.130033
292.5000,1.06132,206.404,0.121272
292.4000,0.994516,206.738,0.126087
292.3000,1.0189,207.162,0.132183
292.2000,2.44123,206.396,0.121157
292.1000,2.1377,206.649,0.124798
292.0000,3.22547,206.679,0.125239
291.9000,1.35999,206.411,0.121369
291.8000,3.1725,206.894,0.128321
291.7000,2.01173,206.18,0.118036
291.6000,2.09047,205.773,0.112161
291.5000,2.35031,206.047,0.116122
291.4000,1.78973,206.083,0.116646
291.3000,3.06972,206.725,0.125891
291.2000,3.03289,205.94,0.114568
291.1000,-0.693326,206.233,0.118804
291.0000,2.64362,206.912,0.128582
290.9000,1.07674,207.237,0.133258
290.8000,1.5191,206.835,0.127473
290.7000,1.63983,206.363,0.120684
290.6000,2.54331,206.702,0.125565
290.5000,2.62941,206.993,0.129756
290.4000,-0.09884,206.41,0.121353
290.3000,1.26871,206.606,0.124178
290.2000,1.55703,205.548,0.108901
290.1000,0.883578,206.872,0.128011
290.0000,2.29408,207.155,0.132085
289.9000,-0.482015,206.621,0.12439
289.8000,1.82468,206.574,0.123721
289.7000,0.31105,206.54,0.123231
289.6000,1.14291,206.643,0.124716
289.5000,1.20198,206.777,0.126642
289.4000,1.46924,207.186,0.132525
289.3000,1.97207,207.232,0.133193
289.2000,1.88566,206.189,0.118167
289.1000,1.19827,206.691,0.125402
289.0000,-0.0624946,205.893,0.113897
288.9000,0.149506,206.93,0.128843
288.8000,0.40903,206.897,0.12837
288.7000,1.10623,207.075,0.130929
288.6000,2.03737,206.912,0.128582
288.5000,0.899818,206.636,0.124619
288.4000,1.26006,206.491,0.122529
288.3000,2.22315,206.617,0.124341
288.2000,1.41234,206.556,0.12346
288.1000,2.79519,206.813,0.127164
288.0000,1.9805,207.19,0.13259
287.9000,1.59461,207.655,0.13926
287.8000,1.32381,206.33,0.12021
287.7000,1.41402,206.17,0.117888
287.6000,2.43622,207.255,0.133518
287.5000,1.2634,206.346,0.120438
287.4000,2.60194,206.92,0.128696
287.3000,3.90674,206.265,0.119262
287.2000,-0.337034,206.244,0.118968
287.1000,0.632942,206.323,0.120095
287.0000,3.5378,207.366,0.135113
286.9000,1.53987,206.657,0.124912
286.8000,0.572016,206.543,0.12328
286.7000,2.15368,206.829,0.127392
286.6000,2.30028,206.86,0.127832
286.5000,1.77421,206.776,0.126625
286.4000,1.05352,206.649,0.124798
286.3000,2.18719,205.901,0.114012
286.2000,0.957744,206.247,0.119
286.1000,0.753513,207.593,0.138366
286.0000,1.84737,206.917,0.128663
285.9000,2.58884,206.434,0.121696
285.8000,0.503978,206.698,0.1255
285.7000,1.17556,206.361,0.120651
285.6000,1.86196,207.013,0.130033
285.5000,1.41264,206.766,0.126479
285.4000,0.674472,207.099,0.131271
285.3000,1.96562,206.065,0.116384
285.2000,1.29017,206.875,0.12806
285.1000,1.52736,206.87,0.127979
285.0000,2.33514,206.464,0.122137
284.9000,0.913498,206.49,0.122513
284.8000,2.3979,206.775,0.126609
284.7000,1.54436,206.336,0.120291
284.6000,3.0876,206.219,0.118608
284.5000,0.573728,206.323,0.120095
284.4000,1.75692,206.662,0.124994
284.3000,0.69078,206.541,0.123247
284.2000,1.70618,206.522,0.12297
284.1000,1.41723,206.826,0.127343
284.0000,0.841171,207.002,0.129886
283.9000,2.69,206.605,0.124162
283.8000,1.94585,206.909,0.128549
283.7000,0.578371,206.652,0.124847
283.6000,1.5599,206.458,0.122055
283.5000,2.33557,206.703,0.125581
283.4000,3.21904,206.986,0.129658
283.3000,1.8171,206.16,0.117758
283.2000,1.39547,205.853,0.113324
283.1000,2.72807,206.661,0.124978
283.0000,1.58871,206.977,0.129527
282.9000,1.73832,206.761,0.126413
282.8000,1.09659,206.445,0.121859
282.7000,2.17617,207.417,0.135846
282.6000,0.844202,206.734,0.126022
282.5000,2.50942,205.717,0.111359
282.4000,0.770517,206.868,0.127946
282.3000,1.13014,206.598,0.124064
282.2000,1.16066,206.333,0.120242
282.1000,-1.92157,206.198,0.118297
282.0000,1.35662,207.459,0.136447
281.9000,3.08453,206.759,0.126381
281.8000,1.95378,206.797,0.126935
281.7000,1.02829,206.497,0.122611
281.6000,0.732084,206.939,0.128973
281.5000,0.722608,206.857,0.1278
281.4000,2.63029,206.553,0.123411
281.3000,2.07302,207.152,0.132037
281.2000,-0.872237,206.457,0.122039
281.1000,1.64075,206.806,0.127066
281.0000,1.19882,206.333,0.120242
280.9000,1.80787,206.951,0.129152
280.8000,0.738032,206.347,0.120455
280.7000,1.97701,207.126,0.131662
280.6000,0.671911,208.058,0.145042
280.5000,2.34316,207.056,0.130652
280.4000,2.2058,206.093,0.116777
280.3000,0.525151,206.037,0.115975
280.2000,1.47841,206.889,0.128256
280.1000,2.87687,206.542,0.123264
280.0000,2.32963,206.452,0.121957
279.9000,1.60839,206.638,0.124635
279.8000,2.55931,206.743,0.126152
279.7000,1.16517,206.554,0.123427
279.6000,1.39774,207.12,0.13158
279.5000,1.17594,206.43,0.121647
279.4000,1.75385,206.142,0.117496
279.3000,0.536803,206.405,0.121288
279.2000,0.347424,207.331,0.134609
279.1000,0.796492,206.6,0.124096
279.0000,1.30385,205.864,0.113471
278.9000,0.52084,206.355,0.120569
278.8000,1.60113,206.54,0.123231
278.7000,1.12486,206.361,0.120651
278.6000,1.71661,206.574,0.123721
278.5000,0.83891,206.869,0.127963
278.4000,2.81223,206.745,0.126185
278.3000,2.19941,205.943,0.114617
278.2000,2.16051,206.418,0.121467
278.1000,2.75893,206.448,0.121909
278.0000,0.554438,206.443,0.121827
277.9000,3.23944,206.596,0.124031
277.8000,0.975377,206.632,0.124553
277.7000,0.689869,207.079,0.130994
277.6000,0.449938,206.747,0.126217
277.5000,0.867864,206.922,0.128729
277.4000,2.01571,206.807,0.127082
277.3000,1.46322,206.661,0.124978
277.2000,0.515388,206.845,0.12762
277.1000,3.44869,206.311,0.119932
277.0000,2.53259,206.539,0.123215
276.9000,2.78126,206.3,0.119768
276.8000,0.188047,207.279,0.13386
276.7000,1.80682,207.015,0.130065
276.6000,0.829308,206.795,0.126903
276.5000,2.72948,207.194,0.132639
276.4000,2.1324,206.688,0.125369
276.3000,1.2342,206.996,0.129788
276.2000,2.36761,206.875,0.12806
276.1000,1.61084,206.761,0.126413
276.0000,3.12288,205.844,0.113193
275.9000,2.64103,207.44,0.136171
275.8000,0.266203,206.457,0.122039
275.7000,1.83812,206.786,0.126772
275.6000,2.70368,207.103,0.131336
275.5000,0.922257,206.726,0.125908
275.4000,1.11912,206.567,0.123623
275.3000,0.565011,207.428,0.136008
275.2000,1.28943,206.573,0.123705
275.1000,1.2113,206.802,0.127
275.0000,0.249458,206.838,0.127522
274.9000,0.839708,206.59,0.12395
274.8000,1.235,206.898,0.128386
274.7000,1.19895,207.093,0.131189
274.6000,1.11346,206.575,0.123737
274.5000,3.08897,206.497,0.122611
274.4000,-0.459108,206.605,0.124162
274.3000,0.409641,207.17,0.132297
274.2000,1.91036,206.432,0.12168
274.1000,-0.12332,206.148,0.117578
274.0000,1.00142,205.661,0.11054
273.9000,0.536736,207.441,0.136187
273.8000,0.954659,206.15,0.117611
273.7000,0.491071,206.357,0.120585
273.6000,2.48335,206.428,0.121615
273.5000,1.36075,206.905,0.128484
273.4000,2.30252,207.132,0.131743
273.3000,1.68802,206.767,0.126495
273.2000,-0.0287905,205.792,0.11244
273.1000,2.44793,207.143,0.131906
273.0000,1.54244,207.015,0.130065
272.9000,-0.299602,207.559,0.137879
272.8000,2.86182,207.956,0.143581
272.7000,1.29566,206.869,0.127963
272.6000,2.30643,206.556,0.12346
272.5000,0.983165,207.384,0.135374
272.4000,0.669867,207.118,0.131548
272.3000,0.543964,206.636,0.124619
272.2000,0.817205,207.23,0.13316
272.1000,1.48699,206.979,0.129544
272.0000,2.26361,207.321,0.134462
271.9000,0.02728,207.181,0.13246
271.8000,3.11399,206.793,0.12687
271.7000,2.25154,207.204,0.132786
271.6000,2.29341,207.589,0.138318
271.5000,0.985888,207.043,0.130473
271.4000,0.0874364,206.658,0.124929
271.3000,1.19613,207.117,0.131532
271.2000,1.04359,207.41,0.135748
271.1000,1.40638,206.65,0.124814
271.0000,1.48478,206.683,0.125288
270.9000,0.897054,207.042,0.130456
270.8000,0.506662,206.913,0.128599
270.7000,1.53895,207.219,0.132997
270.6000,0.591862,206.376,0.120863
270.5000,2.15933,207.622,0.138789
270.4000,0.831616,207.474,0.136659
270.3000,-0.102043,207.484,0.136805
270.2000,-0.33768,207.495,0.136968
270.1000,-0.471026,207.606,0.138561
270.0000,2.00157,207.252,0.133469
269.9000,-0.834468,207.568,0.138009
269.8000,0.293268,207.436,0.136122
269.7000,0.809457,207.541,0.137618
269.6000,1.86663,207.193,0.132623
269.5000,-0.0551218,207.428,0.136008
269.4000,2.25929,207.066,0.130799
269.3000,0.632305,207.88,0.142493
269.2000,-0.350944,207.365,0.135097
269.1000,2.42179,207.646,0.13913
269.0000,0.848495,207.767,0.140869
268.9000,0.1982,207.714,0.140105
268.8000,1.71199,207.885,0.142558
268.7000,0.549413,207.266,0.133681
268.6000,0.925163,207.205,0.132802
268.5000,1.20881,207.249,0.133437
268.4000,0.248763,207.824,0.141681
268.3000,3.12929,207.887,0.142591
268.2000,1.13129,207.298,0.134137
268.1000,2.34472,207.686,0.139699
268.0000,0.551976,207.828,0.141746
267.9000,1.14609,207.965,0.143711
267.8000,0.72973,208.004,0.144263
267.7000,3.77201,207.798,0.141308
267.6000,1.1512,207.178,0.132411
267.5000,0.312567,208.199,0.147054
267.4000,0.812625,208.084,0.145415
267.3000,-0.0813694,208.053,0.144961
267.2000,2.68124,207.936,0.143289
267.1000,0.944882,207.558,0.137862
267.0000,0.836691,207.797,0.141292
266.9000,1.06886,207.807,0.141438
266.8000,0.960518,208.615,0.153001
266.7000,-0.163604,207.745,0.140544
266.6000,3.37279,207.89,0.142623
266.5000,0.86064,208.094,0.145545
266.4000,0.23164,208.535,0.151868
266.3000,1.75886,207.781,0.141064
266.2000,0.40505,208.365,0.149437
266.1000,-0.00293997,208.944,0.15771
266.0000,1.46838,208.467,0.150896
265.9000,-0.151776,208.588,0.152613
265.8000,1.75386,208.235,0.147573
265.7000,-0.0166153,209.223,0.161686
265.6000,2.10646,208.138,0.146178
265.5000,1.67496,208.922,0.157387
265.4000,1.0924,208.774,0.155284
265.3000,1.68292,208.457,0.15075
265.2000,2.07381,209.027,0.158891
265.1000,0.140406,208.635,0.153293
265.0000,-0.379052,208.43,0.150361
264.9000,1.39166,208.73,0.154652
264.8000,1.44472,208.791,0.155526
264.7000,0.356976,208.628,0.153195
264.6000,1.7414,209.35,0.163495
264.5000,0.0663763,208.05,0.144928
264.4000,1.30057,208.808,0.155769
264.3000,0.531976,208.92,0.157354
264.2000,0.224367,207.697,0.139862
264.1000,1.36543,207.979,0.143906
264.0000,-0.623937,209.106,0.160022
263.9000,1.37244,208.588,0.152613
263.8000,1.1971,208.713,0.15441
263.7000,1.25262,209.065,0.159424
263.6000,0.00330735,208.581,0.152515
263.5000,1.1646,209.143,0.160539
263.4000,-1.0562,208.943,0.157694
263.3000,1.00397,208.804,0.155704
263.2000,0.439249,208.464,0.150847
263.1000,1.02613,209.123,0.160264
263.0000,1.29338,210.016,0.172976
262.9000,0.972828,208.745,0.154863
262.8000,-0.8008,208.835,0.156141
262.7000,0.687303,208.883,0.156837
262.6000,0.0966366,209.121,0.160232
262.5000,1.63911,208.641,0.153374
262.4000,0.0910352,210.232,0.176034
262.3000,1.21151,209.641,0.167642
262.2000,1.3916,209.357,0.163592
262.1000,1.44732,209.198,0.161331
262.0000,2.2319,209.854,0.170673
261.9000,1.88068,209.684,0.168255
261.8000,0.571019,208.782,0.155397
261.7000,1.34561,209.128,0.160329
261.6000,2.44847,209.193,0.16125
261.5000,1.59194,209.989,0.17259
261.4000,0.329147,209.222,0.16167
261.3000,0.00224183,209.888,0.171156
261.2000,0.213851,209.034,0.158987
261.1000,1.18014,209.628,0.167448
261.0000,1.02174,209.521,0.165932
260.9000,2.02653,210.16,0.175021
260.8000,2.04395,208.804,0.155704
260.7000,-0.299073,209.969,0.1723
260.6000,0.334148,209.537,0.166158
260.5000,-0.666766,209.698,0.168448
260.4000,1.60649,209.273,0.162397
260.3000,1.10718,209.69,0.168335
260.2000,2.0271,209.707,0.168577
260.1000,0.561421,209.411,0.164367
260.0000,-0.232867,210.032,0.173201
259.9000,0.499112,210.049,0.173443
259.8000,2.09135,209.543,0.166239
259.7000,2.8936,209.687,0.168287
259.6000,1.12671,209.666,0.167997
259.5000,-0.315346,209.98,0.172461
259.4000,0.296652,209.63,0.167481
259.3000,0.343716,210.132,0.174618
259.2000,0.909592,210.431,0.178865
259.1000,2.46323,210.545,0.180489
259.0000,0.715392,210.351,0.177723
258.9000,0.301779,210.106,0.174248
258.8000,0.891739,211.633,0.195883
258.7000,3.04532,210.502,0.179878
258.6000,1.5891,210.24,0.176147
258.5000,2.22548,210.916,0.18574
258.4000,0.075601,209.883,0.171075
258.3000,1.05022,209.494,0.165545
258.2000,0.482486,210.13,0.174586
258.1000,0.856098,210.962,0.186397
258.0000,0.583394,210.329,0.177418
257.9000,2.40024,210.51,0.17999
257.8000,0.679698,210.696,0.182625
257.7000,1.17364,210.455,0.179203
257.6000,0.594029,210.816,0.184327
257.5000,-0.134826,210.944,0.186141
257.4000,1.05837,210.958,0.186333
257.3000,1.28205,211.323,0.191496
257.2000,-1.13132,210.425,0.178785
257.1000,0.519952,210.772,0.183701
257.0000,1.55608,210.241,0.176163
256.9000,0.111448,210.23,0.176018
256.8000,0.764323,210.593,0.181163
256.7000,2.24298,211.411,0.192745
256.6000,2.02705,210.89,0.185371
256.5000,1.51029,210.97,0.18651
256.4000,1.79623,211.085,0.18813
256.3000,1.92253,210.981,0.186654
256.2000,0.418817,211.186,0.189557
256.1000,2.31045,211.083,0.188098
256.0000,0.767975,210.667,0.182208
255.9000,1.05747,211.104,0.188402
255.8000,1.13644,211.356,0.191961
255.7000,-0.268366,211.02,0.187216
255.6000,2.90996,211.691,0.196699
255.5000,1.79869,210.572,0.180858
255.4000,0.751004,211.151,0.18906
255.3000,0.305527,212.191,0.203747
255.2000,1.85787,210.532,0.180296
255.1000,1.89251,211.129,0.188755
255.0000,0.0050721,211.751,0.197547
254.9000,1.92834,210.346,0.177659
254.8000,0.239901,211.425,0.192938
254.7000,2.03037,211.77,0.197819
254.6000,-0.345055,211.685,0.196619
254.5000,0.599305,211.752,0.197563
254.4000,0.566624,210.646,0.181919
254.3000,1.65846,211.556,0.194795
254.2000,-0.776318,211.523,0.19433
254.1000,0.252324,211.554,0.194763
254.0000,-0.351342,210.961,0.186381
253.9000,0.681606,211.246,0.190406
253.8000,0.267146,211.598,0.195387
253.7000,1.29468,211.989,0.200904
253.6000,0.567285,211.933,0.200121
253.5000,0.72666,212.288,0.20512
253.4000,-0.634021,211.989,0.200904
253.3000,2.23113,212.522,0.208407
253.2000,1.82532,211.366,0.192105
253.1000,0.994107,211.306,0.191256
253.0000,-1.5077,211.952,0.200377
252.9000,0.992063,211.452,0.193322
252.8000,1.52051,212.112,0.202646
252.7000,1.03299,212.665,0.210432
252.6000,2.03914,212.261,0.204738
252.5000,1.43217,212.694,0.21083
252.4000,0.862781,212.459,0.20753
252.3000,-0.10617,212.518,0.208359
252.2000,0.0027404,212.569,0.209077
252.1000,0.599342,212.713,0.211101
252.0000,2.4954,212.713,0.211101
251.9000,1.21804,212.567,0.209045
251.8000,0.581946,212.031,0.201495
251.7000,2.46117,212.192,0.203763
251.6000,0.469886,212.128,0.202869
251.5000,2.87253,212.111,0.20263
251.4000,0.84555,213.133,0.217008
251.3000,1.82474,212.548,0.208774
251.2000,1.20012,212.619,0.209778
251.1000,0.0349173,213.229,0.218344
251.0000,0.745264,213.146,0.217183
250.9000,1.89232,212.124,0.202805
250.8000,-0.381944,212.963,0.214621
250.7000,3.22612,213.418,0.220999
250.6000,0.455173,213.086,0.21634
250.5000,0.172441,213.162,0.217406
250.4000,0.669594,212.222,0.204195
250.3000,2.16376,213.776,0.226018
250.2000,2.11732,212.967,0.214669
250.1000,0.753161,212.954,0.214494
250.0000,2.23523,213.225,0.218297
249.9000,0.22598,213.446,0.221397
249.8000,-0.0713749,213.46,0.221587
249.7000,-0.221221,213.158,0.217358
249.6000,0.934518,214.119,0.230823
249.5000,2.33599,213.495,0.22208
249.4000,1.34253,212.475,0.207753
249.3000,1.92655,213.54,0.222715
249.2000,-0.435858,213.206,0.218026
249.1000,0.0623789,213.396,0.220697
249.0000,1.32033,214.311,0.2335
248.9000,0.845191,213.03,0.21556
248.8000,2.29628,213.404,0.220808
248.7000,0.0584057,212.951,0.214446
248.6000,0.80896,212.924,0.214064
248.5000,2.11255,213.012,0.215305
248.4000,0.622995,213.512,0.222318
248.3000,1.6367,213.397,0.220713
248.2000,1.18646,213.307,0.219441
248.1000,1.3615,213.902,0.227779
248.0000,-0.67787,213.794,0.226271
247.9000,1.82423,214.063,0.230031
247.8000,1.12384,214.004,0.229206
247.7000,-0.766095,213.135,0.217024
247.6000,2.18999,214.415,0.234957
247.5000,2.38665,214.277,0.233025
247.4000,1.19026,213.694,0.224875
247.3000,-0.485311,215.654,0.252235
247.2000,1.6493,214.389,0.234593
247.1000,-0.654085,214.268,0.232899
247.0000,2.66476,213.972,0.228762
246.9000,-0.195998,213.871,0.227351
246.8000,1.90976,213.889,0.227604
246.7000,1.21397,214.251,0.232661
246.6000,1.03855,214.815,0.240541
246.5000,-0.379261,213.405,0.220825
246.4000,1.16964,214.85,0.241031
246.3000,2.20653,214.593,0.237442
246.2000,0.638711,214.827,0.240715
246.1000,0.515544,214.324,0.233691
246.0000,1.50973,214.652,0.238265
245.9000,2.58883,214.691,0.238818
245.8000,2.51061,214.206,0.232043
245.7000,1.04024,215.242,0.246496
245.6000,-1.44247,214.831,0.240763
245.5000,2.51724,215.039,0.24367
245.4000,1.47139,214.319,0.233611
245.3000,1.34675,214.742,0.23953
245.2000,0.64081,214.907,0.241822
245.1000,0.754601,215.062,0.243986
245.0000,3.07439,213.157,0.217342
244.9000,-0.301566,215.5,0.250092
244.8000,1.23246,214.627,0.237916
244.7000,-0.0528897,215.582,0.251227
244.6000,0.570208,214.983,0.24288
244.5000,0.396149,214.646,0.238185
244.4000,2.69894,215.474,0.249729
244.3000,0.301484,215.187,0.245722
244.2000,1.44506,215.708,0.252976
244.1000,0.784388,215.43,0.249114
244.0000,2.69193,215.709,0.252991
243.9000,3.59431,215.098,0.244491
243.8000,1.61553,216.076,0.258092
243.7000,3.0594,215.566,0.251006
243.6000,1.65256,215.903,0.255684
243.5000,1.69731,214.698,0.238913
243.4000,0.119647,215.805,0.25433
243.3000,0.654949,215.396,0.248641
243.2000,1.20864,215.175,0.245564
243.1000,2.92755,216.022,0.257336
243.0000,2.2408,215.891,0.255527
242.9000,1.7498,215.099,0.244507
242.8000,1.39898,215.812,0.254425
242.7000,1.15184,215.645,0.252109
242.6000,2.44937,215.843,0.25485
242.5000,0.792187,216.206,0.2599
242.4000,1.33276,215.654,0.252235
242.3000,2.33548,216.028,0.257431
242.2000,1.11758,216.539,0.26452
242.1000,2.18209,215.282,0.247048
242.0000,-0.00648498,216.216,0.260042
241.9000,1.67715,216.079,0.258139
241.8000,0.934437,216.528,0.264363
241.7000,1.03708,215.977,0.256723
241.6000,0.694095,216.868,0.269071
241.5000,1.0936,216.586,0.265164
241.4000,0.578015,216.126,0.258784
241.3000,3.03114,216.278,0.260891
241.2000,-0.949527,215.775,0.253905
241.1000,1.89908,217.028,0.271282
241.0000,0.0462634,217.268,0.274603
240.9000,-0.201922,216.815,0.268334
240.8000,1.65226,216.861,0.268977
240.7000,3.63587,217.921,0.283612
240.6000,0.429419,217.636,0.279689
240.5000,0.96253,216.671,0.266341
240.4000,-0.108085,217.188,0.273491
240.3000,-0.60604,216.202,0.259837
240.2000,1.31294,216.823,0.268444
240.1000,0.980715,216.522,0.264284
240.0000,1.70959,216.529,0.264379
239.9000,1.94271,216.833,0.268585
239.8000,2.20326,218.164,0.286969
239.7000,1.99899,217.363,0.275918
239.6000,1.71455,217.44,0.276982
239.5000,0.671961,217.968,0.284268
239.4000,-0.170793,217.441,0.276998
239.3000,0.623909,217.385,0.276215
239.2000,1.22863,217.173,0.273287
239.1000,0.538531,217.961,0.284174
239.0000,1.13669,217.007,0.270999
238.9000,1.06674,217.933,0.283783
238.8000,0.220601,218.206,0.287546
238.7000,0.577635,218.472,0.291211
238.6000,0.103167,217.91,0.283471
238.5000,0.597206,218.528,0.291975
238.4000,0.957639,218.002,0.284736
238.3000,1.40709,218.153,0.286813
238.2000,1.01622,219.05,0.299152
238.1000,1.89101,218.495,0.291523
238.0000,-0.416072,218.833,0.296165
237.9000,0.516724,219.38,0.303676
237.8000,0.286641,219.457,0.304732
237.7000,1.48898,218.646,0.293595
237.6000,2.18843,219.054,0.299199
237.5000,0.791346,218.612,0.293128
237.4000,1.18301,218.736,0.294841
237.3000,1.14734,219.175,0.300863
237.2000,1.53555,218.58,0.292692
237.1000,-1.10756,219.466,0.304856
237.0000,0.473052,219.222,0.301516
236.9000,1.74089,219.436,0.304437
236.8000,1.30885,219.006,0.298546
236.7000,0.307166,219.588,0.306533
236.6000,1.62434,219.425,0.304297
236.5000,3.61116,219.795,0.309357
236.4000,0.173487,220.288,0.316098
236.3000,2.30052,220.506,0.319085
236.2000,1.34845,219.782,0.309187
236.1000,2.2625,220.55,0.319689
236.0000,1.56119,220.065,0.313063
235.9000,0.656024,219.505,0.305384
235.8000,0.0305238,219.722,0.308365
235.7000,1.07952,220.988,0.325654
235.6000,2.35587,220.135,0.314008
235.5000,0.814787,220.81,0.323229
235.4000,2.16317,220.256,0.315665
235.3000,-0.451413,220.972,0.325438
235.2000,0.84803,221.08,0.326905
235.1000,2.04812,221.109,0.327306
235.0000,2.2391,220.787,0.32292
234.9000,1.06744,221.194,0.328463
234.8000,1.53981,220.863,0.323955
234.7000,2.18326,221.381,0.331008
234.6000,1.78832,221.242,0.329112
234.5000,0.805681,221.109,0.327306
234.4000,2.548,221.173,0.32817
234.3000,-1.07453,220.854,0.323831
234.2000,1.8166,222.038,0.339941
234.1000,0.310478,222.274,0.343139
234.0000,-0.36491,221.929,0.338464
233.9000,0.197439,221.807,0.336802
233.8000,-0.213433,222.58,0.347286
233.7000,0.425186,222.385,0.344645
233.6000,-0.334196,221.674,0.335
233.5000,2.19412,222.116,0.341002
233.4000,1.39764,222.062,0.340264
233.3000,-0.214692,221.878,0.337771
233.2000,0.485235,222.127,0.34114
233.1000,0.615468,222.55,0.346887
233.0000,1.98509,222.582,0.347316
232.9000,2.57059,222.572,0.347179
232.8000,2.7131,222.332,0.343922
232.7000,-0.448617,223.405,0.358444
232.6000,-0.968579,223.201,0.355689
232.5000,1.12288,222.992,0.352869
232.4000,-0.844862,222.325,0.34383
232.3000,0.728052,223.243,0.356255
232.2000,2.07011,223.528,0.360112
232.1000,2.26122,223.454,0.359117
232.0000,2.25664,223.944,0.365722
231.9000,-1.61942,223.788,0.363613
231.8000,1.75434,224.072,0.367447
231.7000,0.387851,224.253,0.369889
231.6000,2.62177,223.847,0.364408
231.5000,1.79898,223.431,0.358796
231.4000,1.44232,223.797,0.363736
231.3000,3.23238,223.72,0.362696
231.2000,1.38706,224.45,0.372543
231.1000,2.26463,224.199,0.369157
231.0000,1.162,223.411,0.358536
230.9000,2.66273,223.609,0.361198
230.8000,-0.513666,224.376,0.371536
230.7000,2.21692,223.826,0.364133
230.6000,2.03761,224.438,0.372375
230.5000,-0.0780954,225.264,0.383473
230.4000,1.44811,224.261,0.369996
230.3000,-0.569982,225.134,0.381724
230.2000,0.615274,224.602,0.374585
230.1000,1.79242,224.554,0.37393
230.0000,1.23632,224.2,0.369172
229.9000,0.624681,224.947,0.379214
229.8000,1.18247,224.515,0.373412
229.7000,-0.779391,225.473,0.386268
229.6000,-0.461367,224.365,0.371399
229.5000,0.73146,225.037,0.380431
229.4000,0.607076,225.494,0.386557
229.3000,1.06265,225.298,0.383928
229.2000,3.54472,225.074,0.380918
229.1000,0.638924,225.486,0.38645
229.0000,3.45803,226.004,0.393384
228.9000,0.123469,225.646,0.388591
228.8000,0.783906,225.935,0.39246
228.7000,1.28898,226.463,0.399518
228.6000,2.38812,226.541,0.400563
228.5000,-0.0372582,225.895,0.391929
228.4000,1.88138,226.242,0.396566
228.3000,0.111214,226.293,0.397248
228.2000,2.32136,226.463,0.399518
228.1000,0.408176,226.984,0.406473
228.0000,-1.62144,226.975,0.406353
227.9000,1.11929,226.804,0.404071
227.8000,0.464453,227.691,0.415887
227.7000,2.26888,227.62,0.414937
227.6000,1.09079,227.29,0.410549
227.5000,2.90958,227.09,0.407893
227.4000,-0.3659,227.692,0.415902
227.3000,-0.860811,228.062,0.42081
227.2000,0.937693,227.521,0.413626
227.1000,1.35946,227.759,0.41679
227.0000,1.66449,227.41,0.412148
226.9000,1.51057,228.323,0.424284
226.8000,-0.40177,228.156,0.422058
226.7000,2.35443,228.271,0.423592
226.6000,-0.078535,228.899,0.431912
226.5000,-1.31152,228.525,0.426958
226.4000,1.5718,228.8,0.430607
226.3000,-0.332174,229.439,0.43906
226.2000,3.01144,228.859,0.431387
226.1000,-0.191431,228.795,0.430532
226.0000,1.31697,228.78,0.430336
225.9000,1.9926,229.111,0.434716
225.8000,1.67052,229.438,0.439045
225.7000,0.951458,228.999,0.433232
225.6000,0.724531,229.323,0.437518
225.5000,0.105288,228.162,0.422149
225.4000,0.687702,229.683,0.442278
225.3000,2.14731,229.159,0.43536
225.2000,2.2111,229.535,0.440318
225.1000,0.760248,230.653,0.455059
225.0000,2.31617,230.429,0.452107
224.9000,1.56713,230.072,0.447404
224.8000,-0.108012,230.256,0.449838
224.7000,0.551156,229.232,0.436319
224.6000,3.03863,230.926,0.45865
224.5000,-2.48053,230.154,0.448495
224.4000,2.20015,230.25,0.449749
224.3000,0.0896218,230.825,0.457324
224.2000,2.08159,230.91,0.458441
224.1000,1.5731,230.691,0.455566
224.0000,0.771919,231.299,0.463546
223.9000,-1.31169,230.717,0.455909
223.8000,1.70391,231.417,0.465092
223.7000,0.562153,231.106,0.461017
223.6000,2.37613,231.006,0.459707
223.5000,-0.313061,231.037,0.460109
223.4000,1.13836,232.195,0.475291
223.3000,1.5836,231.08,0.460674
223.2000,1.98469,231.796,0.470069
223.1000,-1.6143,231.327,0.463918
223.0000,2.51309,232.373,0.477617
222.9000,-0.735373,232.515,0.479469
222.8000,0.778254,233.302,0.489746
222.7000,3.35138,232.237,0.475839
222.6000,2.003,232.152,0.474727
222.5000,-2.49792,232.551,0.479943
222.4000,1.20804,232.661,0.481378
222.3000,2.39468,233.087,0.486939
222.2000,0.465005,233.082,0.48688
222.1000,-0.497133,233.871,0.497151
222.0000,1.47947,233.288,0.489568
221.9000,1.93723,233.513,0.492491
221.8000,-0.356906,233.773,0.495883
221.7000,1.93254,233.25,0.489066
221.6000,1.48158,233.67,0.494542
221.5000,1.22749,233.551,0.492993
221.4000,4.1,233.778,0.495942
221.3000,-0.0603587,234.159,0.500892
221.2000,0.279408,234.535,0.505776
221.1000,1.99653,234.387,0.503864
221.0000,2.59972,234.538,0.50582
220.9000,-0.305222,234.417,0.504247
220.8000,2.69903,234.472,0.504967
220.7000,1.97269,234.302,0.502761
220.6000,2.4884,234.122,0.500421
220.5000,-1.54503,234.571,0.506247
220.4000,0.926242,234.501,0.505335
220.3000,2.04693,234.885,0.510316
220.2000,2.76125,234.877,0.510214
220.1000,4.03073,235.038,0.512298
220.0000,0.260715,235.364,0.516522
219.9000,2.1673,235.693,0.520771
219.8000,0.468763,235.068,0.512694
219.7000,-0.525459,235.991,0.52462
219.6000,0.0774259,235.488,0.51812
219.5000,0.100495,235.72,0.521122
219.4000,2.44301,235.942,0.523991
219.3000,1.01926,236.335,0.529064
219.2000,1.84469,236.112,0.526185
219.1000,1.73689,236.012,0.524898
219.0000,1.82904,236.595,0.532408
218.9000,0.985512,236.437,0.530379
218.8000,2.10137,236.965,0.537178
218.7000,0.564519,236.473,0.530846
218.6000,1.95619,236.374,0.529561
218.5000,-0.343417,236.323,0.528903
218.4000,1.85692,237.018,0.537863
218.3000,0.801553,235.874,0.523113
218.2000,-0.84818,237.343,0.542029
218.1000,1.83637,236.358,0.529356
218.0000,2.70721,237.372,0.542407
217.9000,0.195149,237.064,0.538446
217.8000,-0.330467,237.772,0.547542
217.7000,0.0989028,237.465,0.543601
217.6000,-0.355652,238.171,0.552656
217.5000,0.360057,238,0.550463
217.4000,1.71182,237.771,0.547528
217.3000,1.03697,238.29,0.554179
217.2000,2.96895,237.611,0.545477
217.1000,2.01477,238.238,0.553512
217.0000,-0.137915,238.917,0.562209
216.9000,0.73454,237.965,0.550013
216.8000,2.06745,238.691,0.559313
216.7000,-0.263578,238.665,0.558979
216.6000,1.67436,238.187,0.552859
216.5000,1.55341,239.107,0.564626
216.4000,-0.587358,239.016,0.563469
216.3000,3.84638,238.581,0.557907
216.2000,1.81101,239.106,0.564612
216.1000,-0.574179,239.002,0.563295
216.0000,0.722466,239.918,0.574972
215.9000,1.4816,239.45,0.569008
215.8000,0.830721,239.322,0.567375
215.7000,1.87038,239.988,0.575867
215.6000,2.53587,239.507,0.569731
215.5000,1.02649,240.42,0.581358
215.4000,0.999002,240.25,0.579197
215.3000,1.94522,240.903,0.587489
215.2000,-0.361224,239.282,0.566869
215.1000,2.31077,240.853,0.586857
215.0000,4.5419,240.201,0.578577
214.9000,-0.197244,239.911,0.574885
214.8000,0.366925,240.29,0.579702
214.7000,-0.668001,240.148,0.5779
214.6000,1.62904,240.886,0.587274
214.5000,-0.439053,240.871,0.587087
214.4000,-0.235186,240.941,0.587978
214.3000,1.87954,240.355,0.580537
214.2000,0.672913,241.686,0.597413
214.1000,-0.549343,241.301,0.592548
214.0000,0.775028,241.053,0.589402
213.9000,3.02343,241.766,0.598431
213.8000,1.92557,241.622,0.596609
213.7000,0.373182,241.213,0.591427
213.6000,-0.647859,241.424,0.594098
213.5000,1.19914,241.803,0.598904
213.4000,-0.991311,241.945,0.600695
213.3000,3.01413,241.845,0.599434
213.2000,1.07329,241.95,0.600753
213.1000,1.18189,242.353,0.60585
213.0000,1.13543,242.219,0.604162
212.9000,1.68836,242.624,0.609268
212.8000,0.419411,242.492,0.60761
212.7000,2.25483,242.317,0.605392
212.6000,5.18326,243.251,0.61718
212.5000,1.27229,242.677,0.60994
212.4000,1.20079,242.648,0.609569
212.3000,0.273852,243.681,0.622582
212.2000,2.22227,243.442,0.619575
212.1000,-0.0937861,243.181,0.616295
212.0000,0.135057,243.808,0.624177
211.9000,0.94933,243.392,0.618948
211.8000,-0.516371,242.808,0.611598
211.7000,0.256336,243.535,0.620744
211.6000,2.22231,244.392,0.631517
211.5000,0.0930471,244.072,0.627493
211.4000,2.3879,243.426,0.619376
211.3000,3.35063,244.923,0.638161
211.2000,2.42329,244.91,0.638005
211.1000,3.76174,245.19,0.641507
211.0000,2.02591,244.472,0.632511
210.9000,2.91515,244.023,0.626881
210.8000,-0.289645,244.858,0.637352
210.7000,-0.95461,244.556,0.633563
210.6000,-0.818036,244.177,0.628816
210.5000,1.21331,245.196,0.641578
210.4000,1.2819,245.509,0.645487
210.3000,0.0141345,245.89,0.650255
210.2000,0.345024,245.549,0.645997
210.1000,2.69623,245.972,0.651273
210.0000,1.4915,245.545,0.64594
209.9000,1.21485,246.991,0.663958
209.8000,0.256647,246.295,0.655299
209.7000,0.947497,246.551,0.658488
209.6000,2.00258,246.634,0.659518
209.5000,0.799368,246.889,0.66269
209.4000,1.92294,246.507,0.657938
209.3000,2.25613,247.062,0.664845
209.2000,1.90745,247.244,0.667112
209.1000,1.16638,248.004,0.67653
209.0000,1.08777,247.891,0.675139
208.9000,0.0128487,248.007,0.676572
208.8000,0.121077,247.878,0.674971
208.7000,2.41492,247.781,0.673777
208.6000,0.511153,248.716,0.685349
208.5000,1.20214,248.338,0.680669
208.4000,-0.0137323,248.478,0.682407
208.3000,2.86856,248.329,0.680556
208.2000,2.72904,248.82,0.686637
208.1000,3.46967,248.836,0.686834
208.0000,1.9281,249.198,0.691297
207.9000,1.59453,249.227,0.69166
207.8000,2.93334,249.477,0.694735
207.7000,-0.0853951,249.149,0.690695
207.6000,0.902287,249.72,0.697737
207.5000,1.07815,249.566,0.695838
207.4000,1.03532,250.258,0.704362
207.3000,0.862024,249.926,0.700277
207.2000,0.384804,250.539,0.707815
207.1000,4.1997,250.676,0.709499
207.0000,2.52137,250.829,0.711377
206.9000,2.77572,250.763,0.710557
206.8000,1.18103,250.708,0.709889
206.7000,1.26906,251.579,0.720573
206.6000,2.42422,251.85,0.723887
206.5000,1.07375,251.54,0.720087
206.4000,2.04672,251.349,0.717755
206.3000,0.582812,252.253,0.728804
206.2000,2.92003,252.265,0.728956
206.1000,1.01254,252.75,0.734876
206.0000,0.68983,252.936,0.737142
205.9000,2.06384,252.141,0.727447
205.8000,3.21442,253.032,0.738315
205.7000,3.1204,252.719,0.734503
205.6000,2.91631,253.029,0.738274
205.5000,1.60338,253.682,0.746232
205.4000,1.18057,253.741,0.746949
205.3000,4.60283,253.812,0.747803
205.2000,-0.571937,253.667,0.746039
205.1000,-0.388521,254.153,0.751946
205.0000,-0.189757,254.124,0.751602
204.9000,1.52644,254.371,0.7546
204.8000,2.43435,254.83,0.760163
204.7000,-0.135924,254.924,0.761302
204.6000,1.68808,254.244,0.75306
204.5000,1.58314,254.914,0.761179
204.4000,1.11256,255.591,0.769362
204.3000,0.917343,255.693,0.770594
204.2000,1.67181,256.065,0.775095
204.1000,1.27911,255.773,0.771566
204.0000,-0.0863358,256.199,0.776707
203.9000,-0.415372,256.692,0.782647
203.8000,2.08427,256.528,0.780668
203.7000,0.0265673,257.227,0.789082
203.6000,0.758267,257.059,0.787065
203.5000,-0.71403,257.401,0.791178
203.4000,3.15796,257.703,0.794798
203.3000,1.11911,257.742,0.795274
203.2000,-1.47519,258.073,0.799242
203.1000,2.44611,258.236,0.801197
203.0000,1.26904,258.046,0.798916
202.9000,2.88156,259.208,0.812827
202.8000,2.62723,258.756,0.807424
202.7000,2.54387,259.11,0.81165
202.6000,1.50042,259.152,0.812151
202.5000,0.42507,258.884,0.808955
202.4000,3.20637,259.285,0.813748
202.3000,1.77674,259.458,0.815804
202.2000,1.22224,260.917,0.833181
202.1000,2.93884,260.762,0.831336
202.0000,1.17089,260.431,0.827402
201.9000,2.32647,261.179,0.836289
201.8000,2.31503,261.881,0.844618
201.7000,4.38109,261.834,0.844054
201.6000,0.571611,261.801,0.843665
201.5000,3.98323,262.459,0.851455
201.4000,4.96857,261.987,0.845866
201.3000,1.81837,262.682,0.854093
201.2000,0.970527,263.663,0.865654
201.1000,3.17379,262.519,0.852165
201.0000,-1.2302,262.492,0.851844
200.9000,4.14293,263.156,0.859684
200.8000,5.94638,263.368,0.862183
200.7000,2.3278,263.593,0.864839
200.6000,-1.77657,264.903,0.880237
200.5000,1.03112,263.496,0.863691
200.4000,3.52831,265.113,0.882695
200.3000,4.29138,265.362,0.885616
200.2000,4.04791,265.355,0.885536
200.1000,1.35791,265.417,0.886253
200.0000,2.66167,266.111,0.894379
199.9000,0.487917,266.332,0.89696
199.8000,0.621695,265.86,0.891438
199.7000,3.80294,266.443,0.898257
199.6000,2.46817,266.938,0.904033
199.5000,1.82687,266.996,0.904707
199.4000,2.71793,266.953,0.904205
199.3000,2.84777,266.895,0.903531
199.2000,3.42766,267.403,0.909445
199.1000,3.95888,268.144,0.91806
199.0000,4.56936,268.834,0.926065
198.9000,3.69505,268.379,0.920796
198.8000,2.93812,268.609,0.923465
198.7000,4.19026,268.756,0.925159
198.6000,3.13527,269.176,0.930029
198.5000,4.37946,269.489,0.933647
198.4000,6.8651,270.086,0.940546
198.3000,3.04368,269.939,0.938846
198.2000,3.63123,269.815,0.937419
198.1000,1.52153,270.411,0.944299
198.0000,2.84661,270.939,0.950383
197.9000,1.19867,270.825,0.949065
197.8000,4.95454,270.864,0.949522
197.7000,1.76961,271.483,0.956639
197.6000,2.99089,270.805,0.948843
197.5000,2.77551,271.144,0.952743
197.4000,4.26933,271.809,0.960389
197.3000,-0.3233,272.426,0.96746
197.2000,3.32959,272.42,0.967395
197.1000,5.80443,272.597,0.96942
197.0000,4.50818,272.74,0.971055
196.9000,3.30294,273.324,0.977744
196.8000,3.42034,273.584,0.980709
196.7000,4.22972,273.294,0.977394
196.6000,2.17036,274.741,0.993898
196.5000,-0.583261,274.737,0.993859
196.4000,1.91621,274.524,0.991434
196.3000,6.10537,275.225,0.999413
196.2000,6.23969,275.658,1.00433
196.1000,2.14348,276.257,1.01111
196.0000,5.82706,276.442,1.01322
195.9000,7.65638,276.861,1.01795
195.8000,3.06988,276.394,1.01267
195.7000,5.82943,276.449,1.01329
195.6000,0.934514,277.935,1.03008
195.5000,5.07751,278.098,1.03192
195.4000,4.02777,279.146,1.04371
195.3000,0.163564,278.559,1.03711
195.2000,5.66866,278.906,1.04101
195.1000,2.26856,278.517,1.03664
195.0000,2.56823,279.472,1.04737
194.9000,2.58451,279.614,1.04896
194.8000,6.85979,279.728,1.05024
194.7000,6.47792,280.817,1.06243
194.6000,4.30541,281.163,1.06629
194.5000,2.22676,281.853,1.07399
194.4000,3.5715,281.015,1.06465
194.3000,-0.886073,282.82,1.08475
194.2000,1.10289,283.083,1.08767
194.1000,4.70067,283.035,1.08713
194.0000,4.81377,284.391,1.10216
193.9000,3.97742,284.548,1.1039
193.8000,4.16182,285.375,1.11303
193.7000,1.66661,285.971,1.1196
193.6000,-0.63967,286.137,1.12142
193.5000,3.6631,286.997,1.13087
193.4000,3.40414,287.186,1.13295
193.3000,5.91545,287.773,1.13938
193.2000,2.91762,287.703,1.13861
193.1000,-0.0115654,288.809,1.1507
193.0000,6.19767,289.489,1.15812
192.9000,9.65707,289.895,1.16255
192.8000,8.64276,289.983,1.1635
192.7000,10.7126,291.726,1.18243
192.6000,3.23975,292.214,1.1877
192.5000,2.89485,293.384,1.20033
192.4000,9.8217,294.413,1.2114
192.3000,-0.35682,294.147,1.20854
192.2000,-1.75715,296.024,1.22868
192.1000,2.39069,296.819,1.23717
192.0000,3.4599,297.409,1.24346
191.9000,6.67831,297.562,1.24509
191.8000,5.61762,298.534,1.25543
191.7000,5.19438,299.879,1.26968
191.6000,5.99809,300.621,1.27753
191.5000,2.73626,300.956,1.28107
191.4000,1.25799,302.334,1.29558
191.3000,9.24202,303.114,1.30376
191.2000,7.98303,304.796,1.32137
191.1000,5.58457,304.899,1.32244
191.0000,1.20823,306.635,1.34052
190.9000,5.03301,308.193,1.35666
190.8000,1.24488,309.777,1.37301
190.7000,1.276,311.91,1.39491
190.6000,5.72333,312.091,1.39677
190.5000,2.97273,313.173,1.40783
190.4000,8.01727,314.874,1.42514
190.3000,4.22396,316.077,1.43735
190.2000,5.72862,317.45,1.45123
190.1000,4.42915,319.011,1.46694
190.0000,10.8809,320.179,1.47866

##### Extended Information
[Comments]
Sample name,DS+JL Buffer
Comment,Buffer
User,Drew Seitzman and Julia Linthicum
Division
Company,Saint Mary's College

[Detailed Information]
Creation date,9/29/2022 1:58 PM

Data array type,Linear data array * 3
Horizontal axis,Wavelength [nm]
Vertical axis(1),CD [mdeg]
Vertical axis(2),HT [V]
Vertical axis(3),Abs
Start,320 nm
End,190 nm
Data interval,0.1 nm
Data points,1301    

[Measurement Information]
Instrument name,J-1500
Model name,J-1500
Serial No.,B051061638

Detector,PM-539
Detector S/N,B051061638
  Lock-in amp.,X mode
  HT volt,Auto

Accessory,PTC-517
Accessory S/N,B026561646
  Temperature,22.60 C
  Control sensor,Holder
  Monitor sensor,Holder

Measurement date,9/29/2022 1:58 PM

CD Overload detect,1256
Photometric mode,CD, HT, Abs
Measure range,320 - 190 nm
Data pitch,0.1 nm
CD scale,20 mdeg/0.05 dOD
FL scale,20 mdeg/0.05 dOD
D.I.T.,8 msec
Bandwidth,2.00 nm
Start mode,Immediately
Scanning mode,Continuous
Scanning speed,200 nm/min
Baseline correction,None
Shutter control,Auto
No. of cycle,1/1
N2 Flowmeter,Manual

Solvent,NaPO4 buffer

