TITLE,ECTC_BUFFER_928
DATA TYPE,
ORIGIN,JASCO
OWNER,
DATE,22/09/28
TIME,17:10:27
SPECTROMETER/DATA SYSTEM,
LOCALE,1033
RESOLUTION,
DELTAX,-0.1
XUNITS,NANOMETERS
YUNITS,CD [mdeg]
Y2UNITS,HT [V]
Y3UNITS,ABSORBANCE
FIRSTX,  320.0000
LASTX,  190.0000
NPOINTS,    1301
FIRSTY,     2.23149
MAXY,     6.24876
MINY,    -3.99640
XYDATA
320.0000,2.23149,208.704,0.15428
319.9000,1.88401,209.453,0.164964
319.8000,0.181214,208.865,0.156578
319.7000,1.5714,208.963,0.157969
319.6000,1.48636,208.946,0.157726
319.5000,0.989306,208.954,0.15784
319.4000,1.57543,208.993,0.158406
319.3000,1.13689,208.583,0.152548
319.2000,1.15346,209.196,0.161299
319.1000,0.503908,208.355,0.149291
319.0000,0.383801,209.186,0.161153
318.9000,1.82102,208.422,0.150248
318.8000,0.695103,208.937,0.157597
318.7000,0.759245,208.624,0.153131
318.6000,0.588484,208.138,0.146178
318.5000,1.35085,208.351,0.149226
318.4000,0.844648,209.02,0.158794
318.3000,0.56093,209.408,0.164318
318.2000,0.440861,209.365,0.163705
318.1000,3.09385,209.206,0.161444
318.0000,1.57026,208.626,0.153163
317.9000,1.57207,208.779,0.155348
317.8000,1.24479,208.981,0.158228
317.7000,1.07827,208.903,0.157112
317.6000,0.93214,208.516,0.151592
317.5000,2.92972,209.19,0.161218
317.4000,1.41069,209.139,0.160491
317.3000,-0.700312,209.968,0.172284
317.2000,2.76554,208.495,0.151285
317.1000,0.93154,208.202,0.147102
317.0000,1.0933,208.14,0.14621
316.9000,0.530886,208.457,0.15075
316.8000,1.6199,209.278,0.162461
316.7000,2.05552,208.014,0.144409
316.6000,0.77445,207.975,0.143841
316.5000,3.77703,208.987,0.158325
316.4000,2.82974,208.157,0.146454
316.3000,1.85351,208.977,0.158179
316.2000,0.421148,208.543,0.151981
316.1000,1.30858,208.245,0.147719
316.0000,1.21287,208.7,0.154215
315.9000,-1.40279,208.37,0.149502
315.8000,3.44846,208.129,0.146048
315.7000,4.26089,208.497,0.151317
315.6000,0.193387,208.344,0.149129
315.5000,2.79994,209.563,0.166529
315.4000,1.23863,209.162,0.160814
315.3000,1.38809,208.873,0.156691
315.2000,1.31795,208.937,0.157597
315.1000,0.104752,208.344,0.149129
315.0000,0.134026,208.329,0.148919
314.9000,0.664974,208.205,0.147135
314.8000,0.495267,209.395,0.164141
314.7000,0.161122,208.308,0.148611
314.6000,2.18973,208.299,0.148481
314.5000,0.36118,208.904,0.157128
314.4000,1.72522,208.058,0.145042
314.3000,0.60139,208.842,0.156254
314.2000,1.84656,207.943,0.143386
314.1000,1.57197,208.574,0.152418
314.0000,1.00872,207.783,0.141097
313.9000,2.99744,207.628,0.13887
313.8000,0.683912,207.937,0.143305
313.7000,2.08869,208.589,0.152629
313.6000,0.261817,208.339,0.149064
313.5000,2.28947,208.795,0.155575
313.4000,0.649211,208.754,0.154993
313.3000,0.750175,208.313,0.148692
313.2000,1.51947,209.032,0.158955
313.1000,-0.100965,208.292,0.148384
313.0000,2.47261,208.031,0.144653
312.9000,1.38577,207.994,0.144117
312.8000,0.0274845,208.077,0.145302
312.7000,1.13933,208.22,0.147362
312.6000,1.97998,207.495,0.136968
312.5000,0.972829,208.185,0.146859
312.4000,2.552,208.512,0.151528
312.3000,1.40359,209.001,0.158519
312.2000,2.17448,208.361,0.149372
312.1000,-1.75729,207.759,0.140755
312.0000,1.07241,209.191,0.161234
311.9000,0.352823,208.078,0.145318
311.8000,-0.152153,208.897,0.157031
311.7000,0.55181,208.823,0.155979
311.6000,1.41669,208.181,0.146794
311.5000,1.07238,207.536,0.137553
311.4000,1.03646,209.749,0.169174
311.3000,1.7989,208.455,0.150717
311.2000,0.793843,208.248,0.147751
311.1000,0.104836,207.542,0.137635
311.0000,2.68203,207.811,0.141503
310.9000,2.51828,208.333,0.148967
310.8000,2.28042,208.72,0.154507
310.7000,1.00922,208.194,0.146989
310.6000,0.853278,208.756,0.155025
310.5000,1.06292,208.964,0.157985
310.4000,2.04422,208.07,0.145204
310.3000,2.83851,207.73,0.140333
310.2000,1.62169,208.378,0.149615
310.1000,2.82078,208.088,0.145464
310.0000,1.4032,208.388,0.149761
309.9000,1.21139,208.333,0.148967
309.8000,0.848622,208.904,0.157128
309.7000,1.82401,207.724,0.140252
309.6000,1.15346,207.36,0.135032
309.5000,0.320411,207.639,0.139033
309.4000,0.708205,207.841,0.141925
309.3000,0.288746,208.811,0.155802
309.2000,0.340033,208.425,0.150296
309.1000,2.8559,209.117,0.160168
309.0000,0.366138,207.788,0.141162
308.9000,1.18777,209.217,0.161605
308.8000,-0.4742,208.301,0.148513
308.7000,0.0363525,208.583,0.152548
308.6000,1.86768,208.629,0.153212
308.5000,1.85066,208.662,0.153681
308.4000,0.962157,209.538,0.166174
308.3000,0.0850726,206.999,0.129837
308.2000,1.49536,208.375,0.149567
308.1000,0.687901,207.951,0.1435
308.0000,0.491443,207.481,0.136756
307.9000,2.01617,208.437,0.150458
307.8000,0.462981,207.503,0.137082
307.7000,1.35014,209.101,0.159941
307.6000,1.72829,208.854,0.156416
307.5000,0.797689,208.19,0.146924
307.4000,1.26331,207.756,0.140707
307.3000,0.961794,209.905,0.171398
307.2000,1.86577,209.31,0.16293
307.1000,0.43834,209.041,0.159084
307.0000,0.42989,208.825,0.156012
306.9000,1.30716,208.474,0.150993
306.8000,1.4668,208.554,0.152127
306.7000,1.28887,207.357,0.134983
306.6000,1.80925,206.766,0.126479
306.5000,0.85299,207.596,0.138415
306.4000,1.20047,207.988,0.144036
306.3000,2.04656,208.016,0.144442
306.2000,2.37803,209.155,0.160717
306.1000,1.13904,208.299,0.148481
306.0000,1.30732,207.866,0.142282
305.9000,1.59899,208.488,0.151187
305.8000,2.14798,208.098,0.14561
305.7000,2.0692,207.78,0.141048
305.6000,1.44401,208.28,0.148221
305.5000,1.27951,208.632,0.153244
305.4000,0.149786,207.453,0.136366
305.3000,0.38427,208.83,0.156077
305.2000,2.75228,208.104,0.145691
305.1000,1.70781,207.979,0.143906
305.0000,0.37419,209.155,0.160717
304.9000,0.0748364,208.963,0.157969
304.8000,2.75744,207.515,0.137244
304.7000,-0.216653,208.668,0.153762
304.6000,0.848863,209.023,0.158826
304.5000,2.28767,207.986,0.144003
304.4000,1.76409,210.207,0.17568
304.3000,0.988134,208.971,0.158082
304.2000,0.632799,206.928,0.12881
304.1000,0.643792,208.215,0.147281
304.0000,3.24827,207.237,0.133258
303.9000,2.43725,207.343,0.134788
303.8000,0.665976,207.05,0.13057
303.7000,1.39058,206.358,0.120602
303.6000,2.79285,207.175,0.132362
303.5000,-0.261349,208.192,0.146956
303.4000,0.73764,207.843,0.141958
303.3000,1.18255,208.269,0.148059
303.2000,1.33769,207.614,0.138675
303.1000,2.89328,208.103,0.145675
303.0000,0.856242,208.021,0.144506
302.9000,0.927254,207.657,0.139293
302.8000,0.179101,207.846,0.142006
302.7000,1.6045,208.049,0.144912
302.6000,2.07087,208.405,0.150004
302.5000,1.7436,207.861,0.142217
302.4000,4.00931,208.304,0.148562
302.3000,2.22873,207.007,0.129951
302.2000,0.906812,207.2,0.13272
302.1000,1.97704,207.435,0.136106
302.0000,1.10842,207.878,0.142461
301.9000,1.43616,208.223,0.147394
301.8000,3.30324,207.609,0.138594
301.7000,1.44852,207.869,0.142331
301.6000,1.84323,207.337,0.13469
301.5000,1.58283,208.186,0.146875
301.4000,0.0848911,207.688,0.139732
301.3000,1.2023,208.795,0.155575
301.2000,0.70195,207.373,0.135211
301.1000,1.39834,206.537,0.123182
301.0000,2.07224,208.156,0.146437
300.9000,0.164658,206.904,0.128468
300.8000,0.81128,208.232,0.147524
300.7000,2.31274,207.816,0.141568
300.6000,1.24766,208.813,0.155834
300.5000,0.269459,208.277,0.148173
300.4000,1.85241,208.244,0.147703
300.3000,2.46617,207.425,0.135959
300.2000,1.76932,208.512,0.151528
300.1000,1.28806,207.887,0.142591
300.0000,2.32285,207.109,0.131417
299.9000,0.336667,209.106,0.160022
299.8000,1.35587,206.928,0.12881
299.7000,2.4658,207.477,0.136708
299.6000,-0.0895138,206.734,0.126022
299.5000,-1.05623,207.473,0.136642
299.4000,1.19281,207.231,0.133176
299.3000,1.99982,208.111,0.145789
299.2000,3.3166,208.276,0.148156
299.1000,0.970661,207.629,0.138886
299.0000,1.74303,208.459,0.150782
298.9000,1.62548,207.582,0.13822
298.8000,0.725641,208.305,0.148578
298.7000,1.26111,208.381,0.149664
298.6000,1.98903,207.603,0.138512
298.5000,3.04909,207.975,0.143841
298.4000,2.01326,206.019,0.115713
298.3000,1.63494,208.454,0.150701
298.2000,1.78495,207.741,0.140495
298.1000,2.35743,208.375,0.149567
298.0000,0.489798,207.929,0.143192
297.9000,2.85447,207.739,0.140463
297.8000,1.53012,208.813,0.155834
297.7000,1.72899,207.332,0.134625
297.6000,1.54685,207.518,0.137293
297.5000,0.118116,208.002,0.144231
297.4000,1.37459,208.142,0.146243
297.3000,1.32681,207.997,0.144166
297.2000,0.241196,207.138,0.131841
297.1000,0.995319,207.158,0.132118
297.0000,2.27036,207.835,0.141844
296.9000,1.27029,206.337,0.120308
296.8000,1.51289,207.869,0.142331
296.7000,1.68841,207.968,0.143744
296.6000,2.19774,207.088,0.131124
296.5000,2.28678,207.657,0.139293
296.4000,1.49793,207.303,0.134202
296.3000,-0.317779,208.283,0.148254
296.2000,1.09093,208.235,0.147573
296.1000,0.549167,207.271,0.133746
296.0000,0.511231,207.175,0.132362
295.9000,1.12339,207.701,0.139927
295.8000,3.15111,207.716,0.140138
295.7000,0.275521,207.431,0.136041
295.6000,0.580528,209.275,0.162429
295.5000,0.532651,207.143,0.131906
295.4000,1.5085,207.18,0.132444
295.3000,1.80658,207.483,0.136789
295.2000,0.804618,207.801,0.141356
295.1000,2.45283,207.469,0.136594
295.0000,2.10306,207.151,0.13202
294.9000,1.47251,208.721,0.154523
294.8000,1.17775,208.654,0.153568
294.7000,2.01327,206.051,0.116171
294.6000,0.674275,207.33,0.134592
294.5000,0.245047,207.023,0.130179
294.4000,1.30434,207.399,0.135585
294.3000,0.167506,206.805,0.12705
294.2000,0.764055,207.873,0.14238
294.1000,1.77798,206.94,0.128989
294.0000,0.560326,207.973,0.143825
293.9000,1.14641,208.543,0.151981
293.8000,1.15271,207.521,0.137342
293.7000,2.40925,207.41,0.135748
293.6000,1.48833,206.475,0.1223
293.5000,0.189214,207.221,0.13303
293.4000,1.18106,207.379,0.135292
293.3000,0.593011,207.426,0.135976
293.2000,0.405387,207.788,0.141162
293.1000,0.821291,207.79,0.141194
293.0000,1.02104,207.351,0.134902
292.9000,1.80653,206.699,0.125516
292.8000,0.623189,207.519,0.137309
292.7000,1.16343,207.587,0.138285
292.6000,1.80539,207.126,0.131662
292.5000,1.87884,206.337,0.120308
292.4000,-0.363788,206.545,0.123297
292.3000,1.02611,206.804,0.127033
292.2000,-0.785984,207.666,0.139423
292.1000,1.46976,206.56,0.123525
292.0000,1.75898,206.556,0.12346
291.9000,1.59242,207.854,0.14212
291.8000,1.76348,206.776,0.126625
291.7000,0.561078,206.177,0.118003
291.6000,-0.50338,206.599,0.12408
291.5000,1.24932,206.534,0.12315
291.4000,1.3715,207.083,0.131043
291.3000,0.570527,206.401,0.121222
291.2000,-0.129502,207.521,0.137342
291.1000,1.60547,206.12,0.117169
291.0000,-0.0864356,206.387,0.121027
290.9000,2.50073,206.29,0.119621
290.8000,-0.0203041,208.177,0.146746
290.7000,1.27835,206.684,0.125304
290.6000,1.75767,206.142,0.117496
290.5000,0.76767,207.178,0.132411
290.4000,0.457891,207.02,0.130147
290.3000,0.959862,206.184,0.118101
290.2000,2.1407,207.69,0.139764
290.1000,0.403498,205.623,0.109999
290.0000,0.176516,207.232,0.133193
289.9000,1.47342,206.584,0.123868
289.8000,0.124504,207.196,0.132672
289.7000,2.29315,206.215,0.118542
289.6000,2.64015,206.468,0.122186
289.5000,1.08933,207.054,0.130636
289.4000,1.11995,206.923,0.128745
289.3000,0.543171,207.143,0.131906
289.2000,1.94421,206.713,0.125728
289.1000,1.54979,207.279,0.13386
289.0000,1.08859,208.031,0.144653
288.9000,0.293603,206.925,0.128778
288.8000,0.800344,207.496,0.136984
288.7000,1.50421,206.533,0.123133
288.6000,0.375636,206.154,0.11766
288.5000,1.34839,207.301,0.134186
288.4000,0.498131,206.54,0.123231
288.3000,2.70633,206.505,0.122725
288.2000,0.908054,205.41,0.106917
288.1000,0.812896,207.042,0.130456
288.0000,0.114495,206.308,0.119883
287.9000,0.778012,208.495,0.151285
287.8000,0.40684,205.878,0.113684
287.7000,1.46702,206.417,0.121451
287.6000,0.157158,207.628,0.13887
287.5000,1.75219,206.46,0.122072
287.4000,2.47962,206.823,0.12731
287.3000,1.42114,208.185,0.146859
287.2000,-0.956301,206.826,0.127343
287.1000,0.852242,206.165,0.117823
287.0000,-0.489285,208.183,0.146827
286.9000,-0.799972,206.474,0.122284
286.8000,0.598256,207.267,0.133697
286.7000,0.482409,207.3,0.134169
286.6000,1.20668,205.92,0.11429
286.5000,1.47067,206.332,0.120226
286.4000,0.93183,207.41,0.135748
286.3000,1.22674,206.996,0.129788
286.2000,1.18195,207.413,0.13578
286.1000,0.0375343,207.289,0.134007
286.0000,0.679592,207.303,0.134202
285.9000,0.247663,206.719,0.12581
285.8000,0.241138,206.494,0.122562
285.7000,0.183008,206.742,0.126136
285.6000,0.378002,206.994,0.129772
285.5000,0.901942,207.116,0.131515
285.4000,3.17816,205.467,0.107737
285.3000,0.657723,207.149,0.131988
285.2000,1.7614,207.139,0.131857
285.1000,0.485042,207.125,0.131646
285.0000,0.0478407,207.354,0.134934
284.9000,0.311322,207.691,0.13978
284.8000,2.53849,206.029,0.115861
284.7000,1.5606,206.703,0.125581
284.6000,0.346694,205.764,0.112031
284.5000,2.63932,206.959,0.129267
284.4000,1.05963,205.843,0.113177
284.3000,-0.402394,207.731,0.140349
284.2000,0.640763,207.443,0.13622
284.1000,-0.514232,206.762,0.12643
284.0000,0.643472,206.904,0.128468
283.9000,1.13034,206.541,0.123247
283.8000,1.11227,208.032,0.144669
283.7000,1.42877,205.61,0.109803
283.6000,0.734319,206.99,0.129707
283.5000,0.17613,206.021,0.115746
283.4000,1.11168,207.054,0.130636
283.3000,0.221412,207.263,0.133632
283.2000,1.75052,206.665,0.125027
283.1000,0.738654,206.511,0.122807
283.0000,0.602096,207.448,0.136285
282.9000,1.41198,205.737,0.111637
282.8000,0.666491,206.591,0.123966
282.7000,2.18379,206.649,0.124798
282.6000,0.916841,207.824,0.141681
282.5000,0.709157,207.078,0.130978
282.4000,0.387528,207.304,0.134218
282.3000,0.776264,206.556,0.12346
282.2000,0.169873,206.575,0.123737
282.1000,0.844464,206.615,0.124308
282.0000,1.64979,206.892,0.128305
281.9000,-0.704105,206.521,0.122953
281.8000,1.18996,205.719,0.111375
281.7000,-0.25984,207.66,0.139325
281.6000,1.56208,207.335,0.134674
281.5000,0.731295,206.713,0.125728
281.4000,1.24277,207.298,0.134137
281.3000,0.876924,206.692,0.125418
281.2000,0.406967,205.575,0.109294
281.1000,1.33709,206.379,0.120912
281.0000,3.38343,206.66,0.124961
280.9000,-0.381105,207.132,0.131743
280.8000,-0.126423,207.58,0.138187
280.7000,1.38799,208.361,0.149372
280.6000,2.53207,207.161,0.132167
280.5000,0.779217,206.763,0.126446
280.4000,0.815985,207.24,0.133306
280.3000,2.30828,205.534,0.108704
280.2000,1.68206,207.985,0.143987
280.1000,1.27192,206.418,0.121467
280.0000,0.706508,207.525,0.137391
279.9000,0.378394,206.393,0.121108
279.8000,0.767833,206.628,0.124504
279.7000,0.442555,205.971,0.115026
279.6000,2.70388,206.89,0.128272
279.5000,1.19814,206.557,0.123476
279.4000,0.265628,206.771,0.12656
279.3000,2.77554,206.587,0.1239
279.2000,0.869771,206.567,0.123623
279.1000,1.11559,207.418,0.135862
279.0000,-1.56117,207.5,0.137033
278.9000,-0.0113681,206.99,0.129707
278.8000,1.30162,207.392,0.135487
278.7000,-0.149153,206.662,0.124994
278.6000,0.453193,206.279,0.119474
278.5000,0.896943,207.767,0.140869
278.4000,1.50149,205.97,0.11501
278.3000,1.70647,206.179,0.118019
278.2000,1.53909,206.162,0.117774
278.1000,1.86626,206.686,0.125337
278.0000,2.32059,207.239,0.13329
277.9000,1.17764,207.201,0.132737
277.8000,1.05728,207.458,0.136431
277.7000,0.403726,206.106,0.116973
277.6000,0.718799,207.919,0.143045
277.5000,0.738996,206.648,0.124782
277.4000,0.0813874,206.253,0.119098
277.3000,0.464462,207.263,0.133632
277.2000,0.107825,206.99,0.129707
277.1000,2.04242,206.939,0.128973
277.0000,0.515829,207.322,0.134479
276.9000,0.0407282,207.505,0.137114
276.8000,1.15968,205.657,0.110491
276.7000,1.54841,207.085,0.131075
276.6000,3.65069,206.329,0.120193
276.5000,1.78444,207.351,0.134902
276.4000,0.994709,206.6,0.124096
276.3000,1.51019,206.805,0.12705
276.2000,1.0054,206.764,0.126462
276.1000,1.31187,207.373,0.135211
276.0000,1.46027,206.853,0.127734
275.9000,-0.102149,206.521,0.122953
275.8000,0.105657,206.126,0.117267
275.7000,1.10614,206.827,0.127359
275.6000,0.669022,206.617,0.124341
275.5000,0.522137,206.957,0.129234
275.4000,1.89124,207.381,0.135325
275.3000,-0.0867937,205.598,0.109639
275.2000,0.900191,205.387,0.106573
275.1000,0.926111,206.933,0.128892
275.0000,1.30125,206.705,0.125614
274.9000,0.534379,206.829,0.127392
274.8000,2.22097,207.358,0.134999
274.7000,0.537157,208.054,0.144977
274.6000,1.01932,207.576,0.138123
274.5000,2.00944,206.813,0.127164
274.4000,2.33489,208.175,0.146713
274.3000,0.80567,207.884,0.142542
274.2000,0.597189,206.349,0.120471
274.1000,0.323158,207.73,0.140333
274.0000,0.768031,207.415,0.135813
273.9000,1.04832,207.598,0.138448
273.8000,-1.10584,207.92,0.143062
273.7000,-0.0760737,206.997,0.129804
273.6000,0.683523,208.16,0.146502
273.5000,1.07127,208.069,0.145188
273.4000,1.56725,206.69,0.125385
273.3000,0.158372,207.451,0.136334
273.2000,1.37805,207.322,0.134479
273.1000,0.107383,206.728,0.12594
273.0000,0.522131,206.588,0.123917
272.9000,0.432099,205.968,0.114977
272.8000,-0.507422,207.801,0.141356
272.7000,1.26111,207.085,0.131075
272.6000,1.04989,206.677,0.125206
272.5000,2.77311,207.56,0.137895
272.4000,1.73604,206.249,0.119033
272.3000,0.917658,206.938,0.128957
272.2000,0.869879,206.337,0.120308
272.1000,0.859509,206.916,0.128647
272.0000,0.837958,207.782,0.14108
271.9000,0.118008,206.783,0.126723
271.8000,-0.199193,207.571,0.138057
271.7000,0.642892,206.196,0.118265
271.6000,0.845392,207.237,0.133258
271.5000,1.36127,206.804,0.127033
271.4000,-0.198554,207.95,0.143484
271.3000,0.921004,207.869,0.142331
271.2000,0.543424,208.142,0.146243
271.1000,0.537697,208.096,0.145577
271.0000,0.102546,207.79,0.141194
270.9000,-0.723861,206.307,0.119867
270.8000,1.04002,207.807,0.141438
270.7000,-0.277653,207.034,0.130342
270.6000,-0.309276,206.762,0.12643
270.5000,1.57683,206.539,0.123215
270.4000,0.445801,207.25,0.133453
270.3000,0.973168,207.785,0.141129
270.2000,2.71589,206.648,0.124782
270.1000,1.17619,207.503,0.137082
270.0000,0.881511,208.219,0.147346
269.9000,0.144357,207.598,0.138448
269.8000,2.14334,206.819,0.127245
269.7000,2.62041,207.218,0.132981
269.6000,0.0585724,208.105,0.145707
269.5000,0.775477,207.439,0.136154
269.4000,1.33525,208.394,0.149842
269.3000,0.494209,207.955,0.143565
269.2000,0.379641,208.302,0.148529
269.1000,2.05322,209.329,0.163188
269.0000,-0.366721,207.509,0.137163
268.9000,0.816315,207.031,0.130293
268.8000,2.3754,208.036,0.144718
268.7000,0.717517,208.016,0.144442
268.6000,-0.671806,206.667,0.125059
268.5000,0.314556,207.428,0.136008
268.4000,0.514398,207.177,0.132395
268.3000,2.0957,207.579,0.138171
268.2000,0.950494,207.851,0.142071
268.1000,1.00735,208.108,0.145756
268.0000,1.15378,209.696,0.168416
267.9000,0.985141,209.344,0.163414
267.8000,0.581472,208.088,0.145464
267.7000,-1.8195,208.503,0.151398
267.6000,0.975554,207.047,0.130521
267.5000,2.03503,208.723,0.154555
267.4000,1.41855,207.883,0.142526
267.3000,1.05979,209.597,0.167013
267.2000,1.40255,207.893,0.142672
267.1000,0.463719,209.417,0.164447
267.0000,0.436565,207.914,0.14298
266.9000,-0.00121001,208.248,0.147751
266.8000,1.43664,208.313,0.148692
266.7000,0.837509,209.325,0.16314
266.6000,-0.545111,208.61,0.152936
266.5000,0.308831,208.708,0.154329
266.4000,2.512,208.978,0.158195
266.3000,1.49552,209.239,0.161912
266.2000,0.273252,208.504,0.151414
266.1000,-0.740533,208.772,0.155251
266.0000,-2.64725,209.082,0.159666
265.9000,2.56515,209.349,0.163479
265.8000,1.35807,208.785,0.155429
265.7000,-0.0595779,209.206,0.161444
265.6000,0.0281843,208.568,0.152337
265.5000,0.835336,208.564,0.152273
265.4000,1.37643,209.112,0.160103
265.3000,-0.619269,208.44,0.150507
265.2000,-0.386414,208.959,0.15792
265.1000,1.962,209.556,0.166432
265.0000,0.414767,209.595,0.166981
264.9000,1.02333,209.019,0.158777
264.8000,2.0102,209.241,0.161945
264.7000,0.660451,209.322,0.163091
264.6000,0.836393,208.397,0.149891
264.5000,0.152411,209.015,0.158713
264.4000,0.838792,208.541,0.151949
264.3000,1.29888,209.25,0.162074
264.2000,1.68132,208.25,0.147784
264.1000,0.518749,208.137,0.146162
264.0000,0.579085,209.289,0.162623
263.9000,0.338029,208.718,0.154474
263.8000,1.01807,208.644,0.153422
263.7000,0.643327,208.777,0.155316
263.6000,-0.15336,209.742,0.169077
263.5000,1.23045,209.536,0.166142
263.4000,0.9053,209.448,0.164883
263.3000,0.163422,209.493,0.165529
263.2000,0.574973,210.807,0.184199
263.1000,-1.17448,208.044,0.144831
263.0000,1.84139,209.726,0.168851
262.9000,1.0282,209.361,0.163656
262.8000,-0.191018,209.281,0.16251
262.7000,1.52419,209.059,0.159343
262.6000,0.733962,209.455,0.164996
262.5000,1.067,209.079,0.159634
262.4000,1.45648,209.288,0.162607
262.3000,0.939792,209.265,0.162284
262.2000,0.00645068,210.252,0.176324
262.1000,0.218724,210.598,0.181228
262.0000,-0.104487,209.696,0.168416
261.9000,0.511871,208.896,0.157015
261.8000,1.44344,208.985,0.158292
261.7000,0.269683,211.118,0.188595
261.6000,0.178003,210.014,0.172944
261.5000,0.665111,210.179,0.175294
261.4000,1.28697,209.522,0.165948
261.3000,1.37662,209.221,0.161654
261.2000,0.841796,209.877,0.170995
261.1000,0.609224,209.258,0.162187
261.0000,0.0750685,209.238,0.161896
260.9000,1.18029,209.152,0.160668
260.8000,-0.346943,210.831,0.184536
260.7000,0.324499,209.577,0.166723
260.6000,0.499247,210.378,0.178109
260.5000,1.23572,210.115,0.174377
260.4000,0.478418,209.542,0.166223
260.3000,-0.774635,209.607,0.167158
260.2000,2.40622,210.719,0.182946
260.1000,-0.21861,209.097,0.159893
260.0000,0.776791,209.723,0.168803
259.9000,1.43347,211.17,0.189332
259.8000,0.980749,210.633,0.181726
259.7000,-0.0719787,210.157,0.174972
259.6000,1.07218,210.347,0.177675
259.5000,0.524622,210.585,0.181051
259.4000,1.46319,210.456,0.179219
259.3000,0.435976,211.495,0.19393
259.2000,-0.0569448,211.481,0.193738
259.1000,-0.628797,210.481,0.179572
259.0000,2.23425,210.416,0.178656
258.9000,0.827902,209.844,0.170528
258.8000,0.719691,210.456,0.179219
258.7000,1.13569,211.005,0.187007
258.6000,-1.15734,210.803,0.184135
258.5000,-1.90631,211.081,0.188082
258.4000,-0.280796,210.586,0.181067
258.3000,-0.261743,210.663,0.18216
258.2000,1.65521,209.519,0.1659
258.1000,-0.0226317,212.208,0.203987
258.0000,1.98983,210.514,0.180038
257.9000,0.897379,211.001,0.186943
257.8000,1.46305,211.238,0.190294
257.7000,1.50072,211.207,0.189861
257.6000,-0.0618945,211.555,0.194779
257.5000,0.249645,209.696,0.168416
257.4000,1.08751,210.921,0.185804
257.3000,0.16182,210.058,0.173572
257.2000,0.736956,211.008,0.187039
257.1000,1.50441,211.799,0.198219
257.0000,0.271612,211.347,0.191832
256.9000,0.00779698,210.491,0.179717
256.8000,1.66677,211.923,0.199977
256.7000,0.127656,212.584,0.209284
256.6000,1.70355,211.723,0.197147
256.5000,0.487124,210.604,0.181324
256.4000,1.41666,210.975,0.186574
256.3000,0.558114,211.617,0.195659
256.2000,0.509127,212.243,0.204482
256.1000,-0.351031,211.2,0.189765
256.0000,1.22871,211.156,0.18914
255.9000,0.503826,211.759,0.197659
255.8000,0.771792,210.744,0.1833
255.7000,1.29849,210.996,0.186879
255.6000,0.882769,211.973,0.200681
255.5000,1.43353,211.728,0.197227
255.4000,0.206924,211.565,0.194923
255.3000,3.15146,211.91,0.199786
255.2000,2.00929,211.803,0.198283
255.1000,-0.387902,212.33,0.205711
255.0000,-0.329327,211.796,0.198187
254.9000,1.03265,211.784,0.198011
254.8000,-0.263765,212.684,0.210687
254.7000,-0.106243,212.08,0.202183
254.6000,1.35942,211.872,0.199258
254.5000,0.787035,212.055,0.201831
254.4000,1.1921,212.231,0.204322
254.3000,0.303138,213.498,0.222127
254.2000,1.06943,211.965,0.200569
254.1000,1.05031,212.331,0.205727
254.0000,-1.31454,212.684,0.210687
253.9000,0.403456,212.592,0.209396
253.8000,0.188645,211.612,0.195579
253.7000,1.90935,211.674,0.196459
253.6000,0.885286,211.671,0.196411
253.5000,2.75819,212.333,0.205759
253.4000,-0.136441,213.089,0.216388
253.3000,-1.74068,213.707,0.225049
253.2000,1.04217,213.391,0.220618
253.1000,-0.193867,213.263,0.218821
253.0000,-0.693568,213.549,0.222842
252.9000,-0.802745,212.22,0.204163
252.8000,0.696665,212.136,0.202981
252.7000,1.27444,212.807,0.212423
252.6000,0.453767,213.026,0.215497
252.5000,0.31601,212.825,0.212678
252.4000,0.926744,213.285,0.219139
252.3000,-0.109684,212.925,0.21408
252.2000,1.77333,212.944,0.21435
252.1000,0.318798,212.914,0.213921
252.0000,2.16531,212.902,0.213761
251.9000,-0.556719,213.149,0.217231
251.8000,0.0505183,214.328,0.233738
251.7000,1.11485,213.387,0.22057
251.6000,1.30847,212.67,0.210496
251.5000,0.590271,213.053,0.215878
251.4000,0.266131,212.527,0.208487
251.3000,1.34995,213.029,0.215544
251.2000,0.532394,212.61,0.209651
251.1000,1.47571,212.855,0.213092
251.0000,0.0234488,213.073,0.216165
250.9000,-0.330185,213.847,0.227017
250.8000,0.525815,214.025,0.229507
250.7000,0.584314,213.587,0.223367
250.6000,0.180502,212.997,0.215099
250.5000,1.28665,214.76,0.239783
250.4000,0.00572907,212.458,0.207514
250.3000,1.81112,212.68,0.210639
250.2000,0.541195,213.641,0.224129
250.1000,2.51057,213.954,0.228508
250.0000,2.16386,213.084,0.216308
249.9000,1.03793,214.063,0.230031
249.8000,0.418415,214.282,0.233104
249.7000,2.44935,214.77,0.239909
249.6000,0.585463,213.304,0.21941
249.5000,-0.260098,213.358,0.220157
249.4000,0.531583,213.82,0.226637
249.3000,0.555032,214.512,0.236318
249.2000,1.10832,212.33,0.205711
249.1000,2.79077,213.983,0.228921
249.0000,-0.368363,213.941,0.228334
248.9000,0.0252337,214.194,0.231869
248.8000,1.58879,213.454,0.221508
248.7000,0.986742,214.312,0.233516
248.6000,2.59895,212.851,0.213045
248.5000,1.20548,212.721,0.211213
248.4000,1.34496,213.363,0.220236
248.3000,1.01288,215.022,0.243433
248.2000,2.19247,213.77,0.225938
248.1000,1.66793,214.223,0.232281
248.0000,1.33289,213.857,0.22716
247.9000,1.18834,214.398,0.23472
247.8000,-0.207662,214.554,0.236904
247.7000,-0.0314055,214.24,0.232518
247.6000,1.00851,213.691,0.224827
247.5000,-0.74375,214.869,0.2413
247.4000,0.385956,213.769,0.225922
247.3000,0.745615,214.263,0.232835
247.2000,2.18403,215.419,0.248957
247.1000,1.35816,215.922,0.255952
247.0000,0.727806,214.364,0.234245
246.9000,-0.186777,215.209,0.246038
246.8000,1.47735,213.835,0.226843
246.7000,0.948287,213.778,0.226049
246.6000,-0.565646,215.133,0.24498
246.5000,1.2028,214.066,0.230078
246.4000,-0.573733,215.343,0.2479
246.3000,-0.0478926,214.972,0.242738
246.2000,0.149555,214.457,0.235543
246.1000,0.729679,215.231,0.246338
246.0000,1.94151,215.836,0.254755
245.9000,-1.198,215.528,0.25047
245.8000,0.946981,215.129,0.244917
245.7000,0.787176,215.013,0.243306
245.6000,-0.155955,215.369,0.248262
245.5000,0.331546,215.715,0.25307
245.4000,0.195787,214.864,0.241221
245.3000,0.738338,215.115,0.244728
245.2000,0.157559,215.964,0.256534
245.1000,1.85218,215.639,0.252015
245.0000,1.55041,215.776,0.253921
244.9000,1.71169,215.717,0.253102
244.8000,0.60347,216.473,0.263593
244.7000,1.3845,215.678,0.252566
244.6000,0.142652,216.131,0.258862
244.5000,1.04346,215.03,0.243543
244.4000,-0.603474,215.254,0.246669
244.3000,0.549244,215.981,0.25677
244.2000,0.622008,215.85,0.25496
244.1000,0.159876,216.331,0.261629
244.0000,-3.13287,216.256,0.260592
243.9000,1.67851,215.187,0.245722
243.8000,1.23473,215.313,0.247489
243.7000,1.77546,215.438,0.249224
243.6000,-0.904126,215.784,0.254031
243.5000,0.95203,215.443,0.249288
243.4000,2.56638,215.795,0.254188
243.3000,0.81359,217.274,0.274681
243.2000,1.91785,216.568,0.264912
243.1000,-0.0866001,214.872,0.241331
243.0000,0.554365,216.578,0.265054
242.9000,2.95945,216.774,0.267769
242.8000,0.0572499,216.635,0.265839
242.7000,1.0019,216.576,0.265022
242.6000,-0.950885,217.035,0.271376
242.5000,1.23239,216.942,0.27009
242.4000,-0.0392289,216.735,0.267235
242.3000,-1.26288,217.416,0.276654
242.2000,1.12236,215.516,0.250312
242.1000,-0.0749509,215.111,0.244665
242.0000,4.69779,216.376,0.262258
241.9000,1.05869,216.647,0.266011
241.8000,0.869234,217.572,0.278797
241.7000,0.670969,217.627,0.279564
241.6000,0.373185,217.49,0.277671
241.5000,-0.497511,216.473,0.263593
241.4000,1.24426,216.744,0.267361
241.3000,0.25096,216.852,0.268851
241.2000,0.754442,217.37,0.276012
241.1000,-0.614199,217.435,0.276904
241.0000,2.29812,217.98,0.284424
240.9000,2.32195,217.296,0.274994
240.8000,-0.0601431,218.296,0.288779
240.7000,-1.55263,217.284,0.274822
240.6000,1.1308,217.333,0.275495
240.5000,2.3545,219.056,0.29923
240.4000,2.2088,217.345,0.275668
240.3000,-0.411095,217.833,0.282409
240.2000,1.30369,217.465,0.277327
240.1000,1.18798,217.58,0.278907
240.0000,-0.431641,218.284,0.288623
239.9000,1.10922,217.916,0.283549
239.8000,1.12609,218.464,0.291102
239.7000,-0.158881,218.7,0.294343
239.6000,-0.424429,217.938,0.283846
239.5000,0.36587,216.896,0.269463
239.4000,0.298857,219.238,0.301733
239.3000,0.364499,219.442,0.30453
239.2000,0.872591,219.417,0.304189
239.1000,3.049,219.237,0.301718
239.0000,-0.267569,218.64,0.293518
238.9000,0.768071,219.161,0.300677
238.8000,1.5592,218.281,0.288576
238.7000,1.57874,219.166,0.300739
238.6000,-0.0953086,219.436,0.304437
238.5000,1.69495,217.95,0.284018
238.4000,1.67222,217.628,0.279579
238.3000,0.366425,219.285,0.302371
238.2000,1.47027,218.881,0.296834
238.1000,-0.119213,219.038,0.298981
238.0000,1.56593,219.492,0.305214
237.9000,0.660811,217.836,0.28244
237.8000,1.71162,219,0.298468
237.7000,1.68451,219.557,0.306099
237.6000,0.0575791,220.976,0.3255
237.5000,1.18051,219.984,0.311947
237.4000,1.28059,219.739,0.308597
237.3000,-0.139054,220.58,0.320091
237.2000,0.372166,219.707,0.308163
237.1000,-2.71388,220.333,0.316718
237.0000,1.41953,220.045,0.312784
236.9000,0.805633,219.738,0.308582
236.8000,-1.07258,219.361,0.303412
236.7000,1.22486,219.899,0.310784
236.6000,1.9308,221.082,0.326936
236.5000,2.31767,219.926,0.311156
236.4000,1.27347,221.185,0.32834
236.3000,1.14758,220.03,0.312582
236.2000,2.39172,220.174,0.31455
236.1000,0.848816,220.559,0.319812
236.0000,0.770033,221.342,0.330484
235.9000,0.374186,220.848,0.323754
235.8000,0.51898,221.906,0.338141
235.7000,-0.668886,220.893,0.324357
235.6000,2.199,221.5,0.332627
235.5000,0.856484,221.054,0.32655
235.4000,-0.81804,221.536,0.33312
235.3000,2.27881,221.747,0.335986
235.2000,1.52389,220.912,0.324619
235.1000,3.36803,222.708,0.34902
235.0000,-0.829885,221.869,0.337648
234.9000,2.68576,221.509,0.33275
234.8000,1.61859,221.4,0.331271
234.7000,-1.4798,223.132,0.354754
234.6000,2.34298,222.717,0.349143
234.5000,1.75558,222.963,0.352471
234.4000,-0.316968,223.141,0.354877
234.3000,-0.478046,222.443,0.345428
234.2000,-0.203675,222.32,0.343769
234.1000,0.607314,222.232,0.34257
234.0000,1.87548,222.168,0.341709
233.9000,1.74383,222.757,0.34968
233.8000,1.59366,222.528,0.34658
233.7000,1.32982,224.23,0.369569
233.6000,1.32743,223.426,0.358735
233.5000,0.056393,222.147,0.341417
233.4000,2.0389,223.8,0.363781
233.3000,2.23597,223.194,0.355596
233.2000,0.908478,223.146,0.354953
233.1000,0.666467,222.749,0.349572
233.0000,-0.121006,222.622,0.347854
232.9000,1.56466,222.943,0.35221
232.8000,0.185297,222.999,0.352961
232.7000,1.16113,223.377,0.358077
232.6000,1.89815,223.884,0.364912
232.5000,1.03386,223.588,0.360923
232.4000,0.524169,223.382,0.358138
232.3000,-0.739483,225.179,0.382332
232.2000,-1.00298,224.19,0.369035
232.1000,0.297875,224.114,0.368012
232.0000,3.14627,223.581,0.360831
231.9000,-1.05923,223.485,0.359531
231.8000,1.37931,224.92,0.378849
231.7000,-0.395836,225.355,0.384688
231.6000,-0.549715,224.795,0.377174
231.5000,2.28659,224.976,0.37961
231.4000,2.05323,223.357,0.357801
231.3000,0.0588049,225.73,0.389714
231.2000,0.232574,224.278,0.370225
231.1000,2.30245,225.871,0.39161
231.0000,0.948575,224.849,0.377905
230.9000,0.342474,225.241,0.383168
230.8000,2.35283,224.938,0.379092
230.7000,3.9269,225.052,0.380629
230.6000,1.42742,224.935,0.379062
230.5000,-0.686589,225.65,0.388652
230.4000,1.76033,224.449,0.372527
230.3000,-0.310654,225.791,0.390534
230.2000,2.86598,225.77,0.39026
230.1000,0.389945,224.864,0.378103
230.0000,0.143762,224.283,0.370286
229.9000,1.03591,225.492,0.386526
229.8000,0.197725,225.346,0.384567
229.7000,0.270607,225.441,0.385843
229.6000,0.978239,225.275,0.383624
229.5000,2.3014,225.916,0.392202
229.4000,3.30671,225.357,0.384719
229.3000,0.294082,226.634,0.401803
229.2000,1.63859,226.164,0.395521
229.1000,1.03369,225.917,0.392217
229.0000,0.252714,226.329,0.397732
228.9000,3.0782,226.303,0.397384
228.8000,1.48996,227.002,0.406715
228.7000,-0.241632,226.644,0.401939
228.6000,0.757539,227.128,0.408391
228.5000,1.6983,227.532,0.413777
228.4000,1.64727,228.148,0.421953
228.3000,0.492567,227.68,0.415736
228.2000,0.752233,227.096,0.407968
228.1000,0.852724,227.757,0.41676
228.0000,-0.809377,228.417,0.425531
227.9000,1.13674,228.443,0.425877
227.8000,-0.169671,228.022,0.420283
227.7000,0.0451336,227.579,0.414395
227.6000,1.37496,228.491,0.426508
227.5000,2.70191,228.719,0.429526
227.4000,1.69254,227.556,0.414093
227.3000,2.23974,227.495,0.413279
227.2000,0.239806,229.297,0.437173
227.1000,1.30853,229.046,0.433861
227.0000,2.82266,229.08,0.434311
226.9000,1.09519,228.358,0.42475
226.8000,1.4383,228.488,0.426463
226.7000,1.02385,228.567,0.427514
226.6000,0.963247,228.585,0.427754
226.5000,2.38611,228.954,0.432647
226.4000,0.343247,231.128,0.4613
226.3000,-0.499384,229.603,0.441215
226.2000,-1.3648,229.874,0.444805
226.1000,1.71196,229.601,0.4412
226.0000,-0.0720878,228.416,0.425516
225.9000,1.84128,228.21,0.42278
225.8000,1.69537,229.061,0.434056
225.7000,4.0579,230.27,0.450017
225.6000,0.756102,228.614,0.428145
225.5000,1.3447,230.032,0.446882
225.4000,1.15379,230.694,0.455596
225.3000,0.723519,230.081,0.447524
225.2000,-0.895315,230.926,0.45865
225.1000,0.905708,231.463,0.465702
225.0000,1.71799,231.446,0.465479
224.9000,1.3555,229.767,0.443384
224.8000,-0.347333,229.845,0.444416
224.7000,1.5244,231.517,0.466415
224.6000,1.70787,230.591,0.454239
224.5000,1.67659,230.92,0.458575
224.4000,3.21038,230.683,0.455462
224.3000,1.96899,231.165,0.461791
224.2000,0.605726,230.873,0.45795
224.1000,3.52989,231.687,0.468644
224.0000,1.70072,231.125,0.46127
223.9000,2.59919,231.213,0.462416
223.8000,1.2923,231.525,0.466519
223.7000,0.998969,233.113,0.487279
223.6000,2.45888,231.871,0.471048
223.5000,0.768723,232.075,0.473719
223.4000,2.29284,232.914,0.484692
223.3000,1.74891,231.669,0.468406
223.2000,-1.4792,232.704,0.481941
223.1000,0.461628,232.483,0.479054
223.0000,-1.39053,232.619,0.480831
222.9000,0.122109,232.578,0.480298
222.8000,-0.455868,233.975,0.498506
222.7000,2.27614,233.429,0.491399
222.6000,0.407182,233.442,0.491576
222.5000,1.87045,232.799,0.483184
222.4000,0.734343,233.602,0.493657
222.3000,2.37661,234.465,0.504865
222.2000,1.47635,234.629,0.506996
222.1000,-0.422997,234.25,0.502084
222.0000,3.46989,234.227,0.501775
221.9000,3.22622,234.197,0.501392
221.8000,3.02931,235.059,0.512577
221.7000,0.426368,233.87,0.497136
221.6000,1.42678,234.934,0.510948
221.5000,1.4755,235.065,0.51265
221.4000,2.16806,236.201,0.52734
221.3000,-0.699246,233.602,0.493657
221.2000,-1.11519,234.755,0.508627
221.1000,0.516684,233.421,0.491296
221.0000,1.65281,235.161,0.513897
220.9000,0.906226,234.585,0.506423
220.8000,2.95105,234.373,0.503673
220.7000,1.22972,234.06,0.499611
220.6000,-1.03564,235.298,0.515672
220.5000,0.151403,234.931,0.510918
220.4000,3.13609,235.968,0.524327
220.3000,1.41912,234.508,0.505423
220.2000,0.59296,235.561,0.519072
220.1000,-0.440598,236.386,0.529721
220.0000,2.30815,235.919,0.523699
219.9000,0.277926,236.109,0.526141
219.8000,4.36188,236.325,0.528932
219.7000,1.52915,237.574,0.544998
219.6000,3.93451,237.177,0.539903
219.5000,1.60812,236.229,0.52769
219.4000,2.19057,235.533,0.518706
219.3000,0.143795,236.088,0.525878
219.2000,1.95995,236.726,0.534101
219.1000,1.40391,236.241,0.527851
219.0000,0.647875,236.021,0.525015
218.9000,3.0782,235.969,0.524342
218.8000,3.54863,237.661,0.546117
218.7000,0.562885,237.586,0.545158
218.6000,0.281386,236.715,0.533955
218.5000,-0.192767,237.652,0.546001
218.4000,1.47583,237.594,0.545259
218.3000,1.61431,236.224,0.527632
218.2000,-0.104265,238.286,0.554136
218.1000,1.17485,236.331,0.529005
218.0000,1.86535,237.516,0.544255
217.9000,2.0037,237.178,0.539917
217.8000,3.32246,237.613,0.545507
217.7000,1.37191,237.763,0.547426
217.6000,1.90446,238.776,0.560399
217.5000,1.90526,237.792,0.547804
217.4000,2.52818,238.438,0.55608
217.3000,3.29405,239.38,0.568112
217.2000,0.784187,238.183,0.552815
217.1000,0.0563974,237.835,0.548356
217.0000,2.66599,239.876,0.574438
216.9000,2.60604,239.587,0.570756
216.8000,2.3972,239.198,0.565798
216.7000,1.58918,238.531,0.557269
216.6000,-0.176391,239.8,0.573471
216.5000,1.53181,238.97,0.562875
216.4000,-0.641732,239.128,0.564901
216.3000,1.50334,239.209,0.565928
216.2000,0.840715,239.462,0.569167
216.1000,3.18304,239.886,0.574568
216.0000,0.662743,240.524,0.582683
215.9000,0.729677,240.053,0.576689
215.8000,1.7647,239.758,0.572937
215.7000,1.19943,237.787,0.547731
215.6000,1.0542,240.091,0.577179
215.5000,3.71044,240.797,0.586152
215.4000,2.35762,240.89,0.587331
215.3000,1.94216,241.724,0.5979
215.2000,2.32844,241.641,0.596853
215.1000,3.41247,241.747,0.598187
215.0000,2.27178,242.012,0.601541
214.9000,0.440969,241.348,0.593137
214.8000,1.16763,241.035,0.589172
214.7000,1.29406,241.722,0.597872
214.6000,2.66032,242.267,0.604763
214.5000,1.91953,240.402,0.581128
214.4000,1.03965,242.49,0.607581
214.3000,1.46801,241.185,0.591068
214.2000,3.26466,242.143,0.603202
214.1000,0.650812,242.266,0.604748
214.0000,3.87914,241.862,0.599649
213.9000,3.28159,241.193,0.591169
213.8000,2.84444,242.572,0.608611
213.7000,3.03937,242.458,0.607181
213.6000,-2.34707,242.238,0.604405
213.5000,-0.254284,242.206,0.60399
213.4000,0.289581,242.118,0.602887
213.3000,1.5793,242.45,0.60708
213.2000,0.261628,243.871,0.624974
213.1000,0.332284,242.632,0.609368
213.0000,1.10743,243.43,0.619433
212.9000,1.06432,243.377,0.618763
212.8000,0.640618,242.406,0.606523
212.7000,3.42171,242.79,0.611369
212.6000,1.30103,244.407,0.631702
212.5000,3.07943,242.312,0.605335
212.4000,2.72296,243.343,0.618335
212.3000,4.39883,243.965,0.626156
212.2000,3.48771,244.14,0.628347
212.1000,3.61433,245.369,0.643746
212.0000,1.74284,243.969,0.626198
211.9000,0.95941,243.894,0.625259
211.8000,1.77074,244.235,0.629541
211.7000,4.12886,243.99,0.626469
211.6000,0.00458323,244.423,0.631901
211.5000,0.887784,245.109,0.640487
211.4000,0.0059771,244.956,0.638573
211.3000,1.6011,244.245,0.629669
211.2000,1.69155,245.067,0.639962
211.1000,5.24182,244.886,0.637707
211.0000,-0.514175,245.709,0.647992
210.9000,3.34136,245.652,0.647285
210.8000,4.06351,246.225,0.654423
210.7000,1.91681,245.925,0.650693
210.6000,1.42557,245.106,0.640458
210.5000,1.12993,246.49,0.657726
210.4000,2.95302,246.11,0.652997
210.3000,2.51779,246.097,0.652827
210.2000,2.7514,245.17,0.641252
210.1000,1.06329,247.031,0.664465
210.0000,-0.496327,246.403,0.65664
209.9000,1.70444,247.006,0.664155
209.8000,1.90013,245.816,0.649322
209.7000,0.443022,246.092,0.652771
209.6000,0.593018,247.215,0.666746
209.5000,3.45959,247.557,0.670994
209.4000,-2.25433,246.01,0.651753
209.3000,1.43599,247.57,0.671149
209.2000,2.15618,248.745,0.685699
209.1000,3.30661,247.899,0.675238
209.0000,1.95131,247.267,0.667393
208.9000,1.90171,248.736,0.685587
208.8000,0.814837,247.626,0.671852
208.7000,4.04138,248.719,0.685377
208.6000,1.35228,247.95,0.67587
208.5000,1.8303,248.368,0.681047
208.4000,4.06085,248.288,0.680052
208.3000,2.51795,249.778,0.698449
208.2000,2.2452,248.985,0.688667
208.1000,4.61995,249.52,0.695266
208.0000,1.0729,249.776,0.698421
207.9000,1.10045,249.802,0.698742
207.8000,2.29688,249.642,0.696774
207.7000,2.33131,249.944,0.7005
207.6000,1.19921,250.57,0.708191
207.5000,-0.587384,250.281,0.70464
207.4000,-1.25274,250.321,0.705128
207.3000,0.104361,250.937,0.712698
207.2000,4.4044,249.934,0.700374
207.1000,-1.44751,250.429,0.706465
207.0000,2.38997,251.399,0.718366
206.9000,2.84706,250.999,0.713463
206.8000,1.96983,251.348,0.717741
206.7000,3.05938,251.314,0.717325
206.6000,1.26303,251.347,0.717728
206.5000,1.34354,252.554,0.732484
206.4000,2.5355,251.296,0.717103
206.3000,2.18991,252.336,0.729828
206.2000,1.99739,253.33,0.741945
206.1000,1.88327,251.927,0.724829
206.0000,2.43942,252.585,0.732858
205.9000,2.1021,253.263,0.741131
205.8000,2.27881,251.735,0.722473
205.7000,0.41025,253.327,0.741904
205.6000,1.32258,253.039,0.738398
205.5000,2.87574,253.106,0.739213
205.4000,-1.50042,253.841,0.748161
205.3000,1.10089,253.933,0.749276
205.2000,3.40757,254.277,0.753459
205.1000,0.916208,254.063,0.750859
205.0000,4.41498,254.742,0.759092
204.9000,2.36992,254.672,0.758241
204.8000,1.2204,254.38,0.75471
204.7000,1.17674,254.654,0.758021
204.6000,3.38715,254.979,0.761961
204.5000,0.589838,254.974,0.761906
204.4000,5.71133,255.211,0.764772
204.3000,1.89814,255.546,0.768828
204.2000,0.871964,254.348,0.754311
204.1000,2.40345,256.929,0.785498
204.0000,-0.329357,256.194,0.776653
203.9000,1.57348,256.909,0.785266
203.8000,1.39682,255.995,0.774247
203.7000,-0.829916,256.925,0.785457
203.6000,-0.874974,256.341,0.778415
203.5000,1.55093,257.372,0.790824
203.4000,1.47189,257.502,0.79239
203.3000,1.40773,257.478,0.792104
203.2000,1.35854,257.903,0.797204
203.1000,3.16997,258.108,0.799663
203.0000,2.90435,257.274,0.789654
202.9000,4.6823,258.657,0.806231
202.8000,1.80542,259.01,0.810458
202.7000,0.175396,258.668,0.806366
202.6000,0.57795,259.195,0.812665
202.5000,0.912308,259.297,0.813883
202.4000,1.4566,258.358,0.80265
202.3000,-1.15924,259.746,0.819237
202.2000,3.79772,260.684,0.830407
202.1000,0.728467,260.454,0.827672
202.0000,3.92474,260.403,0.827065
201.9000,3.72876,260.438,0.827483
201.8000,2.96836,260.991,0.834056
201.7000,1.33468,263.009,0.857946
201.6000,0.98794,261.138,0.835805
201.5000,3.6855,261.154,0.835993
201.4000,4.31876,262.452,0.851375
201.3000,4.44593,262.18,0.848159
201.2000,1.21067,261.544,0.840617
201.1000,2.51477,262.204,0.84844
201.0000,2.12706,261.52,0.840335
200.9000,-3.84264,262.928,0.856997
200.8000,3.13785,261.563,0.840845
200.7000,-1.58159,262.543,0.852447
200.6000,0.932725,263.563,0.864479
200.5000,0.761016,262.698,0.854281
200.4000,1.69195,264.365,0.873918
200.3000,2.18035,265.328,0.885218
200.2000,1.44489,264.708,0.87795
200.1000,0.0356546,264.575,0.87638
200.0000,2.82533,263.878,0.868188
199.9000,5.48885,264.941,0.880675
199.8000,3.18892,265.339,0.885351
199.7000,3.0503,265.123,0.882814
199.6000,1.92701,265.367,0.885669
199.5000,1.35288,266.318,0.896802
199.4000,3.0272,266.011,0.893214
199.3000,1.2467,265.692,0.889477
199.2000,3.32189,265.888,0.89177
199.1000,0.178075,266.094,0.894181
199.0000,0.0152178,265.802,0.890762
198.9000,4.39318,266.113,0.894406
198.8000,2.61813,267.662,0.912464
198.7000,4.35857,266.877,0.90332
198.6000,0.421161,266.857,0.903082
198.5000,3.7019,268.307,0.919954
198.4000,2.20629,267.926,0.915533
198.3000,3.24552,267.829,0.9144
198.2000,5.24771,265.914,0.892074
198.1000,3.24795,267.266,0.907849
198.0000,1.12386,268.24,0.919179
197.9000,1.46801,267.584,0.911554
197.8000,5.39466,267.977,0.916125
197.7000,1.63793,269.438,0.933057
197.6000,3.21669,268.441,0.921506
197.5000,0.142351,269.351,0.932048
197.4000,0.407445,268.451,0.921625
197.3000,2.62523,268.597,0.92332
197.2000,0.35823,269.271,0.93113
197.1000,1.39527,268.574,0.923057
197.0000,0.502475,269.573,0.934617
196.9000,2.42553,269.417,0.932821
196.8000,-0.906593,269.228,0.930632
196.7000,0.38902,269.242,0.930789
196.6000,1.03193,268.722,0.924765
196.5000,4.20134,269.302,0.931484
196.4000,2.8599,269.951,0.93899
196.3000,0.714522,270.11,0.940821
196.2000,2.25697,270.18,0.941632
196.1000,2.35008,270.019,0.939775
196.0000,-0.880566,270.513,0.945474
195.9000,1.43856,270.036,0.939971
195.8000,1.14781,270.255,0.942495
195.7000,2.05561,270.175,0.94158
195.6000,4.69146,269.434,0.933018
195.5000,4.2745,270.505,0.945383
195.4000,-0.204114,271.093,0.952156
195.3000,3.79912,270.835,0.949182
195.2000,1.60756,271.324,0.954816
195.1000,1.01255,269.634,0.935324
195.0000,-0.198692,270.245,0.942377
194.9000,-2.39748,270.146,0.94124
194.8000,2.32229,271.136,0.952652
194.7000,1.08666,270.737,0.94806
194.6000,2.4653,270.707,0.947707
194.5000,1.70885,270.705,0.947681
194.4000,0.973219,271.661,0.958683
194.3000,0.218231,269.646,0.935468
194.2000,4.87016,270.303,0.943057
194.1000,1.1713,271.003,0.951113
194.0000,0.171955,271.883,0.961234
193.9000,-3.9964,270.556,0.945971
193.8000,4.00079,271.003,0.951113
193.7000,1.34316,271.046,0.951609
193.6000,2.45218,271.02,0.951309
193.5000,3.26718,273.338,0.977899
193.4000,1.48224,270.282,0.942809
193.3000,6.24876,271.483,0.956639
193.2000,2.87621,270.624,0.946754
193.1000,-0.324169,271.628,0.958306
193.0000,-0.378966,270.923,0.9502
192.9000,0.353508,271.775,0.959998
192.8000,5.18226,271.608,0.958072
192.7000,2.55778,271.731,0.959491
192.6000,0.796637,271.442,0.956171
192.5000,0.794757,270.262,0.942573
192.4000,1.28433,272.016,0.962756
192.3000,0.748919,271.555,0.957473
192.2000,1.14975,271.222,0.953643
192.1000,2.11783,271.791,0.96018
192.0000,2.43396,271.358,0.955207
191.9000,-1.80589,271.661,0.958683
191.8000,3.127,271.688,0.958996
191.7000,-0.50812,271.977,0.962314
191.6000,0.993458,272.019,0.962795
191.5000,2.64646,273.145,0.975697
191.4000,3.43798,271.96,0.962118
191.3000,3.7784,272.223,0.965135
191.2000,2.92772,270.604,0.946519
191.1000,1.07317,272.241,0.965342
191.0000,-0.501367,272.349,0.966577
190.9000,2.82137,273.069,0.974829
190.8000,0.853397,273.019,0.974258
190.7000,4.14649,273.297,0.977433
190.6000,3.31159,273.714,0.982197
190.5000,1.84115,271.986,0.962418
190.4000,-0.916771,272.551,0.968901
190.3000,1.59485,272.926,0.973195
190.2000,4.39825,272.482,0.968109
190.1000,0.380721,272.393,0.967083
190.0000,1.70019,272.321,0.966265

##### Extended Information
[Comments]
Sample name,ECTC_BUFFER_928
Comment,BUFFER
User,TRICIACHESELDINE
Division
Company,Saint Mary's College

[Detailed Information]
Creation date,9/28/2022 4:10 PM

Data array type,Linear data array * 3
Horizontal axis,Wavelength [nm]
Vertical axis(1),CD [mdeg]
Vertical axis(2),HT [V]
Vertical axis(3),Abs
Start,320 nm
End,190 nm
Data interval,0.1 nm
Data points,1301    

[Measurement Information]
Instrument name,J-1500
Model name,J-1500
Serial No.,B051061638

Detector,PM-539
Detector S/N,B051061638
  Lock-in amp.,X mode
  HT volt,Auto

Accessory,PTC-517
Accessory S/N,B026561646
  Temperature,23.03 C
  Control sensor,Holder
  Monitor sensor,Holder

Measurement date,9/28/2022 4:10 PM

Photometric mode,CD, HT, Abs
Measure range,320 - 190 nm
Data pitch,0.1 nm
CD scale,20 mdeg/0.05 dOD
FL scale,20 mdeg/0.05 dOD
D.I.T.,8 msec
Bandwidth,2.00 nm
Start mode,Immediately
Scanning mode,Continuous
Scanning speed,200 nm/min
Baseline correction,None
Shutter control,Auto
No. of cycle,1/1
N2 Flowmeter,Manual

Solvent,NaPO4 buffer

