TITLE,ECTC_BUFFER_928
DATA TYPE,
ORIGIN,JASCO
OWNER,
DATE,22/09/28
TIME,17:12:34
SPECTROMETER/DATA SYSTEM,
LOCALE,1033
RESOLUTION,
DELTAX,-0.1
XUNITS,NANOMETERS
YUNITS,CD [mdeg]
Y2UNITS,HT [V]
Y3UNITS,ABSORBANCE
FIRSTX,  320.0000
LASTX,  190.0000
NPOINTS,    1301
FIRSTY,    -0.24556
MAXY,     7.12557
MINY,    -5.22088
XYDATA
320.0000,-0.245565,209.051,0.15923
319.9000,1.6357,209.289,0.162623
319.8000,1.99303,209.12,0.160216
319.7000,0.714029,209.121,0.160232
319.6000,0.54801,208.218,0.14733
319.5000,0.68294,208.693,0.154118
319.4000,-1.16988,208.633,0.15326
319.3000,0.357904,208.573,0.152402
319.2000,0.893445,207.909,0.142899
319.1000,0.0138707,208.287,0.148319
319.0000,0.792805,208.786,0.155445
318.9000,1.22633,208.55,0.152078
318.8000,2.17212,208.578,0.152483
318.7000,1.22372,209.553,0.166384
318.6000,1.09757,209.031,0.158939
318.5000,0.482545,209.774,0.169528
318.4000,0.634356,208.444,0.150555
318.3000,1.61251,208.099,0.145626
318.2000,3.37908,208.649,0.153487
318.1000,0.529298,209.486,0.165432
318.0000,2.18047,209.668,0.168029
317.9000,1.91518,207.769,0.140902
317.8000,0.716848,208.518,0.151625
317.7000,-0.0954494,208.561,0.15224
317.6000,2.64765,209.349,0.163479
317.5000,0.424214,208.937,0.157597
317.4000,1.50845,208.522,0.151673
317.3000,1.60857,209.231,0.161799
317.2000,1.10087,208.794,0.155559
317.1000,1.74298,208.33,0.148935
317.0000,2.00621,208.074,0.145269
316.9000,2.87715,208.668,0.153762
316.8000,3.56186,208.952,0.157824
316.7000,0.345326,209.169,0.160911
316.6000,1.1621,208.933,0.157548
316.5000,1.97177,208.338,0.149048
316.4000,1.90261,209.217,0.161605
316.3000,2.02236,208.624,0.153131
316.2000,1.27473,208.234,0.147557
316.1000,2.87487,208.241,0.147654
316.0000,3.68531,209.028,0.158907
315.9000,2.42431,208.222,0.147378
315.8000,1.25005,208.275,0.14814
315.7000,2.91167,208.554,0.152127
315.6000,1.68961,208.356,0.149307
315.5000,2.35772,208.634,0.153276
315.4000,2.92566,208.678,0.153908
315.3000,0.458919,208.776,0.1553
315.2000,0.490448,208.584,0.152564
315.1000,2.02002,208.386,0.149729
315.0000,0.84834,208.771,0.155235
314.9000,-0.580804,208.676,0.153876
314.8000,2.16782,208.733,0.154685
314.7000,0.726696,208.095,0.145561
314.6000,1.83803,208.619,0.153066
314.5000,-0.298485,207.954,0.143549
314.4000,3.5519,208.359,0.14934
314.3000,1.82479,208.018,0.144458
314.2000,0.180504,208.024,0.144555
314.1000,1.44557,208.498,0.151333
314.0000,0.936549,208.568,0.152337
313.9000,2.78726,207.976,0.143857
313.8000,0.436334,208.493,0.151268
313.7000,1.42281,208.449,0.150636
313.6000,1.63039,208.581,0.152515
313.5000,0.846016,208.619,0.153066
313.4000,2.62706,207.854,0.14212
313.3000,1.36671,207.98,0.143922
313.2000,1.16954,208.452,0.150669
313.1000,2.27229,208.362,0.149388
313.0000,0.912038,207.749,0.140609
312.9000,1.7988,208.326,0.14887
312.8000,2.1935,208.633,0.15326
312.7000,-0.183734,208.011,0.14436
312.6000,0.0213292,208.739,0.154782
312.5000,2.11559,208.976,0.158163
312.4000,0.865197,207.86,0.142201
312.3000,1.00282,207.781,0.141064
312.2000,2.74737,208.83,0.156077
312.1000,1.72825,208.259,0.147913
312.0000,2.85552,208.649,0.153487
311.9000,1.09348,208.214,0.147265
311.8000,0.710037,208.689,0.15407
311.7000,0.555168,207.716,0.140138
311.6000,2.34142,208.103,0.145675
311.5000,0.560903,208.251,0.1478
311.4000,-0.334068,208.734,0.154701
311.3000,0.743578,207.703,0.139943
311.2000,2.89859,208.123,0.145967
311.1000,2.55812,208.006,0.144296
311.0000,0.260417,208.479,0.151058
310.9000,2.03967,208.593,0.152694
310.8000,0.880488,207.97,0.143776
310.7000,1.54968,207.839,0.141893
310.6000,1.87873,207.748,0.140593
310.5000,0.61989,208.137,0.146162
310.4000,-0.860173,208.79,0.15551
310.3000,3.30575,209.019,0.158777
310.2000,-1.20425,208.361,0.149372
310.1000,-1.77282,208.132,0.146097
310.0000,1.42541,209.195,0.161282
309.9000,0.873975,208.143,0.146259
309.8000,0.884086,208.445,0.150572
309.7000,0.219682,208.583,0.152548
309.6000,0.00441355,208.118,0.145902
309.5000,1.95339,208.874,0.156707
309.4000,2.04862,209.036,0.15902
309.3000,1.40951,208.114,0.145837
309.2000,2.72668,208.882,0.156821
309.1000,1.08747,208.666,0.15373
309.0000,1.657,208.278,0.148189
308.9000,1.20289,208.643,0.153406
308.8000,0.823385,208.278,0.148189
308.7000,1.46023,207.858,0.142168
308.6000,1.67615,208.648,0.153471
308.5000,1.95178,208.16,0.146502
308.4000,2.48688,208.643,0.153406
308.3000,0.0535744,208.167,0.1466
308.2000,2.10189,208.53,0.151787
308.1000,2.19051,207.822,0.141649
308.0000,0.720216,208.479,0.151058
307.9000,2.73523,208.092,0.145529
307.8000,2.11048,207.706,0.139992
307.7000,2.3646,207.369,0.135162
307.6000,0.892573,208.462,0.150815
307.5000,1.53512,208.176,0.14673
307.4000,0.211001,207.715,0.140122
307.3000,2.50689,207.512,0.137212
307.2000,1.76711,208.004,0.144263
307.1000,1.49995,207.375,0.135243
307.0000,2.44096,208.774,0.155284
306.9000,1.92141,207.734,0.140398
306.8000,-0.757434,207.553,0.137797
306.7000,2.10214,207.703,0.139943
306.6000,0.822972,207.61,0.13861
306.5000,0.483158,207.875,0.142412
306.4000,3.38506,208.154,0.146405
306.3000,0.478302,208.319,0.148773
306.2000,1.3993,208.146,0.146291
306.1000,1.60681,208.654,0.153568
306.0000,0.490188,207.654,0.139244
305.9000,2.08075,207.99,0.144068
305.8000,1.21242,208.566,0.152305
305.7000,0.818865,208.081,0.145367
305.6000,-0.195582,209.133,0.160393
305.5000,0.838159,208.326,0.14887
305.4000,2.85254,209.215,0.161573
305.3000,0.50506,208.273,0.148108
305.2000,0.118428,207.929,0.143192
305.1000,2.49288,207.799,0.141324
305.0000,1.80211,208.137,0.146162
304.9000,0.479318,208.31,0.148643
304.8000,0.0368417,207.823,0.141665
304.7000,2.25596,207.835,0.141844
304.6000,2.33331,207.796,0.141275
304.5000,2.26265,208.321,0.148805
304.4000,1.17583,208.328,0.148902
304.3000,2.58363,207.758,0.140739
304.2000,0.881231,208.714,0.154426
304.1000,0.653213,208.659,0.153633
304.0000,0.967098,208.419,0.150199
303.9000,1.87196,207.467,0.136561
303.8000,2.38225,207.85,0.142055
303.7000,2.24341,207.18,0.132444
303.6000,2.46636,208.576,0.152451
303.5000,2.65402,208.825,0.156012
303.4000,1.46518,208.013,0.144393
303.3000,1.01255,207.653,0.139228
303.2000,1.91852,209.336,0.163301
303.1000,0.93045,208.282,0.148238
303.0000,0.617874,208.271,0.148092
302.9000,1.40706,208.389,0.149778
302.8000,-0.0308986,207.74,0.140479
302.7000,1.8875,208.21,0.147216
302.6000,0.558058,208.316,0.148724
302.5000,2.33215,207.381,0.135325
302.4000,0.973741,207.607,0.138578
302.3000,0.370103,208.168,0.146616
302.2000,0.397178,208.301,0.148513
302.1000,0.859792,208.891,0.15695
302.0000,2.01014,207.862,0.142234
301.9000,2.29312,208.096,0.145577
301.8000,0.574866,208.108,0.145756
301.7000,0.659917,208.346,0.149162
301.6000,2.03472,207.69,0.139764
301.5000,1.26411,208.313,0.148692
301.4000,0.236179,208.098,0.14561
301.3000,1.9834,208.077,0.145302
301.2000,0.964256,207.648,0.139163
301.1000,1.66061,207.939,0.143338
301.0000,0.455594,207.78,0.141048
300.9000,1.5139,208.499,0.151349
300.8000,2.16669,207.996,0.14415
300.7000,-0.95621,207.369,0.135162
300.6000,0.569818,207.27,0.13373
300.5000,2.36787,207.431,0.136041
300.4000,2.39967,208.141,0.146226
300.3000,-0.14352,207.894,0.142688
300.2000,1.99623,207.684,0.139683
300.1000,1.26409,207.743,0.140528
300.0000,0.334018,207.807,0.141438
299.9000,3.53147,207.933,0.14324
299.8000,1.11878,207.584,0.138236
299.7000,1.39562,208.094,0.145545
299.6000,2.2284,207.863,0.14225
299.5000,4.8557,207.848,0.142023
299.4000,1.86518,207.516,0.137261
299.3000,1.40374,208.22,0.147362
299.2000,1.77095,207.747,0.140577
299.1000,2.38395,207.558,0.137862
299.0000,0.566926,207.543,0.137651
298.9000,0.44455,207.953,0.143533
298.8000,0.945509,207.643,0.139081
298.7000,2.50804,208.151,0.146372
298.6000,1.15076,207.888,0.142607
298.5000,0.172197,207.697,0.139862
298.4000,2.74212,207.794,0.141259
298.3000,0.34122,207.244,0.133355
298.2000,0.12555,207.597,0.138431
298.1000,1.6741,208.071,0.145221
298.0000,2.21483,207.904,0.142835
297.9000,0.383645,207.154,0.132069
297.8000,-0.436042,207.508,0.137147
297.7000,1.53441,207.905,0.142851
297.6000,0.358007,208.588,0.152613
297.5000,2.04677,208.173,0.146681
297.4000,2.29237,207.173,0.132346
297.3000,1.70521,207.322,0.134479
297.2000,0.870134,207.972,0.143809
297.1000,0.727871,208.215,0.147281
297.0000,1.50573,208.299,0.148481
296.9000,2.10818,208.004,0.144263
296.8000,1.10913,207.986,0.144003
296.7000,-1.45681,207.34,0.134739
296.6000,0.101828,207.937,0.143305
296.5000,1.27983,209.111,0.160087
296.4000,1.52808,206.642,0.1247
296.3000,1.25664,207.11,0.131434
296.2000,1.40393,207.017,0.130098
296.1000,2.22961,207.452,0.13635
296.0000,1.41183,208.157,0.146454
295.9000,-0.0190684,207.84,0.141909
295.8000,2.17053,207.623,0.138805
295.7000,-0.168232,207.475,0.136675
295.6000,0.842397,207.951,0.1435
295.5000,1.46014,207.256,0.133534
295.4000,1.97486,207.495,0.136968
295.3000,2.80064,208.107,0.14574
295.2000,1.12459,207.393,0.135504
295.1000,2.9143,207.44,0.136171
295.0000,1.0913,206.98,0.12956
294.9000,0.737104,207.688,0.139732
294.8000,1.92152,208.02,0.14449
294.7000,0.633299,207.436,0.136122
294.6000,0.747307,207.464,0.136512
294.5000,1.73655,207.375,0.135243
294.4000,1.78214,206.65,0.124814
294.3000,3.41159,206.973,0.129462
294.2000,0.425505,207.358,0.134999
294.1000,0.595754,207.526,0.137407
294.0000,2.39117,207.311,0.134316
293.9000,0.976308,207.292,0.134056
293.8000,1.40915,206.99,0.129707
293.7000,1.70629,206.924,0.128762
293.6000,1.77146,206.798,0.126951
293.5000,1.18142,207.257,0.133551
293.4000,1.47338,206.624,0.124439
293.3000,0.556135,207.401,0.135618
293.2000,0.511404,207.084,0.131059
293.1000,-0.275209,207.149,0.131988
293.0000,0.960404,207.758,0.140739
292.9000,0.214167,207.334,0.134658
292.8000,2.52595,207.085,0.131075
292.7000,1.7739,206.517,0.122905
292.6000,2.01749,207.375,0.135243
292.5000,2.00602,207.099,0.131271
292.4000,1.09381,206.576,0.123753
292.3000,-0.0528339,206.943,0.129039
292.2000,1.85262,207.12,0.13158
292.1000,2.8418,207.062,0.13075
292.0000,1.89738,206.474,0.122284
291.9000,0.984705,206.536,0.123166
291.8000,3.3613,207.036,0.130375
291.7000,1.97066,206.95,0.129136
291.6000,1.05511,206.29,0.119621
291.5000,1.3798,207.044,0.130489
291.4000,0.219264,206.869,0.127963
291.3000,1.36484,206.418,0.121467
291.2000,1.49844,206.497,0.122611
291.1000,3.0051,206.936,0.128925
291.0000,1.33637,206.641,0.124684
290.9000,1.62053,206.89,0.128272
290.8000,1.55386,207.025,0.130212
290.7000,1.89897,206.77,0.126544
290.6000,3.05689,207.445,0.136252
290.5000,1.59384,206.775,0.126609
290.4000,2.0888,207.69,0.139764
290.3000,3.79928,206.464,0.122137
290.2000,0.949356,207.4,0.135602
290.1000,1.93856,206.345,0.120422
290.0000,1.40725,206.912,0.128582
289.9000,2.52258,206.8,0.126968
289.8000,0.522242,206.848,0.127669
289.7000,2.22545,207.035,0.130359
289.6000,0.867347,207.866,0.142282
289.5000,0.972861,206.482,0.122399
289.4000,0.0761524,207.086,0.131092
289.3000,1.6666,207.511,0.137195
289.2000,0.267508,206.991,0.129723
289.1000,0.377711,206.775,0.126609
289.0000,1.98943,207.461,0.13648
288.9000,1.2296,207.075,0.130929
288.8000,2.43789,206.786,0.126772
288.7000,0.564198,206.443,0.121827
288.6000,1.36764,206.773,0.126593
288.5000,0.828076,206.976,0.129511
288.4000,1.48994,207.283,0.133925
288.3000,0.0835584,206.463,0.122121
288.2000,2.67627,206.564,0.123574
288.1000,1.65633,207.153,0.132053
288.0000,1.56881,207.169,0.132281
287.9000,0.617846,208.038,0.14475
287.8000,1.69853,206.499,0.122643
287.7000,1.66205,206.627,0.124488
287.6000,-0.416747,206.837,0.127506
287.5000,2.63666,207.384,0.135374
287.4000,1.51543,206.536,0.123166
287.3000,0.683567,207.495,0.136968
287.2000,0.369884,206.677,0.125206
287.1000,0.278064,207.683,0.139667
287.0000,2.46002,207.467,0.136561
286.9000,1.41446,207.485,0.136822
286.8000,2.16707,207.195,0.132655
286.7000,1.38788,207.841,0.141925
286.6000,0.945302,206.538,0.123198
286.5000,0.563862,205.98,0.115157
286.4000,1.77321,206.249,0.119033
286.3000,3.44099,207.099,0.131271
286.2000,2.16027,207.484,0.136805
286.1000,1.50825,206.674,0.125157
286.0000,0.176844,207.117,0.131532
285.9000,0.00820483,205.883,0.11375
285.8000,2.11811,207.541,0.137618
285.7000,2.11901,207.447,0.136268
285.6000,1.23432,206.14,0.117463
285.5000,2.41294,207.154,0.132069
285.4000,0.600807,206.27,0.119343
285.3000,1.09403,207.278,0.133844
285.2000,1.96692,207.445,0.136252
285.1000,-0.385213,206.879,0.128109
285.0000,1.33448,206.165,0.117823
284.9000,1.04437,205.827,0.112948
284.8000,1.93256,207.017,0.130098
284.7000,2.75182,206.914,0.128615
284.6000,1.27884,205.581,0.109393
284.5000,1.36747,207.546,0.1377
284.4000,2.9814,206.926,0.128794
284.3000,2.28135,207.47,0.13661
284.2000,1.68445,205.879,0.1137
284.1000,0.915167,208.244,0.147703
284.0000,0.556628,206.864,0.127897
283.9000,1.45767,207.386,0.135406
283.8000,0.581427,206.224,0.118673
283.7000,2.13078,206.986,0.129658
283.6000,0.766737,206.655,0.12488
283.5000,1.38097,206.785,0.126756
283.4000,1.6842,206.006,0.115534
283.3000,-0.740891,206.122,0.117202
283.2000,0.889759,206.819,0.127245
283.1000,-0.23159,206.492,0.122545
283.0000,0.781692,206.755,0.126332
282.9000,1.90132,206.837,0.127506
282.8000,0.311388,207.652,0.139212
282.7000,1.86892,206.841,0.127571
282.6000,1.42016,207.368,0.135146
282.5000,2.87723,206.577,0.12377
282.4000,0.435273,207.132,0.131743
282.3000,2.54661,207.643,0.139081
282.2000,2.77463,207.008,0.129967
282.1000,2.94104,206.464,0.122137
282.0000,0.596865,206.272,0.11936
281.9000,0.593611,206.562,0.123541
281.8000,2.12337,205.817,0.1128
281.7000,2.63071,207.01,0.13
281.6000,1.71489,207.624,0.138821
281.5000,-0.059291,207.333,0.134641
281.4000,2.31574,206.942,0.129022
281.3000,1.89372,206.381,0.120945
281.2000,0.721236,207.048,0.130538
281.1000,2.54381,206.694,0.125451
281.0000,-0.0593966,207.061,0.130733
280.9000,1.3618,206.676,0.12519
280.8000,-0.226485,207.075,0.130929
280.7000,2.0819,206.696,0.125483
280.6000,-0.837827,207,0.129853
280.5000,2.69279,206.696,0.125483
280.4000,-0.0822904,206.344,0.120406
280.3000,2.07707,206.3,0.119768
280.2000,0.13062,206.882,0.128158
280.1000,0.698297,207.155,0.132085
280.0000,1.62345,206.752,0.126283
279.9000,1.51142,207.138,0.131841
279.8000,1.14492,206.711,0.125696
279.7000,1.37011,207.099,0.131271
279.6000,0.724278,207.386,0.135406
279.5000,2.78233,207.205,0.132802
279.4000,3.34932,206.624,0.124439
279.3000,0.396571,206.869,0.127963
279.2000,-1.01411,206.53,0.123084
279.1000,1.50959,206.423,0.121549
279.0000,0.575212,207.129,0.131711
278.9000,2.12068,206.284,0.11954
278.8000,0.106179,206.509,0.12279
278.7000,1.12231,206.818,0.127229
278.6000,0.651491,207.405,0.135666
278.5000,-1.21023,206.962,0.129299
278.4000,0.996454,206.912,0.128582
278.3000,2.46662,207.258,0.133567
278.2000,-0.0275537,207.049,0.130554
278.1000,2.32126,207.173,0.132346
278.0000,2.14451,207.095,0.131222
277.9000,0.899083,207.128,0.131695
277.8000,2.75572,206.674,0.125157
277.7000,1.5462,207.607,0.138578
277.6000,1.49334,207.596,0.138415
277.5000,1.2894,206.776,0.126625
277.4000,0.22549,207.155,0.132085
277.3000,2.77286,206.426,0.121582
277.2000,0.950574,207.079,0.130994
277.1000,0.620235,207.186,0.132525
277.0000,-0.0174452,206.451,0.121941
276.9000,1.03695,207.236,0.133242
276.8000,0.577496,207.512,0.137212
276.7000,1.55677,207.796,0.141275
276.6000,2.04027,207.234,0.133209
276.5000,1.95891,206.358,0.120602
276.4000,-0.396546,206.775,0.126609
276.3000,0.342881,207.543,0.137651
276.2000,2.09385,205.882,0.113733
276.1000,1.15558,206.154,0.11766
276.0000,0.764708,206.922,0.128729
275.9000,2.07156,207.638,0.139017
275.8000,-0.656315,207.207,0.132835
275.7000,2.53007,207.536,0.137553
275.6000,2.59713,206.982,0.129593
275.5000,1.9778,207.53,0.137472
275.4000,-0.0635265,208.048,0.144896
275.3000,-0.135469,206.532,0.123117
275.2000,2.36167,207.68,0.139618
275.1000,0.213414,206.807,0.127082
275.0000,0.0776513,206.623,0.124423
274.9000,1.53779,207.552,0.137781
274.8000,1.65228,206.736,0.126054
274.7000,0.704311,207.108,0.131401
274.6000,0.898922,207.324,0.134511
274.5000,-0.515726,207.281,0.133893
274.4000,1.57808,207.69,0.139764
274.3000,-1.14528,207.087,0.131108
274.2000,-0.0250649,207.544,0.137667
274.1000,2.1119,206.984,0.129625
274.0000,-0.572996,206.76,0.126397
273.9000,0.49212,207.176,0.132378
273.8000,-0.27502,207.513,0.137228
273.7000,0.954468,207.238,0.133274
273.6000,0.154142,206.864,0.127897
273.5000,-0.0965019,207.765,0.140837
273.4000,1.13137,208.202,0.147102
273.3000,-0.915107,207.666,0.139423
273.2000,2.23194,207.265,0.133665
273.1000,-0.0987506,207.609,0.138594
273.0000,0.928433,208.084,0.145415
272.9000,-0.00431816,207.142,0.13189
272.8000,2.38742,208.218,0.14733
272.7000,1.53904,208.006,0.144296
272.6000,1.03562,207.982,0.143955
272.5000,0.665019,206.916,0.128647
272.4000,0.20654,206.218,0.118592
272.3000,0.724,205.875,0.113635
272.2000,0.988739,206.848,0.127669
272.1000,1.0829,207.581,0.138204
272.0000,1.14443,207.592,0.13835
271.9000,1.32302,208.127,0.146032
271.8000,-0.109554,207.38,0.135309
271.7000,0.96364,206.84,0.127555
271.6000,-0.395383,206.768,0.126511
271.5000,2.24317,207.688,0.139732
271.4000,0.44997,208.486,0.151155
271.3000,1.20771,207.558,0.137862
271.2000,-1.21187,207.692,0.139797
271.1000,0.266547,208.061,0.145075
271.0000,1.15112,207.765,0.140837
270.9000,1.04549,207.175,0.132362
270.8000,1.33009,207.35,0.134885
270.7000,1.16903,207.562,0.137927
270.6000,-0.421385,207.905,0.142851
270.5000,2.47111,207.563,0.137943
270.4000,1.05239,207.87,0.142347
270.3000,0.693621,207.656,0.139277
270.2000,1.96045,207.938,0.143322
270.1000,-0.098485,207.544,0.137667
270.0000,2.63276,207.663,0.139374
269.9000,2.02479,207.797,0.141292
269.8000,0.192368,208.063,0.145107
269.7000,2.65322,207.53,0.137472
269.6000,1.6312,207.669,0.139455
269.5000,1.16074,207.731,0.140349
269.4000,0.277657,207.665,0.139407
269.3000,1.46482,207.806,0.141421
269.2000,0.826671,208.053,0.144961
269.1000,1.4463,207.95,0.143484
269.0000,0.135363,208.002,0.144231
268.9000,1.51038,208.176,0.14673
268.8000,1.23718,209.391,0.164076
268.7000,-0.00714904,208.376,0.149583
268.6000,1.38971,208.06,0.145058
268.5000,-1.08051,208.194,0.146989
268.4000,2.45077,208.143,0.146259
268.3000,-0.606313,208.471,0.150944
268.2000,0.966773,208.263,0.147978
268.1000,1.60429,208.967,0.158034
268.0000,1.06612,209.198,0.161331
267.9000,2.08336,208.262,0.147962
267.8000,1.80726,209.349,0.163479
267.7000,0.47658,208.464,0.150847
267.6000,1.87138,208.507,0.151463
267.5000,2.03619,208.9,0.157079
267.4000,1.35415,207.843,0.141958
267.3000,0.429784,207.988,0.144036
267.2000,-0.890919,208.168,0.146616
267.1000,-0.330583,208.108,0.145756
267.0000,0.958993,209.307,0.162881
266.9000,-0.261261,208.015,0.144425
266.8000,0.663248,208.265,0.147994
266.7000,-0.0629702,208.658,0.153617
266.6000,-0.492736,209.608,0.167174
266.5000,1.05956,208.479,0.151058
266.4000,2.49408,208.933,0.157548
266.3000,0.513081,208.354,0.149275
266.2000,1.52202,208.433,0.15041
266.1000,-0.455542,208.506,0.151447
266.0000,1.49723,208.311,0.148659
265.9000,2.82847,208.787,0.155462
265.8000,0.0828598,208.382,0.14968
265.7000,0.175043,208.823,0.155979
265.6000,1.193,208.849,0.156351
265.5000,0.84852,208.56,0.152224
265.4000,2.07844,208.956,0.157872
265.3000,2.89191,209.287,0.162591
265.2000,-1.04775,208.265,0.147994
265.1000,1.24503,208.233,0.14754
265.0000,0.991457,208.069,0.145188
264.9000,0.217076,209.193,0.16125
264.8000,-0.828079,209.702,0.168513
264.7000,1.00172,208.645,0.153438
264.6000,2.62481,208.827,0.156028
264.5000,0.516859,208.874,0.156707
264.4000,0.542297,209.597,0.167013
264.3000,2.35102,209.474,0.165254
264.2000,-0.0618341,209.031,0.158939
264.1000,2.13644,208.474,0.150993
264.0000,1.86394,208.896,0.157015
263.9000,0.603658,209.059,0.159343
263.8000,2.1056,209.204,0.161412
263.7000,0.837623,209.253,0.162106
263.6000,-0.336898,208.151,0.146372
263.5000,-0.192339,209.336,0.163301
263.4000,-0.731688,210.66,0.182111
263.3000,0.122065,207.533,0.137505
263.2000,0.214744,208.964,0.157985
263.1000,0.0859861,209.411,0.164367
263.0000,-0.024453,208.993,0.158406
262.9000,0.312226,209.479,0.165335
262.8000,0.676312,208.539,0.151916
262.7000,1.12342,210.39,0.178286
262.6000,0.328976,209.909,0.171446
262.5000,0.266055,210.11,0.174312
262.4000,-0.599998,209.925,0.171671
262.3000,0.227869,210.199,0.175568
262.2000,0.583209,209.615,0.167271
262.1000,2.33186,211.162,0.18922
262.0000,0.476767,210.463,0.179315
261.9000,-0.716171,210.964,0.186414
261.8000,0.224281,209.659,0.1679
261.7000,1.61991,209.957,0.172139
261.6000,2.09682,208.416,0.150167
261.5000,0.385223,208.425,0.150296
261.4000,1.48727,209.638,0.167594
261.3000,0.0730662,209.469,0.16519
261.2000,0.791692,209.594,0.166965
261.1000,0.193707,210.673,0.182304
261.0000,0.345548,209.293,0.162688
260.9000,2.78238,210.477,0.179524
260.8000,-0.788709,209.139,0.160491
260.7000,-0.138069,209.913,0.17151
260.6000,1.69647,209.951,0.172042
260.5000,2.39991,208.575,0.152434
260.4000,-0.637536,210.292,0.176887
260.3000,0.0469082,210.637,0.18179
260.2000,1.35347,209.953,0.172074
260.1000,-1.17373,210.695,0.182609
260.0000,0.981831,210.565,0.180762
259.9000,-0.837924,211.764,0.197723
259.8000,0.324956,210.639,0.181822
259.7000,0.166678,210.275,0.176646
259.6000,2.16785,210.033,0.173217
259.5000,0.0601572,210.807,0.184199
259.4000,0.704222,210.516,0.180071
259.3000,-0.208801,209.75,0.16919
259.2000,0.684581,210.466,0.179364
259.1000,-1.37091,211.386,0.192393
259.0000,1.6377,212.712,0.211085
258.9000,2.91828,211.115,0.188563
258.8000,0.542398,210.917,0.185756
258.7000,1.81523,210.198,0.175552
258.6000,1.08095,210.575,0.180906
258.5000,1.22412,210.327,0.177386
258.4000,1.4679,211.18,0.189477
258.3000,1.58928,211.216,0.189989
258.2000,1.73121,211.198,0.189733
258.1000,0.326239,210.973,0.186542
258.0000,1.02023,211.547,0.194667
257.9000,0.137988,211.717,0.197067
257.8000,0.617747,211.05,0.187633
257.7000,0.0850977,211.251,0.190486
257.6000,-0.126055,210.074,0.173797
257.5000,1.05187,212.888,0.213554
257.4000,-0.852306,210.638,0.181806
257.3000,1.20779,212.523,0.208423
257.2000,1.4938,211.646,0.196059
257.1000,0.793035,211.139,0.1889
257.0000,1.26227,210.515,0.180054
256.9000,0.341988,210.953,0.186269
256.8000,2.25254,212.298,0.205264
256.7000,-1.1308,211.646,0.196059
256.6000,3.46334,212.023,0.201384
256.5000,0.441246,210.024,0.173089
256.4000,1.03321,212.667,0.210448
256.3000,1.55229,210.715,0.182898
256.2000,1.20996,212.37,0.20627
256.1000,0.614339,211.518,0.19425
256.0000,0.536433,210.808,0.184215
255.9000,1.42188,212.522,0.208407
255.8000,1.38553,211.501,0.19401
255.7000,1.09637,211.848,0.198922
255.6000,1.20479,211.664,0.196315
255.5000,0.638258,211.359,0.192008
255.4000,0.44938,211.475,0.193642
255.3000,1.16866,211.641,0.195995
255.2000,1.64343,211.368,0.192137
255.1000,-0.249968,211.86,0.199082
255.0000,-0.459964,212.044,0.201687
254.9000,1.2514,212.395,0.20662
254.8000,1.45196,212.159,0.203301
254.7000,-0.594554,211.818,0.19849
254.6000,0.641666,211.828,0.198634
254.5000,1.42719,211.957,0.200457
254.4000,1.38181,211.987,0.200872
254.3000,2.46295,211.868,0.199194
254.2000,0.19531,212.108,0.202582
254.1000,0.439604,211.393,0.192489
254.0000,0.864446,212.154,0.203237
253.9000,1.21826,211.91,0.199786
253.8000,0.851347,212.41,0.206844
253.7000,0.0967449,212.349,0.205982
253.6000,2.81904,212.348,0.205966
253.5000,0.649547,212.626,0.209874
253.4000,1.89185,212.268,0.204833
253.3000,1.17206,212.733,0.211388
253.2000,3.07921,212.919,0.214
253.1000,0.722508,212.473,0.207721
253.0000,0.563822,212.642,0.210097
252.9000,1.12392,212.393,0.206605
252.8000,1.69301,213.136,0.21704
252.7000,2.03741,212.386,0.206493
252.6000,-0.052361,212.45,0.207402
252.5000,1.20543,212.393,0.206605
252.4000,1.36601,213.179,0.217645
252.3000,-0.773178,212.796,0.212264
252.2000,2.39744,213.179,0.217645
252.1000,0.00800013,212.636,0.210017
252.0000,-1.09039,212.56,0.208949
251.9000,0.730747,213.962,0.228619
251.8000,1.08366,213.165,0.217454
251.7000,0.907538,211.3,0.191175
251.6000,2.53791,214.55,0.236841
251.5000,1.266,213.925,0.228112
251.4000,1.23673,212.992,0.215019
251.3000,0.230218,212.642,0.210097
251.2000,1.07776,213.19,0.217804
251.1000,0.552525,211.222,0.19007
251.0000,1.64191,212.902,0.213761
250.9000,1.08529,212.969,0.214701
250.8000,1.31821,214.534,0.236619
250.7000,0.373316,213.788,0.226192
250.6000,1.37311,213.027,0.215513
250.5000,0.621836,213.744,0.225573
250.4000,-0.0959396,212.03,0.20148
250.3000,1.21476,214.402,0.234783
250.2000,3.49751,213.14,0.217104
250.1000,2.82928,212.747,0.211579
250.0000,0.325225,214.067,0.230094
249.9000,1.09548,213.207,0.218042
249.8000,0.506088,213.938,0.228286
249.7000,0.95847,213.223,0.218265
249.6000,0.610498,212.355,0.206062
249.5000,1.81412,213.465,0.221667
249.4000,-0.483038,214.365,0.234261
249.3000,0.0415826,214.175,0.231599
249.2000,-0.380054,213.195,0.217867
249.1000,0.856609,214.103,0.230601
249.0000,1.45135,213.357,0.220141
248.9000,0.0155565,214.279,0.233057
248.8000,-0.204309,214.49,0.236002
248.7000,1.01796,214.73,0.239355
248.6000,-1.33537,213.41,0.220888
248.5000,0.543003,213.638,0.224081
248.4000,2.65115,213.749,0.225637
248.3000,0.384939,214.172,0.231568
248.2000,1.58639,213.908,0.227874
248.1000,1.10738,214.257,0.232756
248.0000,1.25224,214.518,0.236398
247.9000,-0.180199,214.57,0.237125
247.8000,1.09518,214.079,0.230268
247.7000,1.53157,213.445,0.221381
247.6000,1.59299,214.682,0.238691
247.5000,1.12879,214.265,0.232867
247.4000,1.90541,214.723,0.239261
247.3000,2.31299,213.949,0.228445
247.2000,1.79501,214.723,0.239261
247.1000,0.79439,214.337,0.233865
247.0000,1.28067,214.952,0.242454
246.9000,1.90531,215.146,0.245154
246.8000,0.450638,215.267,0.246843
246.7000,-0.921841,214.254,0.232708
246.6000,0.641703,214.75,0.23964
246.5000,0.820297,214.175,0.231599
246.4000,1.45508,215.073,0.244143
246.3000,1.3215,215.887,0.255464
246.2000,1.36844,215.14,0.245075
246.1000,1.6947,215.992,0.256927
246.0000,2.00439,215.631,0.251904
245.9000,0.823405,215.012,0.243291
245.8000,0.19399,215.034,0.243591
245.7000,-1.73264,215.598,0.251447
245.6000,-0.821417,214.456,0.235527
245.5000,0.0626448,216.082,0.25817
245.4000,0.142883,214.764,0.23983
245.3000,2.26441,215.93,0.256062
245.2000,0.813119,213.955,0.228524
245.1000,1.79139,215.187,0.245722
245.0000,-0.336272,215.142,0.245106
244.9000,0.579568,215.312,0.247474
244.8000,1.63178,214.051,0.229872
244.7000,2.82799,214.725,0.239292
244.6000,0.154021,215.132,0.244964
244.5000,0.359911,216.094,0.258343
244.4000,0.855076,215.934,0.256125
244.3000,1.97951,215.691,0.252739
244.2000,0.568012,215.156,0.245296
244.1000,1.15674,215.611,0.251636
244.0000,1.73918,215.914,0.255841
243.9000,0.706198,215.458,0.249508
243.8000,0.329027,215.167,0.245454
243.7000,0.831557,215.742,0.253448
243.6000,-1.18939,215.896,0.25559
243.5000,0.0452277,216.968,0.270451
243.4000,0.830299,215.904,0.2557
243.3000,0.521118,215.685,0.252661
243.2000,2.66993,216.883,0.269275
243.1000,-1.47523,215.745,0.253496
243.0000,0.447895,216.032,0.257478
242.9000,0.27474,215.119,0.244775
242.8000,0.710721,216.134,0.258894
242.7000,1.40722,216.575,0.265007
242.6000,1.51871,216.759,0.267565
242.5000,0.830686,216.589,0.265211
242.4000,1.75962,218.173,0.287093
242.3000,0.486654,216.477,0.263656
242.2000,-0.0509832,216.637,0.26587
242.1000,0.364933,216.69,0.266608
242.0000,1.34857,216.22,0.260089
241.9000,0.355516,215.231,0.246338
241.8000,0.515777,216.709,0.266875
241.7000,0.518714,217.731,0.281002
241.6000,-0.529262,216.169,0.259381
241.5000,-0.144598,217.763,0.28144
241.4000,-0.926077,216.989,0.270749
241.3000,-1.92599,217.934,0.283799
241.2000,-1.05411,216.691,0.266624
241.1000,-1.12149,217.521,0.278093
241.0000,-0.392046,218.122,0.286391
240.9000,3.6237,217.669,0.280142
240.8000,2.28755,217.457,0.277217
240.7000,-1.19357,217.488,0.277639
240.6000,0.306919,217.749,0.281252
240.5000,0.589918,217.981,0.284439
240.4000,2.3555,216.913,0.269698
240.3000,1.24393,217.276,0.274713
240.2000,1.27163,218.455,0.290977
240.1000,0.969658,217.147,0.272927
240.0000,0.0889564,217.782,0.281705
239.9000,-0.974548,217.978,0.284408
239.8000,1.79649,217.641,0.279751
239.7000,1.66614,217.992,0.284596
239.6000,1.76792,217.951,0.284033
239.5000,2.99952,218.537,0.292099
239.4000,-0.883776,218.434,0.290681
239.3000,0.0305998,219.064,0.299339
239.2000,-1.81498,218.329,0.289231
239.1000,1.04251,219.047,0.299106
239.0000,0.785878,218.893,0.29699
238.9000,1.1585,218.991,0.298344
238.8000,1.24187,218.624,0.293299
238.7000,1.03813,218.837,0.296227
238.6000,2.48195,219.696,0.308008
238.5000,-0.0350118,219.79,0.309296
238.4000,2.89371,218.81,0.295854
238.3000,2.42399,220.048,0.31283
238.2000,3.43981,219.855,0.310179
238.1000,2.16904,218.137,0.286594
238.0000,-0.359999,219.173,0.300832
237.9000,0.408687,219.766,0.308969
237.8000,2.31569,219.694,0.307977
237.7000,0.52365,219.786,0.309233
237.6000,1.39256,219.519,0.305586
237.5000,1.84027,219.102,0.299868
237.4000,0.408653,219.59,0.306549
237.3000,-0.283512,219.66,0.307511
237.2000,1.45282,220.192,0.314798
237.1000,0.626546,220.225,0.315247
237.0000,1.03962,219.783,0.309202
236.9000,2.9226,219.747,0.308706
236.8000,-1.17811,220.045,0.312784
236.7000,-0.508706,220.998,0.325793
236.6000,1.16928,221.077,0.326874
236.5000,2.04439,221.529,0.333028
236.4000,3.33642,220.086,0.313342
236.3000,-0.379424,221.39,0.331132
236.2000,1.13611,220.328,0.316656
236.1000,2.79952,221.485,0.332427
236.0000,-1.27392,221.461,0.332103
235.9000,2.45892,221.199,0.328525
235.8000,0.587236,220.677,0.32142
235.7000,2.62335,220.306,0.316346
235.6000,3.38096,221.511,0.332781
235.5000,-1.57028,221.903,0.33811
235.4000,1.9873,222.296,0.343446
235.3000,0.095386,220.63,0.320771
235.2000,1.96056,220.54,0.319549
235.1000,1.27024,221.895,0.338002
235.0000,0.563642,221.435,0.331749
234.9000,-1.30295,221.642,0.334553
234.8000,0.675441,222.087,0.340602
234.7000,2.7327,222.07,0.340371
234.6000,0.52587,220.957,0.325237
234.5000,0.681296,222.361,0.344322
234.4000,-0.523134,222.839,0.3508
234.3000,1.23945,223.394,0.358307
234.2000,2.34844,222.451,0.345535
234.1000,0.0715575,222.042,0.339987
234.0000,1.58056,223.092,0.354218
233.9000,1.05107,222.897,0.351582
233.8000,1.40944,222.715,0.349112
233.7000,1.04871,222.579,0.347271
233.6000,2.2254,221.274,0.329559
233.5000,1.24725,221.944,0.338664
233.4000,2.31387,222.89,0.35149
233.3000,0.681271,222.355,0.344245
233.2000,0.94992,223.546,0.360357
233.1000,2.66988,222.966,0.352517
233.0000,2.94813,223.78,0.363506
232.9000,0.797095,223.699,0.362421
232.8000,1.561,223.266,0.356577
232.7000,1.27658,222.391,0.344721
232.6000,4.00737,223.917,0.365355
232.5000,0.320289,224.15,0.3685
232.4000,1.92057,223.202,0.355704
232.3000,-1.31555,222.505,0.346273
232.2000,0.425053,224.994,0.379853
232.1000,1.41607,223.922,0.365432
232.0000,0.123751,225.029,0.380325
231.9000,1.31349,224.488,0.373046
231.8000,2.49592,224.489,0.373061
231.7000,1.38115,223.875,0.36479
231.6000,0.587516,225.207,0.382712
231.5000,0.334367,224.432,0.372299
231.4000,-0.220887,224.47,0.372802
231.3000,2.24592,225.557,0.387407
231.2000,1.87873,224.847,0.377875
231.1000,3.2008,224.027,0.366836
231.0000,2.58673,224.909,0.378712
230.9000,0.0631018,225.451,0.38598
230.8000,-1.03405,224.739,0.376428
230.7000,0.942847,224.555,0.373945
230.6000,1.34206,223.662,0.361917
230.5000,0.143079,223.971,0.366088
230.4000,1.07231,223.635,0.36155
230.3000,2.66261,224.097,0.367783
230.2000,2.8345,224.867,0.378149
230.1000,0.522203,224.688,0.375743
230.0000,0.609303,225.738,0.38982
229.9000,-0.379342,225.245,0.383214
229.8000,-0.925928,225.952,0.392687
229.7000,1.65653,225.108,0.381374
229.6000,0.235499,224.322,0.37082
229.5000,1.69388,225.938,0.392505
229.4000,1.5585,224.98,0.379655
229.3000,1.51673,224.811,0.377388
229.2000,0.894051,225.025,0.380264
229.1000,2.00594,225.999,0.393324
229.0000,2.70465,226.765,0.403557
228.9000,1.93519,225.65,0.388652
228.8000,2.13898,226.338,0.397853
228.7000,0.579068,226.983,0.406458
228.6000,1.07087,225.927,0.392354
228.5000,1.98866,226.939,0.405869
228.4000,0.893149,227.486,0.413159
228.3000,0.0914085,227.237,0.40984
228.2000,2.0667,228.19,0.42251
228.1000,1.40787,227.435,0.41248
228.0000,0.210611,226.475,0.399685
227.9000,-1.30825,228.366,0.424855
227.8000,0.572102,227.248,0.409991
227.7000,1.20059,227.736,0.416489
227.6000,0.602015,227.255,0.410082
227.5000,2.4314,227.164,0.408874
227.4000,-0.583895,229.445,0.439135
227.3000,2.80481,228.566,0.427499
227.2000,2.64397,228.894,0.431852
227.1000,0.972746,228.113,0.421487
227.0000,-0.465009,228.063,0.420825
226.9000,2.71157,229.114,0.434761
226.8000,1.82455,228.233,0.423081
226.7000,1.31905,228.784,0.430396
226.6000,0.744916,229.846,0.444431
226.5000,2.31949,229.167,0.435465
226.4000,-0.446021,229.291,0.437098
226.3000,1.64486,229.868,0.444715
226.2000,1.16827,228.339,0.424494
226.1000,1.75657,229.698,0.442472
226.0000,0.0542946,230.657,0.455119
225.9000,3.08943,231.192,0.462148
225.8000,0.0665178,230.154,0.448495
225.7000,1.54949,229.821,0.444102
225.6000,0.10601,230.492,0.452942
225.5000,1.11177,231.24,0.462773
225.4000,2.35526,230.621,0.454642
225.3000,1.16436,230.476,0.452733
225.2000,0.996644,230.15,0.448435
225.1000,1.08965,230.602,0.454388
225.0000,0.81991,230.874,0.457965
224.9000,2.58476,231.427,0.465226
224.8000,2.0539,230.481,0.452793
224.7000,1.36541,230.441,0.452271
224.6000,1.72719,231.863,0.470945
224.5000,-0.549522,232.381,0.477721
224.4000,0.522362,231.932,0.47185
224.3000,1.16786,231.766,0.469668
224.2000,1.59169,231.42,0.465137
224.1000,3.05238,232.185,0.475157
224.0000,0.985015,232.462,0.478787
223.9000,2.21705,232.186,0.475172
223.8000,-0.339778,231.744,0.469386
223.7000,0.580302,232.985,0.485609
223.6000,0.431857,232.405,0.478032
223.5000,0.394235,232.13,0.474446
223.4000,2.08259,232.724,0.482207
223.3000,1.81209,231.956,0.472161
223.2000,1.92578,232.145,0.474638
223.1000,2.90124,233.225,0.488741
223.0000,3.14401,231.764,0.469653
222.9000,-0.355179,232.355,0.47738
222.8000,3.59073,233.344,0.490292
222.7000,1.5125,233.488,0.492166
222.6000,0.806924,233.178,0.488136
222.5000,1.56964,233.542,0.492875
222.4000,0.065746,233.778,0.495942
222.3000,1.45814,233.599,0.493612
222.2000,1.85393,233.469,0.491916
222.1000,1.78988,234.467,0.504894
222.0000,2.22301,234.757,0.508657
221.9000,1.43606,234.343,0.503291
221.8000,2.80502,233.376,0.490705
221.7000,2.08222,234.947,0.511124
221.6000,1.43065,233.711,0.495072
221.5000,1.84766,234.506,0.505409
221.4000,3.58683,232.768,0.482784
221.3000,-0.872086,234.809,0.509332
221.2000,0.818662,234.529,0.505703
221.1000,3.95562,234.821,0.509494
221.0000,3.38629,233.796,0.496178
220.9000,4.71675,234.105,0.5002
220.8000,0.171323,234.679,0.507643
220.7000,2.08765,235.304,0.515745
220.6000,-0.498362,236.087,0.525863
220.5000,3.50195,235.766,0.521723
220.4000,-1.10518,235.172,0.51403
220.3000,4.62092,234.709,0.50804
220.2000,0.0722307,236.201,0.52734
220.1000,-0.628265,235.848,0.522777
220.0000,1.46067,234.978,0.51152
219.9000,0.190139,236.697,0.533721
219.8000,1.1767,235.493,0.518193
219.7000,0.669318,236.056,0.525468
219.6000,1.61145,235.651,0.520229
219.5000,1.45829,236.114,0.526214
219.4000,0.640402,236.042,0.525278
219.3000,0.516391,236.825,0.53537
219.2000,0.0959063,236.516,0.531401
219.1000,1.48738,237.852,0.548574
219.0000,1.03351,236.768,0.53464
218.9000,-0.235293,236.723,0.534057
218.8000,0.808316,236.57,0.532087
218.7000,-0.347678,237.148,0.539524
218.6000,1.33274,237.539,0.544546
218.5000,0.482181,237.95,0.549824
218.4000,1.73049,238.26,0.553802
218.3000,2.21848,236.311,0.528757
218.2000,3.48183,236.754,0.534465
218.1000,2.52538,236.96,0.537105
218.0000,2.51799,237.695,0.546554
217.9000,2.86977,238.566,0.557718
217.8000,0.383594,238.054,0.55116
217.7000,2.17199,239.344,0.567649
217.6000,1.91692,238.127,0.552089
217.5000,2.19283,238.26,0.553802
217.4000,0.681454,238.949,0.562615
217.3000,2.48422,238.445,0.556167
217.2000,-1.35978,239.043,0.563816
217.1000,1.50315,239.21,0.565943
217.0000,0.871285,239.209,0.565928
216.9000,3.91168,239.141,0.565061
216.8000,0.464293,239.683,0.571984
216.7000,3.03027,238.828,0.561065
216.6000,3.4646,240.156,0.578001
216.5000,0.0686322,239.149,0.565162
216.4000,1.79588,239.996,0.575967
216.3000,2.03782,239.704,0.572244
216.2000,4.59795,239.998,0.575996
216.1000,0.401215,239.788,0.573312
216.0000,1.04104,240.504,0.582424
215.9000,2.66847,240.167,0.578145
215.8000,0.489436,239.603,0.570959
215.7000,4.26427,239.848,0.574077
215.6000,2.04619,240.066,0.576862
215.5000,0.412808,240.762,0.585706
215.4000,2.1936,240.228,0.578923
215.3000,0.489417,240.816,0.586396
215.2000,2.14496,240.981,0.588482
215.1000,1.24468,239.865,0.574294
215.0000,1.68582,241.244,0.591815
214.9000,5.85133,241.454,0.594486
214.8000,1.41824,241.66,0.597083
214.7000,2.37566,240.478,0.582093
214.6000,2.56778,241.182,0.59104
214.5000,0.476957,241.181,0.591025
214.4000,3.23238,241.431,0.594184
214.3000,1.25207,240.678,0.584641
214.2000,2.87431,241.797,0.598818
214.1000,4.47533,242.262,0.604705
214.0000,1.27599,241.744,0.598158
213.9000,0.0696561,241.867,0.599707
213.8000,4.28536,242.087,0.602486
213.7000,5.10234,242.98,0.613755
213.6000,1.31078,241.594,0.596251
213.5000,1.20499,242.261,0.604691
213.4000,2.34363,242.329,0.60555
213.3000,0.394689,242.889,0.612612
213.2000,2.67628,242.774,0.611169
213.1000,1.98411,242.964,0.613555
213.0000,1.05069,242.795,0.611426
212.9000,1.27344,243.188,0.616381
212.8000,2.01527,242.649,0.609583
212.7000,0.943179,241.956,0.600839
212.6000,1.12844,243.492,0.620203
212.5000,2.79212,244.051,0.627237
212.4000,-0.861997,242.992,0.613912
212.3000,4.38451,245.342,0.643406
212.2000,3.02388,244.101,0.627863
212.1000,-0.221223,242.861,0.612255
212.0000,3.97542,243.583,0.621357
211.9000,0.24597,244.347,0.630948
211.8000,1.8132,244.413,0.631773
211.7000,2.07728,245.208,0.641734
211.6000,1.14705,245.779,0.648869
211.5000,-1.19332,243.948,0.625942
211.4000,2.29346,245.512,0.64553
211.3000,1.69635,244.528,0.633222
211.2000,-1.47409,245.02,0.639381
211.1000,4.22318,244.388,0.63146
211.0000,0.202468,246.165,0.653675
210.9000,-0.934587,245.462,0.644907
210.8000,0.523349,245.065,0.639948
210.7000,1.36968,245.768,0.648728
210.6000,3.3723,246.695,0.66028
210.5000,-1.78873,246.057,0.652333
210.4000,-0.0388561,246.098,0.652841
210.3000,1.08082,246.758,0.661069
210.2000,-0.0993828,245.395,0.644071
210.1000,-0.823207,247.401,0.669053
210.0000,-1.20143,245.672,0.647525
209.9000,2.62208,246.534,0.658277
209.8000,3.55351,246.24,0.654621
209.7000,1.60756,246.388,0.656456
209.6000,0.614583,246.713,0.660505
209.5000,0.182068,247.69,0.672639
209.4000,3.13592,247.5,0.670291
209.3000,2.91954,247.324,0.668097
209.2000,-0.770201,247.754,0.67344
209.1000,-0.330394,247.936,0.675687
209.0000,0.223372,248.232,0.679364
208.9000,2.25053,248.066,0.677302
208.8000,0.914409,248.236,0.679406
208.7000,2.11172,247.914,0.67542
208.6000,-2.32683,247.079,0.665056
208.5000,1.19484,249.376,0.693491
208.4000,5.15122,249.005,0.688919
208.3000,1.46328,248.241,0.679476
208.2000,2.01567,248.748,0.685741
208.1000,4.76784,249.19,0.691199
208.0000,3.19941,249.359,0.693282
207.9000,2.60932,248.834,0.686805
207.8000,0.486884,250.86,0.711753
207.7000,0.327309,249.208,0.691422
207.6000,-0.829769,250.104,0.702466
207.5000,-0.324476,251.933,0.724899
207.4000,0.662566,250.186,0.70347
207.3000,0.684502,249.798,0.6987
207.2000,0.197851,249.508,0.695126
207.1000,3.13537,250.947,0.712823
207.0000,0.526616,251.31,0.717269
206.9000,1.22883,250.749,0.71039
206.8000,0.786088,250.499,0.707314
206.7000,1.1457,252.171,0.727807
206.6000,-1.02764,251.167,0.715519
206.5000,1.941,251.78,0.723027
206.4000,1.51956,252.219,0.728389
206.3000,-0.892964,252.011,0.725855
206.2000,1.65371,251.791,0.723166
206.1000,2.8707,252.595,0.732982
206.0000,1.12384,252.726,0.734586
205.9000,-1.11779,251.72,0.722293
205.8000,3.13167,252.974,0.737611
205.7000,2.64915,252.487,0.731668
205.6000,2.17914,253.169,0.739986
205.5000,1.22839,253.704,0.746494
205.4000,3.35524,253.489,0.743876
205.3000,1.06859,252.927,0.737031
205.2000,3.43714,253.996,0.750047
205.1000,-0.0408492,253.906,0.748945
205.0000,3.33633,253.636,0.745667
204.9000,0.259226,254.545,0.756702
204.8000,2.31441,255.095,0.763373
204.7000,2.30108,254.222,0.752785
204.6000,2.34813,255.157,0.764114
204.5000,1.68474,254.408,0.75504
204.4000,0.866548,255.38,0.766814
204.3000,1.07678,255.774,0.771579
204.2000,1.95145,255.404,0.767102
204.1000,1.24639,255.687,0.770526
204.0000,-0.0602291,255.069,0.763058
203.9000,1.01609,256.109,0.775628
203.8000,3.06463,257.705,0.794825
203.7000,1.19482,256.037,0.774753
203.6000,-0.953363,257.253,0.789395
203.5000,2.29812,257.144,0.788087
203.4000,0.469621,257.758,0.795464
203.3000,2.34096,257.8,0.795967
203.2000,1.90691,258.117,0.799772
203.1000,3.29912,257.85,0.796565
203.0000,3.25972,258.363,0.802718
202.9000,4.03693,257.926,0.797476
202.8000,0.449068,258.158,0.800261
202.7000,2.56375,257.861,0.796701
202.6000,7.12557,257.427,0.791492
202.5000,1.12963,257.951,0.797775
202.4000,0.151192,258.496,0.804305
202.3000,1.4079,259.65,0.818102
202.2000,-0.312452,258.601,0.805566
202.1000,-0.518889,259.597,0.817467
202.0000,-0.619472,259.814,0.820047
201.9000,-0.87701,260.76,0.831309
201.8000,0.180701,260.788,0.831646
201.7000,1.30219,261.521,0.840348
201.6000,-0.81164,260.479,0.827968
201.5000,0.367896,261.283,0.837526
201.4000,0.285532,261.427,0.839233
201.3000,-1.1814,263.258,0.860887
201.2000,4.01404,262.62,0.853357
201.1000,3.37227,261.956,0.845503
201.0000,0.876236,262.747,0.854856
200.9000,2.58561,263.009,0.857946
200.8000,3.74511,262.817,0.855686
200.7000,-0.0522446,264.388,0.874184
200.6000,1.71822,263.921,0.868695
200.5000,3.34111,264.668,0.877471
200.4000,-1.82335,262.746,0.854843
200.3000,-0.0619827,264.704,0.877896
200.2000,-2.73953,264.827,0.879346
200.1000,1.18925,264.098,0.870774
200.0000,3.12321,265.167,0.883332
199.9000,1.25442,264.764,0.878601
199.8000,0.901146,265.785,0.890564
199.7000,5.94431,265.712,0.889715
199.6000,0.433254,266.084,0.894061
199.5000,4.48001,265.805,0.890802
199.4000,5.38064,266.39,0.897635
199.3000,3.91808,265.983,0.892883
199.2000,0.572829,266.176,0.895134
199.1000,1.43897,267.095,0.905855
199.0000,1.18845,265.21,0.883837
198.9000,2.21993,266.175,0.895121
198.8000,4.45555,267.411,0.909537
198.7000,2.17046,267.074,0.905618
198.6000,0.298621,266.38,0.897516
198.5000,2.77664,266.68,0.901021
198.4000,-1.28235,267.343,0.908746
198.3000,-0.21954,267.553,0.911198
198.2000,2.46732,267.859,0.914756
198.1000,1.61663,266.46,0.898455
198.0000,5.15084,266.622,0.900347
197.9000,2.08567,267.919,0.915454
197.8000,4.01767,267.422,0.909669
197.7000,1.05363,267.424,0.909695
197.6000,1.7754,268.527,0.922505
197.5000,-0.00915314,267.946,0.915757
197.4000,2.93593,268.321,0.920112
197.3000,4.52443,268.7,0.924516
197.2000,6.29802,268.287,0.919718
197.1000,1.24897,267.987,0.916244
197.0000,3.34355,269.804,0.937288
196.9000,-4.11335,268.435,0.92144
196.8000,4.73674,269.778,0.936987
196.7000,-4.72773,269.533,0.934158
196.6000,4.75292,269.175,0.930016
196.5000,-3.44485,269.286,0.931301
196.4000,1.05797,269.409,0.93273
196.3000,2.56945,269.504,0.933817
196.2000,-0.113866,270.18,0.941632
196.1000,1.81334,269.881,0.938178
196.0000,-0.283472,270.419,0.94439
195.9000,-0.943494,269.926,0.938702
195.8000,-1.22539,269.024,0.92827
195.7000,-1.70011,270.317,0.943214
195.6000,4.27797,270.254,0.942482
195.5000,1.51834,270.523,0.945592
195.4000,5.25254,270.557,0.945984
195.3000,1.30827,270.144,0.941213
195.2000,3.04005,272.374,0.966862
195.1000,2.41226,270.748,0.948177
195.0000,3.99725,271.534,0.957225
194.9000,5.17616,271.069,0.951883
194.8000,0.356776,271.604,0.958033
194.7000,1.99777,271.443,0.956184
194.6000,1.21386,271.234,0.953773
194.5000,0.983286,271.099,0.952222
194.4000,3.03571,270.262,0.942573
194.3000,2.32863,270.629,0.946806
194.2000,-0.137774,271.078,0.951987
194.1000,-5.22088,271.083,0.952039
194.0000,4.34295,271.935,0.961832
193.9000,3.1236,270.132,0.941083
193.8000,6.00176,270.479,0.945082
193.7000,2.48997,271.116,0.952417
193.6000,3.35206,271.659,0.958658
193.5000,2.42516,270.645,0.946989
193.4000,3.71134,271.535,0.957238
193.3000,1.34759,270.975,0.9508
193.2000,1.43183,270.714,0.947786
193.1000,5.1596,271.186,0.953226
193.0000,-1.12588,269.777,0.936974
192.9000,1.42369,272.587,0.969303
192.8000,1.04405,271.214,0.953552
192.7000,5.77757,271.596,0.957942
192.6000,0.0533469,271.753,0.959738
192.5000,1.64353,271.221,0.95363
192.4000,0.117598,271.259,0.95406
192.3000,1.40781,270.691,0.947525
192.2000,4.45296,272.312,0.966161
192.1000,2.42393,271.744,0.959634
192.0000,1.27066,271.722,0.959386
191.9000,4.87691,271.467,0.956457
191.8000,0.0792594,271.068,0.95187
191.7000,-0.715079,271.793,0.960206
191.6000,0.445669,271.591,0.957876
191.5000,1.89127,271.116,0.952417
191.4000,2.87238,271.075,0.951948
191.3000,0.524912,272.252,0.965472
191.2000,0.327729,271.832,0.960649
191.1000,2.00785,271.763,0.959855
191.0000,1.07858,272.042,0.963055
190.9000,2.3463,270.58,0.946245
190.8000,3.78721,271.337,0.954959
190.7000,3.54585,272.371,0.966836
190.6000,4.74552,272.328,0.966343
190.5000,2.79775,271.321,0.954776
190.4000,3.97155,272.834,0.972132
190.3000,1.42296,271.951,0.962015
190.2000,1.30086,271.809,0.960389
190.1000,1.29573,272.885,0.972716
190.0000,-0.243953,271.85,0.960857

##### Extended Information
[Comments]
Sample name,ECTC_BUFFER_928
Comment,BUFFER
User,TRICIACHESELDINE
Division
Company,Saint Mary's College

[Detailed Information]
Creation date,9/28/2022 4:12 PM

Data array type,Linear data array * 3
Horizontal axis,Wavelength [nm]
Vertical axis(1),CD [mdeg]
Vertical axis(2),HT [V]
Vertical axis(3),Abs
Start,320 nm
End,190 nm
Data interval,0.1 nm
Data points,1301    

[Measurement Information]
Instrument name,J-1500
Model name,J-1500
Serial No.,B051061638

Detector,PM-539
Detector S/N,B051061638
  Lock-in amp.,X mode
  HT volt,Auto

Accessory,PTC-517
Accessory S/N,B026561646
  Temperature,22.91 C
  Control sensor,Holder
  Monitor sensor,Holder

Measurement date,9/28/2022 4:12 PM

Photometric mode,CD, HT, Abs
Measure range,320 - 190 nm
Data pitch,0.1 nm
CD scale,20 mdeg/0.05 dOD
FL scale,20 mdeg/0.05 dOD
D.I.T.,8 msec
Bandwidth,2.00 nm
Start mode,Immediately
Scanning mode,Continuous
Scanning speed,200 nm/min
Baseline correction,None
Shutter control,Auto
No. of cycle,1/1
N2 Flowmeter,Manual

Solvent,NaPO4 buffer

