TITLE,ECTC_PROTEIN_928
DATA TYPE,
ORIGIN,JASCO
OWNER,
DATE,22/09/28
TIME,17:39:45
SPECTROMETER/DATA SYSTEM,
LOCALE,1033
RESOLUTION,
DELTAX,-0.1
XUNITS,NANOMETERS
YUNITS,CD [mdeg]
Y2UNITS,HT [V]
Y3UNITS,ABSORBANCE
FIRSTX,  320.0000
LASTX,  190.0000
NPOINTS,    1301
FIRSTY,     1.65197
MAXY,    14.74682
MINY,    -7.51035
XYDATA
320.0000,1.65197,208.891,0.15695
319.9000,2.47039,207.596,0.138415
319.8000,1.06723,208.997,0.158454
319.7000,2.91109,209.088,0.159763
319.6000,0.220927,208.427,0.150312
319.5000,1.34841,207.955,0.143565
319.4000,0.889031,208.144,0.146275
319.3000,0.108788,207.656,0.139277
319.2000,1.75073,208.275,0.14814
319.1000,1.9491,208.722,0.154539
319.0000,0.725726,208.003,0.144247
318.9000,1.60057,208.002,0.144231
318.8000,1.21499,208.132,0.146097
318.7000,-0.093109,208.19,0.146924
318.6000,1.33252,208.803,0.155688
318.5000,2.85505,208.354,0.149275
318.4000,2.06354,208.481,0.15109
318.3000,1.37406,208.526,0.151738
318.2000,1.90729,208.278,0.148189
318.1000,1.99447,208.228,0.147476
318.0000,1.99804,208.27,0.148075
317.9000,1.5183,208.138,0.146178
317.8000,0.187043,207.662,0.139358
317.7000,0.987075,208.174,0.146697
317.6000,1.9932,207.73,0.140333
317.5000,1.78734,208.266,0.14801
317.4000,1.4132,208.161,0.146519
317.3000,1.76802,207.969,0.14376
317.2000,2.895,208.215,0.147281
317.1000,2.01899,208.503,0.151398
317.0000,0.268982,207.944,0.143403
316.9000,3.07374,208.367,0.149453
316.8000,2.52488,208.888,0.156901
316.7000,2.35245,207.626,0.138838
316.6000,2.4828,208.2,0.14707
316.5000,0.519276,207.338,0.134707
316.4000,0.490569,207.686,0.139699
316.3000,2.19809,207.852,0.142087
316.2000,0.534167,208.071,0.145221
316.1000,1.66311,208.22,0.147362
316.0000,2.06955,208.036,0.144718
315.9000,1.4419,207.29,0.134023
315.8000,1.24237,207.823,0.141665
315.7000,0.874422,207.64,0.139049
315.6000,1.1372,208.047,0.14488
315.5000,3.28236,207.649,0.139179
315.4000,2.15256,208.379,0.149632
315.3000,2.12191,208.284,0.14827
315.2000,1.76873,207.973,0.143825
315.1000,1.93375,208.328,0.148902
315.0000,2.20794,208.365,0.149437
314.9000,0.796535,207.857,0.142152
314.8000,0.343391,207.582,0.13822
314.7000,0.343748,207.934,0.143257
314.6000,1.86623,207.511,0.137195
314.5000,-1.41633,207.452,0.13635
314.4000,0.775674,207.986,0.144003
314.3000,0.847715,207.802,0.141373
314.2000,2.00852,207.946,0.143435
314.1000,1.79862,207.232,0.133193
314.0000,2.69296,207.17,0.132297
313.9000,0.849683,207.171,0.132313
313.8000,1.48073,206.968,0.129397
313.7000,1.11095,207.937,0.143305
313.6000,0.42006,207.815,0.141551
313.5000,1.40517,207.249,0.133437
313.4000,1.16373,207.69,0.139764
313.3000,-0.381453,207.808,0.141454
313.2000,1.00454,206.831,0.127424
313.1000,1.62235,208.341,0.149081
313.0000,0.902775,207.667,0.139439
312.9000,1.79513,207.239,0.13329
312.8000,-0.38241,207.374,0.135227
312.7000,-0.132378,206.711,0.125696
312.6000,0.414629,207.458,0.136431
312.5000,0.850275,207.941,0.143354
312.4000,0.618993,208.147,0.146308
312.3000,1.01338,207.107,0.131385
312.2000,0.617065,207.481,0.136756
312.1000,1.37327,207.149,0.131988
312.0000,-0.128387,207.842,0.141941
311.9000,0.929507,207.829,0.141762
311.8000,0.705546,207.653,0.139228
311.7000,0.6937,207.707,0.140008
311.6000,1.02797,207.751,0.140642
311.5000,1.43797,207.205,0.132802
311.4000,0.994706,207.002,0.129886
311.3000,1.59367,207.145,0.131939
311.2000,2.66227,207.675,0.139553
311.1000,2.28405,207.671,0.139488
311.0000,1.89222,207.084,0.131059
310.9000,2.85314,207.264,0.133649
310.8000,1.68799,207.228,0.133127
310.7000,0.870518,208.3,0.148497
310.6000,-0.302576,208.176,0.14673
310.5000,0.493208,207.701,0.139927
310.4000,2.19368,207.935,0.143273
310.3000,0.252515,207.413,0.13578
310.2000,0.756919,208.403,0.149972
310.1000,1.0557,208.096,0.145577
310.0000,0.0753738,208.241,0.147654
309.9000,1.49382,206.923,0.128745
309.8000,0.641213,207.626,0.138838
309.7000,-0.409938,207.456,0.136398
309.6000,1.00827,207.746,0.140561
309.5000,1.57337,206.996,0.129788
309.4000,2.83775,206.673,0.125141
309.3000,0.574951,207.159,0.132134
309.2000,2.53972,207.936,0.143289
309.1000,1.24144,207.487,0.136854
309.0000,1.75428,208.117,0.145886
308.9000,1.98484,207.841,0.141925
308.8000,2.94202,207.042,0.130456
308.7000,1.23676,208.117,0.145886
308.6000,-0.130309,207.799,0.141324
308.5000,1.84503,207.427,0.135992
308.4000,1.35167,208.027,0.144588
308.3000,1.18712,208.024,0.144555
308.2000,1.65858,207.552,0.137781
308.1000,1.20418,207.863,0.14225
308.0000,1.97535,207.805,0.141405
307.9000,1.29634,207.117,0.131532
307.8000,0.832523,207.495,0.136968
307.7000,0.182204,207.627,0.138854
307.6000,0.944225,207.51,0.137179
307.5000,2.03273,207.428,0.136008
307.4000,0.463113,207.478,0.136724
307.3000,0.731881,207.545,0.137683
307.2000,1.58577,208.235,0.147573
307.1000,1.60279,207.842,0.141941
307.0000,2.03578,206.88,0.128126
306.9000,2.402,207.264,0.133649
306.8000,3.07767,206.949,0.12912
306.7000,1.69416,207.393,0.135504
306.6000,1.1078,207.507,0.13713
306.5000,0.876678,207.039,0.130408
306.4000,0.66771,206.942,0.129022
306.3000,1.56556,207.29,0.134023
306.2000,0.772335,207.952,0.143516
306.1000,1.53887,207.962,0.143663
306.0000,2.46463,207.563,0.137943
305.9000,2.40529,206.632,0.124553
305.8000,1.1894,207.337,0.13469
305.7000,1.06966,207.689,0.139748
305.6000,0.699224,206.891,0.128289
305.5000,1.63515,206.869,0.127963
305.4000,1.84938,208.01,0.144344
305.3000,2.98383,207.536,0.137553
305.2000,-0.0109221,208.219,0.147346
305.1000,1.96121,207.142,0.13189
305.0000,1.14847,207.466,0.136545
304.9000,2.43871,206.87,0.127979
304.8000,2.35845,207.857,0.142152
304.7000,0.824188,207.542,0.137635
304.6000,-0.556645,207.542,0.137635
304.5000,-1.06941,207.24,0.133306
304.4000,1.51674,207.168,0.132265
304.3000,0.470864,207.594,0.138383
304.2000,0.218748,207.939,0.143338
304.1000,1.69994,207.615,0.138692
304.0000,2.30662,206.741,0.12612
303.9000,0.454553,207.667,0.139439
303.8000,1.21632,207.112,0.131466
303.7000,1.65686,207.206,0.132818
303.6000,1.67377,207.478,0.136724
303.5000,1.52409,207.109,0.131417
303.4000,2.1004,207.172,0.132329
303.3000,1.29288,208.01,0.144344
303.2000,2.08898,207.286,0.133958
303.1000,1.88847,207.733,0.140382
303.0000,1.82269,207.638,0.139017
302.9000,0.824057,207.177,0.132395
302.8000,0.865726,207.789,0.141178
302.7000,0.585875,207.359,0.135015
302.6000,2.15324,207.524,0.137374
302.5000,0.0841872,207.368,0.135146
302.4000,2.60687,207.154,0.132069
302.3000,1.43648,207.219,0.132997
302.2000,2.38772,206.58,0.123803
302.1000,1.55221,207.469,0.136594
302.0000,3.02756,207.524,0.137374
301.9000,1.50285,207.265,0.133665
301.8000,1.2489,207.051,0.130587
301.7000,0.219531,207.785,0.141129
301.6000,0.993222,207.037,0.130391
301.5000,-0.222409,207.379,0.135292
301.4000,1.301,206.605,0.124162
301.3000,-0.660054,206.941,0.129006
301.2000,2.06047,207.292,0.134056
301.1000,2.145,207.434,0.13609
301.0000,0.261428,207.522,0.137358
300.9000,1.82343,207.305,0.134234
300.8000,2.10799,207.772,0.140934
300.7000,0.369488,206.568,0.123639
300.6000,-1.04718,206.836,0.12749
300.5000,2.08473,207.927,0.143159
300.4000,2.10569,207.779,0.141031
300.3000,1.79566,207.135,0.131792
300.2000,1.45256,208.035,0.144701
300.1000,0.462897,206.988,0.129674
300.0000,1.50815,207.179,0.132427
299.9000,1.52323,206.497,0.122611
299.8000,1.22232,207.309,0.1343
299.7000,2.45347,207.581,0.138204
299.6000,1.52016,206.881,0.128142
299.5000,1.69301,207.239,0.13329
299.4000,0.925238,207.217,0.132965
299.3000,3.10771,207.341,0.134755
299.2000,1.84924,207.696,0.139846
299.1000,2.01571,207.34,0.134739
299.0000,2.84308,207.542,0.137635
298.9000,1.47239,206.956,0.129218
298.8000,-0.760807,207.203,0.132769
298.7000,1.63472,206.915,0.128631
298.6000,1.11669,206.281,0.119491
298.5000,1.02173,207.27,0.13373
298.4000,0.406763,207.058,0.130684
298.3000,1.37745,206.968,0.129397
298.2000,1.20246,206.871,0.127995
298.1000,1.78293,206.875,0.12806
298.0000,0.304346,206.863,0.127881
297.9000,0.459441,206.913,0.128599
297.8000,0.860423,206.418,0.121467
297.7000,2.96698,206.743,0.126152
297.6000,1.18233,207.432,0.136057
297.5000,1.44221,206.448,0.121909
297.4000,1.75214,206.512,0.122823
297.3000,1.78034,206.666,0.125043
297.2000,1.61586,206.596,0.124031
297.1000,0.1056,207.683,0.139667
297.0000,-0.14468,207.158,0.132118
296.9000,1.00085,206.41,0.121353
296.8000,0.796946,206.57,0.123656
296.7000,-0.20858,206.257,0.119147
296.6000,1.1541,207.471,0.136626
296.5000,0.975352,206.46,0.122072
296.4000,1.11634,207.154,0.132069
296.3000,0.522004,206.902,0.128436
296.2000,0.164074,206.359,0.120618
296.1000,1.18416,206.695,0.125467
296.0000,2.24472,207.153,0.132053
295.9000,1.16861,206.882,0.128158
295.8000,2.19531,207.152,0.132037
295.7000,3.94857,206.309,0.119899
295.6000,2.21725,206.372,0.120814
295.5000,1.06883,206.258,0.119164
295.4000,0.878046,207.491,0.136903
295.3000,3.65689,207.365,0.135097
295.2000,1.19754,206.817,0.127213
295.1000,2.14976,207.657,0.139293
295.0000,0.880454,206.817,0.127213
294.9000,1.14211,206.581,0.123819
294.8000,0.603891,207.019,0.13013
294.7000,1.42592,206.023,0.115779
294.6000,1.41272,206.091,0.11676
294.5000,0.616333,206.584,0.123868
294.4000,2.81426,206.014,0.115648
294.3000,1.08797,206.513,0.122839
294.2000,1.42263,206.034,0.115926
294.1000,1.89298,207.146,0.131955
294.0000,1.48957,207.117,0.131532
293.9000,1.12272,207.55,0.137748
293.8000,1.26037,206.601,0.124113
293.7000,0.847695,206.817,0.127213
293.6000,1.12845,206.327,0.12016
293.5000,0.355768,206.397,0.121174
293.4000,2.35373,207.093,0.131189
293.3000,1.00855,206.575,0.123737
293.2000,0.240662,207.111,0.13145
293.1000,0.727926,207.111,0.13145
293.0000,1.90337,206.192,0.118215
292.9000,0.474819,206.415,0.121435
292.8000,0.287751,206.554,0.123427
292.7000,1.23344,206.326,0.120144
292.6000,1.89901,206.478,0.122333
292.5000,4.40612,206.885,0.128191
292.4000,2.81714,206.167,0.117856
292.3000,0.232339,207.194,0.132639
292.2000,1.42669,206.412,0.121386
292.1000,0.824849,205.985,0.115223
292.0000,0.86586,205.375,0.106409
291.9000,1.07552,206.221,0.118624
291.8000,1.63194,205.261,0.104752
291.7000,0.391902,205.409,0.106901
291.6000,0.616524,205.816,0.112784
291.5000,0.0409712,206.112,0.117055
291.4000,-0.00263998,205.974,0.115059
291.3000,0.776238,206.392,0.121092
291.2000,0.564794,206.613,0.124276
291.1000,1.61188,206.088,0.116711
291.0000,1.59932,205.664,0.110589
290.9000,0.684899,206.554,0.123427
290.8000,1.23529,206.319,0.120046
290.7000,0.734839,206.261,0.119213
290.6000,1.83581,205.797,0.112506
290.5000,1.89886,206.247,0.119
290.4000,2.5038,206.624,0.124439
290.3000,-0.893381,205.841,0.113144
290.2000,0.717271,204.924,0.0998752
290.1000,-0.15423,205.514,0.10841
290.0000,1.15149,205.693,0.110999
289.9000,0.966324,206.787,0.126788
289.8000,0.250734,206.6,0.124096
289.7000,1.04842,206.695,0.125467
289.6000,1.01512,207.764,0.14082
289.5000,1.86764,205.879,0.1137
289.4000,2.01254,206.014,0.115648
289.3000,1.21291,206.621,0.12439
289.2000,0.7356,206.636,0.124619
289.1000,1.91545,206.055,0.116237
289.0000,1.56168,207.247,0.133404
288.9000,1.65624,207.023,0.130179
288.8000,1.17882,206.755,0.126332
288.7000,2.05796,206.216,0.118559
288.6000,1.52174,206.047,0.116122
288.5000,2.14788,206.571,0.123672
288.4000,2.20166,206.695,0.125467
288.3000,1.88521,206.755,0.126332
288.2000,0.705739,206.471,0.122235
288.1000,0.652594,206.073,0.116498
288.0000,1.351,206.325,0.120128
287.9000,1.01771,206.584,0.123868
287.8000,0.556301,206.643,0.124716
287.7000,2.73257,206.292,0.119654
287.6000,1.09072,206.281,0.119491
287.5000,1.08792,206.286,0.119572
287.4000,2.53131,206.218,0.118592
287.3000,0.93613,207.227,0.133111
287.2000,0.444176,206.474,0.122284
287.1000,1.11869,206.366,0.120716
287.0000,2.60278,206.564,0.123574
286.9000,1.46212,206.982,0.129593
286.8000,1.93497,206.651,0.124831
286.7000,0.51893,206.372,0.120814
286.6000,0.899955,205.972,0.115043
286.5000,-0.33699,206.622,0.124406
286.4000,2.31152,206.137,0.117415
286.3000,1.30077,206.235,0.118837
286.2000,1.49037,205.259,0.104719
286.1000,-0.688608,206.463,0.122121
286.0000,1.64965,206.038,0.115991
285.9000,1.5451,205.254,0.104654
285.8000,0.608781,206.539,0.123215
285.7000,0.310129,206.86,0.127832
285.6000,2.42194,205.975,0.115075
285.5000,1.54377,207.375,0.135243
285.4000,2.14417,205.974,0.115059
285.3000,0.195611,206.1,0.116891
285.2000,-0.450297,206.657,0.124912
285.1000,2.38366,206.223,0.118657
285.0000,2.12797,206.82,0.127261
284.9000,1.05406,206.387,0.121027
284.8000,0.288302,206.625,0.124455
284.7000,1.20003,206.778,0.126658
284.6000,1.37514,206.284,0.11954
284.5000,1.92043,206.533,0.123133
284.4000,0.557311,206.187,0.118134
284.3000,2.07817,205.867,0.11352
284.2000,0.579302,206.622,0.124406
284.1000,-0.536237,206.46,0.122072
284.0000,0.341782,206.049,0.116155
283.9000,0.855501,206.208,0.118444
283.8000,0.484737,206.441,0.12181
283.7000,1.47698,205.792,0.11244
283.6000,0.486084,207.068,0.130831
283.5000,1.54109,206.064,0.116368
283.4000,1.34763,206.087,0.116695
283.3000,1.57291,206.763,0.126446
283.2000,0.685551,206.364,0.1207
283.1000,1.90891,205.936,0.114519
283.0000,1.51743,206.267,0.119295
282.9000,0.970116,205.835,0.113062
282.8000,1.99264,205.828,0.112964
282.7000,1.1501,205.602,0.109688
282.6000,-0.8203,206.134,0.117382
282.5000,0.297943,206.434,0.121696
282.4000,1.60364,206.143,0.117513
282.3000,0.791707,206.352,0.12052
282.2000,1.69259,205.43,0.107196
282.1000,-0.401973,207.003,0.129902
282.0000,-0.373187,206.968,0.129397
281.9000,0.663914,206.531,0.1231
281.8000,0.462426,206.269,0.119327
281.7000,0.957162,206.377,0.120879
281.6000,0.905128,206.576,0.123753
281.5000,1.17585,206.272,0.11936
281.4000,1.35365,205.478,0.107901
281.3000,-0.308807,206.464,0.122137
281.2000,0.998298,206.378,0.120896
281.1000,1.46069,206.095,0.116809
281.0000,1.70484,206.021,0.115746
280.9000,2.04305,205.431,0.107213
280.8000,1.55103,205.63,0.110098
280.7000,0.987718,206.502,0.122676
280.6000,0.592546,205.981,0.115173
280.5000,1.60774,206.414,0.121419
280.4000,2.04984,205.574,0.109278
280.3000,1.56359,206.248,0.119017
280.2000,2.75288,205.813,0.112735
280.1000,1.39728,206.455,0.122007
280.0000,1.76932,206.448,0.121909
279.9000,0.487236,205.951,0.114732
279.8000,0.858227,205.748,0.111801
279.7000,-0.361029,206.259,0.11918
279.6000,1.55974,206.655,0.12488
279.5000,2.16448,207.115,0.131499
279.4000,0.848484,205.822,0.112866
279.3000,0.724827,206.514,0.122856
279.2000,2.37826,206.452,0.121957
279.1000,0.420606,206.427,0.121598
279.0000,1.33681,205.56,0.109082
278.9000,2.06005,206.87,0.127979
278.8000,0.961969,206.641,0.124684
278.7000,1.85771,206.153,0.117643
278.6000,1.26154,205.855,0.11334
278.5000,-0.782181,206.037,0.115975
278.4000,0.389917,206.393,0.121108
278.3000,0.175,206.091,0.11676
278.2000,0.243056,205.951,0.114732
278.1000,1.59597,206.01,0.115582
278.0000,2.76485,206.273,0.119376
277.9000,0.558102,206.445,0.121859
277.8000,1.10221,206.621,0.12439
277.7000,2.12201,205.899,0.113979
277.6000,2.01483,206.875,0.12806
277.5000,0.988932,205.302,0.105343
277.4000,1.17371,207.033,0.130326
277.3000,0.0962152,206.631,0.124537
277.2000,0.589101,206.062,0.116335
277.1000,1.87846,206.434,0.121696
277.0000,2.25544,206.903,0.128452
276.9000,0.429217,206.461,0.122088
276.8000,0.0899771,206.855,0.127767
276.7000,-0.346098,206.682,0.125271
276.6000,0.572312,206.332,0.120226
276.5000,3.2495,205.873,0.113602
276.4000,1.22734,206.281,0.119491
276.3000,2.29247,206.514,0.122856
276.2000,0.47292,206.66,0.124961
276.1000,1.57313,205.63,0.110098
276.0000,-0.230038,205.848,0.113242
275.9000,2.39718,206.56,0.123525
275.8000,1.39986,206.75,0.12625
275.7000,0.823344,206.335,0.120275
275.6000,1.28148,206.608,0.124211
275.5000,1.44425,206.406,0.121304
275.4000,1.31493,206.312,0.119948
275.3000,1.18768,206.724,0.125875
275.2000,0.939505,206.755,0.126332
275.1000,0.859953,206.615,0.124308
275.0000,0.731927,206.572,0.123688
274.9000,1.80979,206.996,0.129788
274.8000,1.66644,206.422,0.121533
274.7000,1.69449,205.805,0.11262
274.6000,1.53602,206.279,0.119474
274.5000,1.49218,205.774,0.112178
274.4000,-0.106421,206.341,0.120357
274.3000,0.0413828,206.742,0.126136
274.2000,0.0131158,206.715,0.125745
274.1000,1.41826,206.767,0.126495
274.0000,0.0663739,206.272,0.11936
273.9000,2.08045,206.276,0.119425
273.8000,-0.31422,206.336,0.120291
273.7000,1.73778,207.117,0.131532
273.6000,0.74329,206.886,0.128207
273.5000,-0.360516,206.593,0.123998
273.4000,0.610354,206.495,0.122578
273.3000,0.590587,206.651,0.124831
273.2000,1.202,206.911,0.128566
273.1000,-0.236892,206.429,0.121631
273.0000,0.495218,206.104,0.11694
272.9000,2.74579,206.912,0.128582
272.8000,0.726818,206.602,0.124129
272.7000,0.209509,206.564,0.123574
272.6000,2.37972,206.278,0.119458
272.5000,1.88861,206.539,0.123215
272.4000,0.21688,206.72,0.125826
272.3000,0.609708,206.141,0.11748
272.2000,1.22386,207.262,0.133616
272.1000,1.44467,206.209,0.118461
272.0000,1.3763,205.919,0.114273
271.9000,1.22569,206.644,0.124733
271.8000,-1.12113,206.841,0.127571
271.7000,1.39108,206.206,0.118412
271.6000,0.00957045,206.992,0.129739
271.5000,2.45649,207.271,0.133746
271.4000,-0.939445,206.514,0.122856
271.3000,2.10334,206.177,0.118003
271.2000,1.32021,207.249,0.133437
271.1000,-0.297737,206.134,0.117382
271.0000,1.97475,206.684,0.125304
270.9000,1.27866,206.784,0.12674
270.8000,0.341413,206.46,0.122072
270.7000,0.428722,206.243,0.118951
270.6000,-1.75139,207.416,0.135829
270.5000,0.469832,207.129,0.131711
270.4000,0.756213,206.54,0.123231
270.3000,0.997774,206.315,0.119981
270.2000,1.48313,207.274,0.133795
270.1000,-0.519088,206.661,0.124978
270.0000,-0.423418,207.499,0.137017
269.9000,-0.0543684,207.443,0.13622
269.8000,0.686205,207.362,0.135048
269.7000,1.20258,207.11,0.131434
269.6000,1.15215,207.52,0.137326
269.5000,0.505116,207.919,0.143045
269.4000,-0.261899,207,0.129853
269.3000,0.0496955,206.742,0.126136
269.2000,0.448303,206.392,0.121092
269.1000,1.15734,206.679,0.125239
269.0000,2.36278,207.042,0.130456
268.9000,2.42699,207.377,0.135276
268.8000,0.23932,206.522,0.12297
268.7000,-0.504563,206.878,0.128093
268.6000,1.37517,207.419,0.135878
268.5000,1.99235,206.125,0.117251
268.4000,0.962541,206.96,0.129283
268.3000,0.54627,206.65,0.124814
268.2000,0.974568,207.444,0.136236
268.1000,0.865687,207.175,0.132362
268.0000,0.556553,207.419,0.135878
267.9000,1.0178,207.553,0.137797
267.8000,-0.556634,207.116,0.131515
267.7000,2.21012,207.959,0.143614
267.6000,2.25561,207.552,0.137781
267.5000,0.197775,207.819,0.141617
267.4000,-1.26995,207.278,0.133844
267.3000,-0.375486,206.81,0.127115
267.2000,0.77073,207.143,0.131906
267.1000,1.48936,207.306,0.134251
267.0000,1.21661,207.809,0.14147
266.9000,0.924336,208.147,0.146308
266.8000,0.664152,208.242,0.14767
266.7000,1.03432,207.377,0.135276
266.6000,1.10796,207.551,0.137765
266.5000,0.657374,207.603,0.138512
266.4000,0.418274,207.903,0.142818
266.3000,-0.163489,207.406,0.135683
266.2000,0.300233,207.394,0.13552
266.1000,1.13186,207.942,0.14337
266.0000,-0.32385,208.065,0.145139
265.9000,1.13292,207.453,0.136366
265.8000,1.09404,208.731,0.154669
265.7000,1.09636,208.181,0.146794
265.6000,0.471443,207.834,0.141827
265.5000,-0.350674,207.814,0.141535
265.4000,2.05867,207.295,0.134088
265.3000,3.31929,207.724,0.140252
265.2000,0.935209,207.979,0.143906
265.1000,1.13489,208.304,0.148562
265.0000,2.234,208.005,0.144279
264.9000,-1.13204,208.789,0.155494
264.8000,1.15843,208.892,0.156966
264.7000,0.152232,208.728,0.15462
264.6000,1.83943,208.347,0.149178
264.5000,0.761096,208.029,0.14462
264.4000,-0.0153173,208.079,0.145334
264.3000,0.199918,208.514,0.15156
264.2000,-0.802299,207.654,0.139244
264.1000,0.248206,208.311,0.148659
264.0000,0.862987,208.337,0.149032
263.9000,1.4458,208.551,0.152094
263.8000,0.554329,208.486,0.151155
263.7000,2.41102,208.274,0.148124
263.6000,0.615294,208.082,0.145383
263.5000,1.62676,208.535,0.151868
263.4000,1.48842,208.385,0.149713
263.3000,0.978412,208.865,0.156578
263.2000,0.27732,207.969,0.14376
263.1000,1.5293,208.504,0.151414
263.0000,2.06867,208.319,0.148773
262.9000,0.621057,208.249,0.147767
262.8000,1.79744,208.91,0.157225
262.7000,0.788904,209.217,0.161605
262.6000,-0.450269,208.776,0.1553
262.5000,2.646,208.496,0.151301
262.4000,0.864713,209.015,0.158713
262.3000,0.902635,208.946,0.157726
262.2000,2.18895,209.646,0.167706
262.1000,1.31127,209.53,0.166061
262.0000,2.25484,208.622,0.153098
261.9000,0.782639,208.81,0.155785
261.8000,2.14401,209.169,0.160911
261.7000,0.108759,209.467,0.165157
261.6000,2.26882,209.128,0.160329
261.5000,0.627656,209.375,0.16385
261.4000,0.930691,209.021,0.15881
261.3000,0.149913,208.378,0.149615
261.2000,0.803591,210.123,0.174489
261.1000,0.107817,208.465,0.150863
261.0000,2.11515,209.522,0.165948
260.9000,2.06448,208.667,0.153746
260.8000,1.72935,209.419,0.16448
260.7000,0.593771,209.259,0.162203
260.6000,1.41804,209.964,0.172235
260.5000,1.14186,209.276,0.162445
260.4000,1.2206,208.909,0.157209
260.3000,0.34821,209.574,0.16669
260.2000,-1.53851,209.324,0.163123
260.1000,1.26198,209.667,0.168013
260.0000,0.82119,208.82,0.155931
259.9000,0.871967,208.896,0.157015
259.8000,1.34134,209.11,0.16007
259.7000,1.18568,209.896,0.171269
259.6000,1.65624,209.93,0.171752
259.5000,2.006,209.538,0.166174
259.4000,0.166989,209.817,0.170141
259.3000,1.47377,208.723,0.154555
259.2000,-0.753427,209.763,0.169367
259.1000,0.455764,209.632,0.167513
259.0000,1.3356,209,0.158502
258.9000,-0.976672,209.832,0.17035
258.8000,1.77669,210.306,0.177096
258.7000,0.782867,210.558,0.180665
258.6000,0.511765,209.896,0.171269
258.5000,0.455113,210.071,0.173749
258.4000,0.0518305,210.178,0.175278
258.3000,0.582467,210.081,0.173894
258.2000,1.52528,210.806,0.184183
258.1000,2.53175,210.543,0.180456
258.0000,-0.274214,210.572,0.180858
257.9000,0.833753,210.528,0.180248
257.8000,3.7602,211.283,0.190935
257.7000,2.27626,210.062,0.17362
257.6000,2.5735,210.436,0.178929
257.5000,-0.0728414,210.176,0.175246
257.4000,-0.234148,209.714,0.168674
257.3000,0.637821,210.749,0.18338
257.2000,0.69378,209.787,0.169722
257.1000,-0.110053,210.582,0.181003
257.0000,0.918688,210.628,0.181661
256.9000,0.326675,211.387,0.192409
256.8000,1.57363,210.777,0.183765
256.7000,0.295375,210.388,0.178254
256.6000,0.271108,212.265,0.204801
256.5000,0.469255,210.048,0.173427
256.4000,-0.472317,210.49,0.179701
256.3000,1.66315,211.318,0.191432
256.2000,1.16963,211.272,0.190775
256.1000,0.171279,211.332,0.191624
256.0000,-0.625229,210.737,0.183203
255.9000,0.28184,210.272,0.176614
255.8000,-0.461598,210.732,0.183139
255.7000,-0.70591,210.379,0.178125
255.6000,-0.0764754,210.893,0.185419
255.5000,0.86859,211.604,0.195467
255.4000,1.14798,211.757,0.197627
255.3000,1.67127,210.775,0.183749
255.2000,-0.71549,211.328,0.191576
255.1000,0.150636,211.613,0.195595
255.0000,0.285307,211.271,0.190759
254.9000,0.00449832,210.958,0.186333
254.8000,1.14392,211.479,0.193706
254.7000,0.693185,211.306,0.191256
254.6000,1.80955,210.754,0.183444
254.5000,2.10935,211.056,0.187729
254.4000,1.82847,211.937,0.200169
254.3000,0.620408,211.114,0.188547
254.2000,1.81561,211.809,0.198363
254.1000,0.304048,211.438,0.19313
254.0000,-0.260501,211.405,0.192665
253.9000,3.41981,211.134,0.188819
253.8000,2.11691,211.114,0.188547
253.7000,2.26216,211.4,0.192585
253.6000,-0.777706,212.006,0.201144
253.5000,1.76404,211.371,0.192185
253.4000,1.03641,212.219,0.204147
253.3000,1.95783,212.279,0.204993
253.2000,1.04358,211.594,0.195323
253.1000,0.5675,211.686,0.196635
253.0000,0.769344,211.348,0.191848
252.9000,1.29322,211.977,0.200728
252.8000,1.48615,211.966,0.200585
252.7000,-0.0659501,212.072,0.202071
252.6000,2.12459,212.779,0.212025
252.5000,1.35977,212.124,0.202805
252.4000,0.95754,212.146,0.203125
252.3000,1.04966,211.375,0.192233
252.2000,-0.660621,211.91,0.199786
252.1000,2.25309,211.966,0.200585
252.0000,1.42502,212.239,0.204434
251.9000,1.14511,212.054,0.201815
251.8000,3.13352,211.72,0.197115
251.7000,1.0156,212.075,0.202119
251.6000,1.52586,211.819,0.198507
251.5000,0.948703,211.972,0.200665
251.4000,0.624224,212.648,0.210193
251.3000,0.340873,211.822,0.198554
251.2000,1.45985,212.095,0.202406
251.1000,0.0754012,212.35,0.205998
251.0000,0.832238,212.05,0.201767
250.9000,1.70374,212.416,0.206924
250.8000,-0.119786,212.14,0.203029
250.7000,0.429079,212.857,0.213124
250.6000,2.45661,212.684,0.210687
250.5000,1.06484,212.553,0.208853
250.4000,0.651174,212.813,0.212503
250.3000,-0.264511,212.897,0.213682
250.2000,-1.54148,213.685,0.224748
250.1000,1.83661,213.111,0.21669
250.0000,0.85543,212.914,0.213921
249.9000,0.63081,212.872,0.213331
249.8000,0.807216,212.498,0.208072
249.7000,1.58808,212.652,0.210241
249.6000,2.16173,212.162,0.203348
249.5000,2.29707,212.303,0.205328
249.4000,1.21653,213.587,0.223367
249.3000,0.146737,213.246,0.218583
249.2000,0.0348302,213.176,0.217613
249.1000,-0.0735318,212.894,0.21365
249.0000,0.0602916,213.18,0.217661
248.9000,2.13057,212.416,0.206924
248.8000,1.23072,213.815,0.226573
248.7000,-0.826153,212.782,0.212073
248.6000,0.521861,213.389,0.220602
248.5000,1.09663,212.927,0.214112
248.4000,0.149967,213.298,0.219314
248.3000,-0.683016,213.052,0.215863
248.2000,0.419025,212.878,0.213427
248.1000,-0.0277587,213.057,0.215942
248.0000,0.57628,213.457,0.221556
247.9000,2.64943,214.137,0.231077
247.8000,0.396191,213.905,0.227826
247.7000,-0.506621,212.672,0.210527
247.6000,0.555235,213.239,0.218487
247.5000,0.671261,213.801,0.226367
247.4000,0.439496,213.805,0.22643
247.3000,2.33735,213.632,0.224002
247.2000,0.0853309,213.304,0.21941
247.1000,1.65842,213.416,0.220967
247.0000,1.29191,213.963,0.228635
246.9000,-0.338716,214.228,0.232344
246.8000,3.90357,213.904,0.227811
246.7000,0.294396,214.538,0.236683
246.6000,0.659698,213.533,0.22262
246.5000,2.76052,214.312,0.233516
246.4000,0.713264,213.41,0.220888
246.3000,-0.246928,213.278,0.219044
246.2000,0.915197,213.317,0.219585
246.1000,0.335147,214.596,0.237489
246.0000,0.55872,213.145,0.217167
245.9000,0.421784,214.333,0.233817
245.8000,1.62497,214.41,0.234894
245.7000,1.83125,214.491,0.236018
245.6000,-0.41054,214.181,0.231695
245.5000,2.75651,214.533,0.236603
245.4000,1.08942,214.265,0.232867
245.3000,0.610397,214.34,0.233912
245.2000,0.84368,214.839,0.240873
245.1000,1.67584,215.038,0.243654
245.0000,-1.04486,214.862,0.241205
244.9000,0.380598,214.152,0.231282
244.8000,-0.144917,214.537,0.236666
244.7000,2.66539,214.469,0.235717
244.6000,1.35685,214.343,0.23396
244.5000,0.136134,215.044,0.243733
244.4000,0.304768,214.164,0.231457
244.3000,1.11186,215.496,0.250029
244.2000,1.127,215.062,0.243986
244.1000,1.91319,215.168,0.24547
244.0000,0.07612,215.271,0.246906
243.9000,-0.58429,214.308,0.233469
243.8000,-1.01745,214.716,0.239166
243.7000,-0.415253,214.892,0.241616
243.6000,1.13771,215.12,0.244791
243.5000,0.21023,215.288,0.247142
243.4000,2.94213,215.068,0.244064
243.3000,-0.952618,215.083,0.244286
243.2000,1.18255,215.448,0.249366
243.1000,-0.550632,214.796,0.240273
243.0000,1.08683,215.833,0.254724
242.9000,1.55813,215.066,0.244049
242.8000,0.814975,215.468,0.249635
242.7000,1.16314,215.767,0.253795
242.6000,0.581775,214.938,0.242264
242.5000,1.18841,215.634,0.251952
242.4000,1.22169,215.874,0.25529
242.3000,-0.541588,215.369,0.248262
242.2000,0.702066,216.148,0.259098
242.1000,0.396604,216.094,0.258343
242.0000,1.60766,215.684,0.252645
241.9000,-0.213788,216.054,0.257793
241.8000,-0.91939,215.752,0.25359
241.7000,0.105046,215.741,0.253433
241.6000,-0.0712068,216.233,0.260278
241.5000,0.495716,216.112,0.258595
241.4000,-1.25048,216.473,0.263593
241.3000,-0.4499,216.265,0.260718
241.2000,1.44292,216.723,0.267063
241.1000,1.22608,216.188,0.259649
241.0000,-0.160107,216.645,0.26598
240.9000,1.20981,216.616,0.265587
240.8000,0.271044,217.005,0.270968
240.7000,0.548052,216.264,0.260702
240.6000,2.0626,216.615,0.265572
240.5000,0.334899,216.662,0.266215
240.4000,0.8001,217.146,0.272911
240.3000,1.2092,216.513,0.264159
240.2000,0.372661,217.445,0.277045
240.1000,1.24498,216.844,0.268742
240.0000,-1.19031,216.688,0.266576
239.9000,1.60296,216.837,0.268647
239.8000,-0.510485,217.346,0.275683
239.7000,1.22681,217.48,0.27753
239.6000,-1.03482,217.186,0.273475
239.5000,-1.13124,217.352,0.275761
239.4000,0.471711,216.776,0.2678
239.3000,0.747464,218,0.284705
239.2000,-0.602272,218.111,0.286235
239.1000,1.27778,217.859,0.282768
239.0000,1.64927,217.461,0.277264
238.9000,0.211654,217.277,0.274728
238.8000,-2.37151,218.212,0.287624
238.7000,0.892253,217.444,0.277029
238.6000,1.4996,218.274,0.288482
238.5000,1.62807,218.527,0.291959
238.4000,-0.264149,218.714,0.29453
238.3000,1.47719,218.135,0.286563
238.2000,-0.555188,218.217,0.287702
238.1000,-0.346308,218.872,0.29671
238.0000,0.167115,218.99,0.298328
237.9000,-2.48184,218.272,0.288451
237.8000,-1.6189,218.867,0.296632
237.7000,0.48395,218.825,0.296056
237.6000,1.4354,219.33,0.302992
237.5000,0.156399,219.579,0.306409
237.4000,1.98467,219.467,0.304872
237.3000,0.352773,219.605,0.306766
237.2000,-1.24163,218.836,0.296211
237.1000,0.302945,218.898,0.297067
237.0000,-0.43149,219.297,0.302542
236.9000,1.32485,219.698,0.308039
236.8000,0.29568,219.592,0.30658
236.7000,-0.0807597,219.97,0.311761
236.6000,-0.702024,219.781,0.309171
236.5000,0.946907,220.514,0.319194
236.4000,-0.87503,220.07,0.313125
236.3000,-0.740916,220.383,0.317399
236.2000,-0.510356,220.256,0.315665
236.1000,-1.78374,220.944,0.325052
236.0000,-0.500358,219.646,0.307325
235.9000,0.407885,220.346,0.316904
235.8000,-1.08289,220.571,0.319967
235.7000,-1.01619,221.1,0.327183
235.6000,-1.54621,220.085,0.313326
235.5000,0.461892,220.903,0.324496
235.4000,-0.0630115,219.779,0.30914
235.3000,-0.51239,221.005,0.325886
235.2000,0.740979,220.833,0.323538
235.1000,0.507466,220.761,0.322564
235.0000,-1.4637,221.374,0.330916
234.9000,-0.383312,220.794,0.323013
234.8000,-0.540906,221.509,0.33275
234.7000,1.62984,221.11,0.327322
234.6000,0.480478,221.472,0.332242
234.5000,1.32465,221.687,0.335169
234.4000,-0.278784,221.802,0.33674
234.3000,-0.492444,221.407,0.331363
234.2000,-0.629673,221.383,0.331039
234.1000,1.37579,221.538,0.333151
234.0000,-0.243416,222.073,0.340418
233.9000,-2.02693,221.881,0.337802
233.8000,-0.721157,222.185,0.34194
233.7000,-1.58547,222.598,0.347531
233.6000,-1.48688,222.888,0.351459
233.5000,-1.41133,222.329,0.343892
233.4000,-1.07619,222.401,0.34486
233.3000,-2.48366,222.811,0.350416
233.2000,-0.580362,222.941,0.35218
233.1000,-1.8678,222.053,0.340141
233.0000,-0.337798,222.951,0.352318
232.9000,-1.67087,223.134,0.354785
232.8000,-0.276139,223.845,0.364393
232.7000,0.377864,224.075,0.367493
232.6000,-0.702484,223.319,0.357281
232.5000,-1.50641,223.314,0.35722
232.4000,-0.866528,223.353,0.35774
232.3000,-0.41342,223.511,0.359882
232.2000,0.515345,223.297,0.35699
232.1000,-1.34068,223.562,0.360571
232.0000,-2.31771,223.576,0.360754
231.9000,0.508868,224.396,0.371811
231.8000,1.83907,223.256,0.356439
231.7000,-0.205632,224.115,0.368027
231.6000,-2.62678,224.31,0.370652
231.5000,-2.17567,224.072,0.367447
231.4000,-1.68958,224.284,0.370301
231.3000,-2.07476,224.89,0.378453
231.2000,-0.356292,224.335,0.370987
231.1000,-2.33853,224.426,0.372207
231.0000,-0.0151713,224.232,0.369599
230.9000,-0.900222,224.678,0.375606
230.8000,-0.799227,224.131,0.368241
230.7000,-3.19672,225.364,0.38481
230.6000,-0.884567,224.971,0.379534
230.5000,-1.86449,224.217,0.369401
230.4000,-0.687684,224.703,0.375941
230.3000,-1.40359,224.382,0.371628
230.2000,-3.49446,225.279,0.38367
230.1000,-2.46862,225.614,0.388166
230.0000,-2.90534,225.125,0.381602
229.9000,-2.26805,224.752,0.376596
229.8000,-3.2682,225.758,0.390094
229.7000,-3.17261,224.845,0.377844
229.6000,-2.75916,225.019,0.380188
229.5000,-0.0836237,225.968,0.392899
229.4000,-1.65153,225.519,0.386891
229.3000,-3.00475,225.122,0.381572
229.2000,-3.84501,226.688,0.402529
229.1000,-1.39147,225.887,0.391823
229.0000,-2.79286,226.301,0.397354
228.9000,-1.25276,226.549,0.400669
228.8000,-3.36307,226.481,0.399761
228.7000,-3.43828,226.617,0.401576
228.6000,-1.89574,226.53,0.400411
228.5000,-3.98856,226.635,0.401818
228.4000,-3.66594,227.045,0.407289
228.3000,-3.28688,227.289,0.410534
228.2000,-3.72419,227.076,0.407697
228.1000,-2.10886,227.437,0.41251
228.0000,-2.22085,227.281,0.410429
227.9000,-3.35127,228.329,0.424359
227.8000,-2.89452,228.232,0.423066
227.7000,-3.34435,227.749,0.416655
227.6000,-0.794401,227.676,0.415691
227.5000,-2.37298,228.178,0.422359
227.4000,-3.65616,228.086,0.421141
227.3000,-0.984544,228.985,0.433052
227.2000,-4.03352,229.559,0.440647
227.1000,-1.88228,228.986,0.433067
227.0000,-3.48483,228.563,0.427469
226.9000,-2.37186,228.331,0.424389
226.8000,-1.3437,229.972,0.44609
226.7000,-1.55118,228.884,0.431717
226.6000,-4.44841,229.241,0.436439
226.5000,-1.36501,229.3,0.437218
226.4000,-1.06849,229.944,0.445716
226.3000,-1.78449,229.86,0.44461
226.2000,-4.38044,229.588,0.441021
226.1000,-0.314405,229.717,0.442726
226.0000,-3.17722,230.17,0.448704
225.9000,-2.05271,230.385,0.45154
225.8000,-3.86068,229.801,0.443833
225.7000,-3.45386,229.82,0.444087
225.6000,-1.88936,231.047,0.460243
225.5000,-0.796836,229.853,0.444521
225.4000,-4.91449,230.771,0.456609
225.3000,-3.89223,231.003,0.459662
225.2000,-3.39385,230.907,0.458397
225.1000,-2.90787,230.669,0.455268
225.0000,-2.44815,230.929,0.458695
224.9000,-3.94854,231.434,0.465315
224.8000,-2.99039,231.511,0.466326
224.7000,-1.18818,231.386,0.464691
224.6000,-2.45622,231.082,0.460704
224.5000,-0.655835,231.65,0.468153
224.4000,-2.30955,232.013,0.472903
224.3000,-4.88474,232.016,0.472948
224.2000,-3.20924,231.745,0.469401
224.1000,-2.88696,230.925,0.458635
224.0000,-2.49316,232.091,0.473927
223.9000,-3.64304,232.456,0.478699
223.8000,-4.53043,232.984,0.485594
223.7000,-3.11056,232.15,0.474698
223.6000,-3.07156,232.605,0.480653
223.5000,-4.14779,232.809,0.483317
223.4000,-2.3178,232.635,0.481038
223.3000,-3.66514,231.969,0.472339
223.2000,-0.666792,232.671,0.481512
223.1000,-2.5255,232.609,0.480698
223.0000,-3.12146,233.594,0.493553
222.9000,-1.52398,233.386,0.490838
222.8000,-3.09472,233.432,0.491443
222.7000,-2.3263,233.771,0.495854
222.6000,-3.88703,234.521,0.5056
222.5000,-3.76419,233.626,0.493966
222.4000,-5.18295,234.144,0.5007
222.3000,-0.523843,234.624,0.506937
222.2000,-5.11498,234.228,0.50179
222.1000,-2.3544,234.942,0.51105
222.0000,-3.22218,234.258,0.502187
221.9000,-3.88748,234.335,0.503188
221.8000,-6.1474,234.63,0.507011
221.7000,-2.33013,234.442,0.50457
221.6000,-1.34285,234.84,0.509729
221.5000,-1.91979,234.942,0.51105
221.4000,-1.6659,235.463,0.517797
221.3000,-2.5422,235.45,0.517636
221.2000,-5.68764,236.015,0.524927
221.1000,-3.19338,236.32,0.528874
221.0000,-3.47001,235.66,0.520346
220.9000,-5.41285,236.024,0.525044
220.8000,-1.39502,235.012,0.51196
220.7000,-3.14504,236.002,0.524766
220.6000,-5.29696,235.876,0.523142
220.5000,-2.07754,235.635,0.520024
220.4000,-4.20371,236.629,0.532846
220.3000,-3.05847,236.889,0.536201
220.2000,-1.2373,236.505,0.531255
220.1000,-2.68795,236.713,0.533926
220.0000,-3.52319,236.667,0.533342
219.9000,-2.42797,237.405,0.54283
219.8000,-2.60353,237.253,0.540879
219.7000,-5.68455,237.285,0.541286
219.6000,-4.47426,236.798,0.53502
219.5000,-4.53104,237.823,0.548196
219.4000,-2.82353,237.396,0.542713
219.3000,-1.18361,237.253,0.540879
219.2000,-0.845455,237.767,0.547484
219.1000,-3.13636,238.668,0.559023
219.0000,-3.27092,237.917,0.549402
218.9000,-4.49965,238.284,0.554107
218.8000,-6.08212,238.363,0.555122
218.7000,-4.63234,238.46,0.556355
218.6000,-2.72155,238.419,0.555833
218.5000,-2.10569,238.809,0.560819
218.4000,-3.81234,237.852,0.548574
218.3000,-2.80414,238.399,0.555572
218.2000,-2.43769,238.189,0.552888
218.1000,-2.7674,238.366,0.555151
218.0000,-5.71707,238.607,0.55824
217.9000,-4.27227,238.769,0.560312
217.8000,-2.92897,239.358,0.567837
217.7000,-1.99749,239.663,0.571724
217.6000,-4.00781,238.984,0.563064
217.5000,-4.99177,239.605,0.570987
217.4000,-3.11033,239.947,0.575347
217.3000,-3.54472,240.686,0.584742
217.2000,-5.04776,240.157,0.578015
217.1000,-4.15126,239.975,0.575693
217.0000,-6.30654,240.562,0.583158
216.9000,-1.86241,240.674,0.584584
216.8000,-4.37023,239.954,0.575434
216.7000,-2.53533,240.182,0.578332
216.6000,-5.95149,239.907,0.574828
216.5000,-2.42126,240.76,0.585677
216.4000,-4.48747,241.734,0.598029
216.3000,-4.07982,241.623,0.596624
216.2000,-5.29884,240.915,0.587647
216.1000,-2.44269,241.202,0.591284
216.0000,-0.98349,241.794,0.598789
215.9000,-3.32954,241.131,0.590393
215.8000,-2.8767,241.535,0.595505
215.7000,-2.80164,241.912,0.60028
215.6000,-3.00462,242.175,0.603603
215.5000,-1.20589,241.788,0.598703
215.4000,-4.46889,241.947,0.600724
215.3000,-3.78468,242.277,0.604891
215.2000,-2.32487,241.689,0.597456
215.1000,-4.33941,242.147,0.603245
215.0000,-4.26128,242.555,0.608396
214.9000,-5.58999,242.304,0.605235
214.8000,-0.766506,242.019,0.601627
214.7000,-2.35577,242.246,0.604505
214.6000,-2.98455,242.977,0.613726
214.5000,-4.49537,243.704,0.622867
214.4000,-3.59855,243.008,0.614111
214.3000,-4.57546,242.76,0.610983
214.2000,-3.46725,243.765,0.623636
214.1000,-3.08512,243.061,0.614782
214.0000,-2.22696,243.922,0.625615
213.9000,-3.34262,242.915,0.61294
213.8000,-0.265191,243.537,0.620773
213.7000,-2.22084,244.143,0.628389
213.6000,-0.355552,243.597,0.621528
213.5000,-2.87527,243.911,0.625473
213.4000,-4.5585,244.537,0.633335
213.3000,-3.27791,244.456,0.632312
213.2000,-4.83677,244.789,0.636487
213.1000,-2.00607,245.065,0.639948
213.0000,-6.09853,244.627,0.634457
212.9000,-1.18887,245.262,0.6424
212.8000,-1.79345,244.701,0.63538
212.7000,-5.14618,244.932,0.638274
212.6000,-6.79968,244.833,0.63704
212.5000,-4.97272,245.504,0.645431
212.4000,-6.53513,245.3,0.642881
212.3000,-3.78079,245.812,0.649279
212.2000,-0.752347,245.955,0.651061
212.1000,-1.06937,246.472,0.657501
212.0000,-2.52205,246.416,0.656809
211.9000,-2.66512,246.446,0.657176
211.8000,-4.58767,245.795,0.649067
211.7000,-4.82925,245.75,0.648501
211.6000,-6.18211,246.644,0.659645
211.5000,-2.90737,247.02,0.664324
211.4000,-0.557175,247.18,0.666309
211.3000,-7.51035,247.547,0.670868
211.2000,-5.18536,246.863,0.662366
211.1000,-5.14954,247.321,0.668069
211.0000,-5.18063,247.327,0.668139
210.9000,-1.79355,248.057,0.677189
210.8000,-4.99968,247.068,0.664915
210.7000,-3.54984,247.128,0.665662
210.6000,-1.68354,247.814,0.674184
210.5000,-6.15213,248.193,0.678873
210.4000,-4.5972,247.745,0.673327
210.3000,-2.09441,248.245,0.679518
210.2000,-5.07861,248.017,0.676698
210.1000,-1.50269,248.473,0.682337
210.0000,-1.56282,249.207,0.691408
209.9000,-2.99395,249.336,0.693002
209.8000,-2.66611,249.552,0.695671
209.7000,-4.2178,249.728,0.697835
209.6000,-4.02226,249.639,0.696732
209.5000,-6.82586,249.865,0.699523
209.4000,-3.79904,250.339,0.705351
209.3000,-5.31873,250.578,0.708289
209.2000,-3.58474,250.551,0.707955
209.1000,-2.53031,250.227,0.703971
209.0000,-2.66189,250.682,0.709569
208.9000,-6.37211,250.526,0.707648
208.8000,-3.60551,251.271,0.716797
208.7000,-3.46231,251.246,0.716492
208.6000,-3.0508,251.757,0.72275
208.5000,-3.11729,252.202,0.728181
208.4000,-4.95622,251.885,0.724317
208.3000,-3.16101,251.319,0.717381
208.2000,-1.97849,252.307,0.729468
208.1000,-0.991652,252.5,0.731821
208.0000,-5.16305,252.547,0.732402
207.9000,-4.04368,253.841,0.748161
207.8000,-5.65732,254.103,0.75134
207.7000,-0.427891,253.477,0.743738
207.6000,-4.44776,253.211,0.740496
207.5000,-4.50016,253.877,0.748601
207.4000,-2.34411,253.749,0.747045
207.3000,-1.74292,254.233,0.752922
207.2000,-2.3823,254.456,0.755631
207.1000,-4.14826,254.096,0.751258
207.0000,1.92748,254.101,0.751313
206.9000,-1.52117,254.047,0.750666
206.8000,-1.04082,255.061,0.762962
206.7000,-3.68421,255.013,0.762372
206.6000,-7.0534,255.913,0.773262
206.5000,-2.18405,255.012,0.762359
206.4000,-1.44841,255.524,0.768554
206.3000,-5.09101,255.333,0.766252
206.2000,-4.08194,255.584,0.76928
206.1000,0.347687,256.486,0.780163
206.0000,-2.21131,257.002,0.786384
205.9000,-2.6172,257.586,0.793397
205.8000,-2.63763,257.397,0.791124
205.7000,1.39604,257.363,0.790716
205.6000,-1.74167,257.082,0.787338
205.5000,-1.47124,257.963,0.797924
205.4000,1.89959,258.318,0.802175
205.3000,-1.5419,257.788,0.795818
205.2000,-2.48469,258.236,0.801197
205.1000,-0.939991,258.702,0.806773
205.0000,-1.97107,257.891,0.797054
204.9000,-1.45973,258.933,0.809537
204.8000,1.15058,258.983,0.810133
204.7000,-1.55765,259.513,0.816466
204.6000,-1.94164,259.377,0.814843
204.5000,-1.10597,260.6,0.82941
204.4000,-1.33725,260.234,0.825055
204.3000,-2.76454,260.041,0.822761
204.2000,1.49549,261.708,0.842564
204.1000,-3.3602,260.297,0.825811
204.0000,1.09615,261.027,0.834486
203.9000,-2.47846,261.562,0.840832
203.8000,-3.01423,261.625,0.841584
203.7000,0.0255673,262.348,0.850143
203.6000,-1.06603,262.733,0.854696
203.5000,-1.42374,262.14,0.847676
203.4000,-2.04443,263.307,0.861461
203.3000,1.24173,263.453,0.863184
203.2000,0.102833,264.174,0.871667
203.1000,-0.585008,263.942,0.868948
203.0000,1.84029,264.245,0.872506
202.9000,-1.70726,263.503,0.863771
202.8000,-1.15863,264.75,0.878442
202.7000,2.40107,265.275,0.884594
202.6000,1.85561,264.16,0.871507
202.5000,3.26576,264.418,0.874543
202.4000,0.752892,265.539,0.887686
202.3000,2.0274,266.135,0.894657
202.2000,-1.6669,266.236,0.895836
202.1000,1.11124,266.172,0.895094
202.0000,3.74847,266.432,0.898125
201.9000,-0.213593,266.335,0.897
201.8000,2.33936,267.016,0.904945
201.7000,2.3147,267.1,0.905921
201.6000,4.64965,268.239,0.919165
201.5000,-0.512459,267.625,0.912029
201.4000,5.66891,267.904,0.915269
201.3000,0.410645,268.436,0.921454
201.2000,1.66005,268.845,0.926196
201.1000,3.11769,269.744,0.936594
201.0000,1.39504,269.428,0.932939
200.9000,2.40149,270.132,0.941083
200.8000,4.53023,270.062,0.940272
200.7000,2.40335,270.275,0.94273
200.6000,-1.22111,270.748,0.948177
200.5000,5.52312,271.27,0.95419
200.4000,1.5229,271.373,0.955376
200.3000,3.45215,271.638,0.958423
200.2000,3.08244,271.339,0.954985
200.1000,5.25782,271.367,0.955311
200.0000,3.33861,272.214,0.96503
199.9000,6.42938,272.227,0.965186
199.8000,4.565,272.831,0.972106
199.7000,7.95366,273.583,0.980696
199.6000,4.11998,273.271,0.977135
199.5000,4.74046,273.715,0.98221
199.4000,5.43333,274.422,0.990273
199.3000,2.19249,274.688,0.993305
199.2000,3.70188,273.67,0.981692
199.1000,7.57273,274.869,0.995355
199.0000,4.42012,275.095,0.997932
198.9000,4.91339,275.058,0.997507
198.8000,5.75979,275.127,0.998293
198.7000,4.96434,274.836,0.994981
198.6000,5.05267,276.201,1.01048
198.5000,2.73132,276.106,1.00941
198.4000,6.87636,276.149,1.00989
198.3000,0.950528,276.364,1.01233
198.2000,5.72759,277.362,1.02362
198.1000,5.97944,277.681,1.02721
198.0000,7.03516,277.272,1.0226
197.9000,8.68442,277.215,1.02196
197.8000,6.96612,277.685,1.02727
197.7000,10.1431,277.824,1.02882
197.6000,2.63881,278.067,1.03157
197.5000,7.60584,277.786,1.0284
197.4000,7.12288,278.065,1.03154
197.3000,8.26656,278.919,1.04116
197.2000,9.2279,279.128,1.0435
197.1000,5.92481,278.714,1.03885
197.0000,9.29588,279.033,1.04243
196.9000,7.05383,279.502,1.0477
196.8000,1.76406,279.757,1.05056
196.7000,8.19143,279.962,1.05286
196.6000,4.53076,279.45,1.04711
196.5000,13.4812,280.087,1.05427
196.4000,8.36761,279.446,1.04708
196.3000,9.93224,280.657,1.06064
196.2000,7.03198,280.64,1.06045
196.1000,4.36287,281.213,1.06685
196.0000,10.189,280.62,1.06023
195.9000,10.5286,282.009,1.07573
195.8000,5.63864,281.388,1.06881
195.7000,12.4936,281.207,1.06678
195.6000,13.4535,281.609,1.07127
195.5000,8.6997,282.015,1.07579
195.4000,10.5613,281.939,1.07495
195.3000,7.27363,282.329,1.07928
195.2000,6.67134,282.091,1.07664
195.1000,12.757,282.615,1.08247
195.0000,10.6909,282.396,1.08003
194.9000,7.80855,282.712,1.08354
194.8000,10.3243,283.189,1.08884
194.7000,9.07216,283.088,1.08772
194.6000,10.5741,282.758,1.08406
194.5000,10.5652,282.619,1.08251
194.4000,8.26001,282.831,1.08487
194.3000,11.0418,282.963,1.08634
194.2000,10.2667,283.684,1.09433
194.1000,10.0896,283.38,1.09097
194.0000,10.7705,283.359,1.09073
193.9000,11.51,283.958,1.09737
193.8000,8.96692,283.745,1.09501
193.7000,10.1323,284.525,1.10364
193.6000,14.7468,284.298,1.10113
193.5000,11.1036,284.128,1.09925
193.4000,8.40072,284.77,1.10636
193.3000,7.69641,283.73,1.09485
193.2000,13.8922,283.441,1.09164
193.1000,11.5482,284.598,1.10445
193.0000,9.76353,284.47,1.10304
192.9000,12.028,284.698,1.10555
192.8000,9.16796,285.227,1.1114
192.7000,11.9924,284.767,1.10632
192.6000,6.57308,285.107,1.11007
192.5000,8.72977,284.445,1.10276
192.4000,8.69872,284.921,1.10802
192.3000,13.5726,285.676,1.11634
192.2000,5.60946,285.978,1.11968
192.1000,9.2099,285.075,1.10972
192.0000,9.91363,285.287,1.11206
191.9000,13.4296,285.813,1.11785
191.8000,10.8163,285.874,1.11853
191.7000,12.9348,285.445,1.1138
191.6000,11.2413,285.039,1.10932
191.5000,11.09,285.906,1.11888
191.4000,10.9517,286.102,1.12103
191.3000,8.16614,286.364,1.12391
191.2000,11.1358,286.254,1.1227
191.1000,9.86049,286.085,1.12085
191.0000,8.62099,286.152,1.12158
190.9000,10.704,286.753,1.1282
190.8000,12.1941,286.571,1.12619
190.7000,13.2955,286.476,1.12515
190.6000,14.1188,286.628,1.12682
190.5000,9.20266,286.786,1.12856
190.4000,13.4866,286.723,1.12786
190.3000,7.52539,287.371,1.13497
190.2000,13.4583,287.099,1.13199
190.1000,13.3499,287.014,1.13106
190.0000,7.05263,286.995,1.13085

##### Extended Information
[Comments]
Sample name,ECTC_PROTEIN_928
Comment,PROTEIN
User,TRICIACHESELDINE
Division
Company,Saint Mary's College

[Detailed Information]
Creation date,9/28/2022 4:39 PM

Data array type,Linear data array * 3
Horizontal axis,Wavelength [nm]
Vertical axis(1),CD [mdeg]
Vertical axis(2),HT [V]
Vertical axis(3),Abs
Start,320 nm
End,190 nm
Data interval,0.1 nm
Data points,1301    

[Measurement Information]
Instrument name,J-1500
Model name,J-1500
Serial No.,B051061638

Detector,PM-539
Detector S/N,B051061638
  Lock-in amp.,X mode
  HT volt,Auto

Accessory,PTC-517
Accessory S/N,B026561646
  Temperature,22.82 C
  Control sensor,Holder
  Monitor sensor,Holder

Measurement date,9/28/2022 4:39 PM

CD Overload detect,1255
Photometric mode,CD, HT, Abs
Measure range,320 - 190 nm
Data pitch,0.1 nm
CD scale,20 mdeg/0.05 dOD
FL scale,20 mdeg/0.05 dOD
D.I.T.,8 msec
Bandwidth,2.00 nm
Start mode,Immediately
Scanning mode,Continuous
Scanning speed,200 nm/min
Baseline correction,None
Shutter control,Auto
No. of cycle,1/1
N2 Flowmeter,Manual

Solvent,NaPO4 buffer

