TITLE,ECTC_BUFFER_928
DATA TYPE,
ORIGIN,JASCO
OWNER,
DATE,22/09/28
TIME,17:11:29
SPECTROMETER/DATA SYSTEM,
LOCALE,1033
RESOLUTION,
DELTAX,-0.1
XUNITS,NANOMETERS
YUNITS,CD [mdeg]
Y2UNITS,HT [V]
Y3UNITS,ABSORBANCE
FIRSTX,  320.0000
LASTX,  190.0000
NPOINTS,    1301
FIRSTY,     1.79245
MAXY,     6.51689
MINY,    -3.43719
XYDATA
320.0000,1.79245,208.748,0.154912
319.9000,1.39096,209.589,0.1669
319.8000,2.42835,209.204,0.161412
319.7000,1.39478,209.188,0.161185
319.6000,0.600488,208.644,0.153422
319.5000,0.968946,208.831,0.156093
319.4000,2.13387,208.513,0.151544
319.3000,2.14676,208.461,0.150798
319.2000,1.64853,209.077,0.159602
319.1000,2.02046,208.921,0.157371
319.0000,1.04559,208.522,0.151673
318.9000,1.98462,209.253,0.162106
318.8000,2.14395,208.478,0.151042
318.7000,1.25777,208.555,0.152143
318.6000,1.43293,208.215,0.147281
318.5000,1.99751,208.517,0.151609
318.4000,1.71109,207.437,0.136138
318.3000,1.56457,208.731,0.154669
318.2000,1.38462,209.917,0.171559
318.1000,0.556111,208.173,0.146681
318.0000,0.681512,209.34,0.16335
317.9000,1.76248,208.6,0.152791
317.8000,2.57709,210.56,0.180697
317.7000,1.88411,209.094,0.159844
317.6000,0.676693,209.029,0.158923
317.5000,0.209627,208.373,0.149551
317.4000,3.07766,208.444,0.150555
317.3000,2.19277,209.469,0.16519
317.2000,0.909835,209.429,0.164625
317.1000,1.2957,208.499,0.151349
317.0000,0.829583,208.776,0.1553
316.9000,1.64396,209.255,0.162138
316.8000,2.06622,209.543,0.166239
316.7000,1.26954,209.191,0.161234
316.6000,1.56357,207.947,0.143451
316.5000,0.875024,208.487,0.151171
316.4000,0.645177,208.94,0.157645
316.3000,0.413982,208.527,0.151754
316.2000,1.13876,207.424,0.135943
316.1000,1.20947,208.498,0.151333
316.0000,-0.00294632,208.866,0.156594
315.9000,1.0845,208.537,0.151884
315.8000,0.888688,208.473,0.150977
315.7000,0.708324,209.007,0.158599
315.6000,1.02994,208.279,0.148205
315.5000,0.750221,207.026,0.130228
315.4000,1.3036,207.713,0.140089
315.3000,1.00828,207.686,0.139699
315.2000,1.82451,208.014,0.144409
315.1000,1.58762,208.368,0.149469
315.0000,2.22017,208.658,0.153617
314.9000,0.55797,208.474,0.150993
314.8000,0.931615,210.436,0.178929
314.7000,2.15241,208.337,0.149032
314.6000,1.30779,208.278,0.148189
314.5000,2.26453,208.529,0.151771
314.4000,1.07007,209.265,0.162284
314.3000,3.11237,209.36,0.16364
314.2000,1.50549,208.103,0.145675
314.1000,0.736283,207.707,0.140008
314.0000,2.19486,207.947,0.143451
313.9000,0.842509,208.776,0.1553
313.8000,0.396659,208.38,0.149648
313.7000,1.7061,207.756,0.140707
313.6000,2.05566,207.21,0.132867
313.5000,0.945463,207.888,0.142607
313.4000,0.225195,209.409,0.164334
313.3000,2.04864,207.81,0.141486
313.2000,0.123231,207.628,0.13887
313.1000,2.08854,208.512,0.151528
313.0000,1.35426,206.809,0.127098
312.9000,0.968345,207.756,0.140707
312.8000,1.54944,209.37,0.163785
312.7000,1.86773,208.193,0.146973
312.6000,0.896726,207.599,0.138464
312.5000,1.12562,208.823,0.155979
312.4000,-0.747543,208.224,0.147411
312.3000,2.09116,208.334,0.148983
312.2000,0.899782,208.567,0.152321
312.1000,-0.705652,208.325,0.148854
312.0000,2.39904,208.423,0.150264
311.9000,3.4118,207.53,0.137472
311.8000,1.65652,208.546,0.152013
311.7000,-0.318741,208.127,0.146032
311.6000,1.65321,208.762,0.155106
311.5000,1.45825,208.336,0.149016
311.4000,1.13693,208.224,0.147411
311.3000,2.80255,207.963,0.143679
311.2000,1.30832,208.385,0.149713
311.1000,2.71988,208.509,0.151495
311.0000,0.407163,208.278,0.148189
310.9000,2.79944,208.445,0.150572
310.8000,0.870367,208.21,0.147216
310.7000,0.429797,207.718,0.140171
310.6000,0.852357,208.217,0.147313
310.5000,1.01008,207.718,0.140171
310.4000,0.185893,207.926,0.143143
310.3000,1.46331,208.288,0.148335
310.2000,2.03878,208.701,0.154232
310.1000,1.76775,208.726,0.154588
310.0000,0.510951,208.114,0.145837
309.9000,2.86436,208.423,0.150264
309.8000,1.08991,207.885,0.142558
309.7000,1.30385,208.588,0.152613
309.6000,0.151558,207.854,0.14212
309.5000,0.775916,208.218,0.14733
309.4000,2.14226,207.748,0.140593
309.3000,0.267966,208.201,0.147086
309.2000,-0.978356,208.273,0.148108
309.1000,2.78477,208.359,0.14934
309.0000,1.86419,208.607,0.152888
308.9000,-0.362027,208.367,0.149453
308.8000,2.12351,207.688,0.139732
308.7000,0.997442,208.184,0.146843
308.6000,2.77789,208.331,0.148951
308.5000,1.32772,208.242,0.14767
308.4000,0.857322,208.038,0.14475
308.3000,1.046,207.875,0.142412
308.2000,1.70984,208.121,0.145935
308.1000,2.81865,208.595,0.152726
308.0000,1.04747,208.554,0.152127
307.9000,1.17997,208.619,0.153066
307.8000,0.254388,208.608,0.152904
307.7000,1.23987,208.961,0.157953
307.6000,1.87217,206.734,0.126022
307.5000,1.27667,208.225,0.147427
307.4000,0.0554347,208.194,0.146989
307.3000,2.1362,207.686,0.139699
307.2000,1.85672,207.589,0.138318
307.1000,0.88626,207.998,0.144182
307.0000,3.06635,208.003,0.144247
306.9000,-0.0947139,208.171,0.146648
306.8000,0.431402,208.617,0.153034
306.7000,1.10406,208.279,0.148205
306.6000,1.10787,208.108,0.145756
306.5000,2.06327,208.397,0.149891
306.4000,2.17869,208.067,0.145172
306.3000,2.56475,207.998,0.144182
306.2000,1.56413,208.013,0.144393
306.1000,1.43223,208.716,0.154442
306.0000,2.03259,208.144,0.146275
305.9000,2.20092,207.984,0.143971
305.8000,1.38467,208.129,0.146048
305.7000,0.722292,208.248,0.147751
305.6000,1.38902,208.268,0.148043
305.5000,2.70053,207.656,0.139277
305.4000,1.6388,208.336,0.149016
305.3000,2.19977,208.027,0.144588
305.2000,0.0632804,208.101,0.145659
305.1000,1.91721,209.012,0.15868
305.0000,1.35052,207.527,0.137423
304.9000,0.140109,207.648,0.139163
304.8000,-0.487301,207.631,0.138919
304.7000,1.87087,208.164,0.146551
304.6000,-0.0902726,206.874,0.128044
304.5000,0.699391,208.533,0.151835
304.4000,0.845539,207.781,0.141064
304.3000,2.2787,207.921,0.143078
304.2000,1.26141,207.989,0.144052
304.1000,1.96611,208.269,0.148059
304.0000,0.548386,207.899,0.142753
303.9000,1.51413,208.079,0.145334
303.8000,1.15202,207.737,0.14043
303.7000,0.148501,208.038,0.14475
303.6000,0.984005,208.296,0.148448
303.5000,0.641255,207.772,0.140934
303.4000,-1.11422,208.109,0.145772
303.3000,2.29334,207.757,0.140723
303.2000,2.18722,208.676,0.153876
303.1000,1.09132,207.604,0.138529
303.0000,0.929146,207.776,0.140999
302.9000,1.80179,208.157,0.146454
302.8000,-0.387287,207.926,0.143143
302.7000,1.32041,208.469,0.150912
302.6000,1.55742,207.808,0.141454
302.5000,-0.0795676,207.411,0.135764
302.4000,-0.3625,208.36,0.149356
302.3000,3.48882,207.304,0.134218
302.2000,1.7337,207.194,0.132639
302.1000,1.71129,207.648,0.139163
302.0000,1.21763,207.581,0.138204
301.9000,0.834539,205.993,0.115337
301.8000,1.32399,207.799,0.141324
301.7000,2.05098,206.533,0.123133
301.6000,1.68559,207.511,0.137195
301.5000,1.43442,206.345,0.120422
301.4000,-1.14965,208.862,0.15653
301.3000,0.374589,207.938,0.143322
301.2000,0.259592,207.783,0.141097
301.1000,2.9124,207.645,0.139114
301.0000,0.905567,209.156,0.160733
300.9000,2.50253,208.342,0.149097
300.8000,0.957735,207.494,0.136952
300.7000,0.334075,208.31,0.148643
300.6000,1.5028,208.515,0.151576
300.5000,0.935815,208.471,0.150944
300.4000,1.29151,208.067,0.145172
300.3000,0.875478,209.276,0.162445
300.2000,0.696147,206.65,0.124814
300.1000,0.364407,207.415,0.135813
300.0000,2.40155,208.576,0.152451
299.9000,0.0604378,208.126,0.146016
299.8000,0.639145,207.939,0.143338
299.7000,1.44313,208.543,0.151981
299.6000,1.23877,208.835,0.156141
299.5000,0.559188,207.645,0.139114
299.4000,2.11006,207.606,0.138561
299.3000,1.71644,208.043,0.144815
299.2000,0.509861,208.442,0.150539
299.1000,-0.0366988,206.835,0.127473
299.0000,1.20162,207.769,0.140902
298.9000,1.91379,207.959,0.143614
298.8000,-0.560529,207.653,0.139228
298.7000,0.917414,207.877,0.142445
298.6000,1.56654,206.368,0.120749
298.5000,2.29534,207.946,0.143435
298.4000,-0.227211,207.187,0.132541
298.3000,1.82397,207.694,0.139813
298.2000,0.223232,207.697,0.139862
298.1000,3.19505,208.101,0.145659
298.0000,-0.54187,206.488,0.12248
297.9000,-0.412873,207.155,0.132085
297.8000,2.026,206.979,0.129544
297.7000,0.965685,207.257,0.133551
297.6000,2.93058,207.16,0.13215
297.5000,1.80692,208.296,0.148448
297.4000,0.832221,207.544,0.137667
297.3000,1.10668,209.469,0.16519
297.2000,2.45901,208.056,0.14501
297.1000,2.65657,208.574,0.152418
297.0000,-0.151229,207.507,0.13713
296.9000,0.374909,207.55,0.137748
296.8000,-0.154922,207.341,0.134755
296.7000,1.73014,207.371,0.135178
296.6000,0.892279,207.559,0.137879
296.5000,-1.1959,207.511,0.137195
296.4000,1.2156,207.143,0.131906
296.3000,0.43283,207.436,0.136122
296.2000,1.96532,208.005,0.144279
296.1000,0.272399,208.933,0.157548
296.0000,0.494642,207.947,0.143451
295.9000,1.82711,207.759,0.140755
295.8000,0.963517,208.277,0.148173
295.7000,1.36421,207.144,0.131922
295.6000,0.330235,206.886,0.128207
295.5000,1.73956,205.918,0.114257
295.4000,1.57625,206.581,0.123819
295.3000,1.11747,206.577,0.12377
295.2000,1.74772,206.653,0.124863
295.1000,0.773148,207.508,0.137147
295.0000,-0.360543,207.085,0.131075
294.9000,2.31431,207.876,0.142429
294.8000,0.805101,207.852,0.142087
294.7000,1.39467,208.03,0.144636
294.6000,1.85594,208.5,0.151366
294.5000,1.11656,207.965,0.143711
294.4000,0.736092,207.692,0.139797
294.3000,2.53004,207.256,0.133534
294.2000,1.97919,206.76,0.126397
294.1000,2.84892,206.524,0.123003
294.0000,2.0823,207.345,0.134804
293.9000,1.29672,206.778,0.126658
293.8000,0.265413,207.652,0.139212
293.7000,1.84447,207.797,0.141292
293.6000,2.08027,206.694,0.125451
293.5000,1.19817,207.223,0.133062
293.4000,2.27605,206.659,0.124945
293.3000,1.45833,207.548,0.137732
293.2000,0.903003,207.413,0.13578
293.1000,-0.112612,207.367,0.13513
293.0000,2.14643,206.894,0.128321
292.9000,-0.376742,207.328,0.13456
292.8000,1.05117,208.41,0.150069
292.7000,0.933282,207.228,0.133127
292.6000,1.49306,207.05,0.13057
292.5000,1.74485,206.772,0.126576
292.4000,1.86963,208.116,0.14587
292.3000,2.33332,206.838,0.127522
292.2000,1.48317,206.634,0.124586
292.1000,-0.0009142,206.406,0.121304
292.0000,0.610364,206.939,0.128973
291.9000,0.793218,206.886,0.128207
291.8000,1.01476,206.073,0.116498
291.7000,1.86526,207.434,0.13609
291.6000,0.132939,205.15,0.103143
291.5000,0.970205,207.144,0.131922
291.4000,2.34534,206.187,0.118134
291.3000,1.44379,207.683,0.139667
291.2000,1.79519,207.09,0.131141
291.1000,0.85821,206.847,0.127653
291.0000,0.682619,206.631,0.124537
290.9000,2.12292,206.513,0.122839
290.8000,1.60692,206.781,0.126707
290.7000,1.49956,206.676,0.12519
290.6000,0.36578,206.262,0.119229
290.5000,0.976528,205.884,0.113766
290.4000,1.42764,206.895,0.128337
290.3000,-0.593418,206.872,0.128011
290.2000,0.584002,207.678,0.139586
290.1000,0.9133,206.797,0.126935
290.0000,1.08317,206.289,0.119605
289.9000,1.66263,207.564,0.13796
289.8000,2.13122,206.718,0.125793
289.7000,-0.734731,207.717,0.140154
289.6000,1.73734,208.829,0.15606
289.5000,0.415412,206.794,0.126886
289.4000,0.688797,206.645,0.124749
289.3000,-0.442079,208.129,0.146048
289.2000,0.43702,206.474,0.122284
289.1000,1.88528,207.928,0.143175
289.0000,1.29301,207.476,0.136691
288.9000,2.67698,206.347,0.120455
288.8000,1.06081,207.108,0.131401
288.7000,-0.200938,207.398,0.135569
288.6000,2.13949,207.171,0.132313
288.5000,1.02414,206.887,0.128223
288.4000,0.0771799,207.159,0.132134
288.3000,2.02173,207.108,0.131401
288.2000,0.999119,207.013,0.130033
288.1000,2.01881,206.559,0.123509
288.0000,2.06885,206.555,0.123443
287.9000,1.56715,206.462,0.122104
287.8000,1.02584,206.909,0.128549
287.7000,2.24399,206.54,0.123231
287.6000,2.14667,207.169,0.132281
287.5000,2.88326,206.448,0.121909
287.4000,0.351102,207.206,0.132818
287.3000,1.63247,206.445,0.121859
287.2000,2.30826,207.526,0.137407
287.1000,1.84497,206.975,0.129495
287.0000,1.85847,206.844,0.127604
286.9000,0.94485,206.393,0.121108
286.8000,-0.0174989,206.849,0.127685
286.7000,-0.835743,206.412,0.121386
286.6000,-0.115461,206.649,0.124798
286.5000,1.23217,206.923,0.128745
286.4000,1.56627,207.049,0.130554
286.3000,0.609712,206.591,0.123966
286.2000,2.22074,207.061,0.130733
286.1000,1.39762,206.828,0.127376
286.0000,0.374901,206.911,0.128566
285.9000,1.35817,206.575,0.123737
285.8000,0.307777,206.997,0.129804
285.7000,2.86707,207.839,0.141893
285.6000,1.60722,206.184,0.118101
285.5000,0.574562,207.403,0.13565
285.4000,2.26025,206.759,0.126381
285.3000,1.59403,205.967,0.114961
285.2000,1.47599,206.468,0.122186
285.1000,0.645245,207.093,0.131189
285.0000,2.30827,207.153,0.132053
284.9000,1.81205,206.608,0.124211
284.8000,0.409258,206.589,0.123933
284.7000,1.50292,207.266,0.133681
284.6000,1.43954,206.58,0.123803
284.5000,0.635457,206.657,0.124912
284.4000,0.0459034,207.03,0.130277
284.3000,0.575569,207.224,0.133079
284.2000,1.16904,206.936,0.128925
284.1000,0.574324,206.96,0.129283
284.0000,0.898317,206.907,0.128517
283.9000,1.19475,206.017,0.115681
283.8000,1.333,206.054,0.116221
283.7000,2.16595,206.886,0.128207
283.6000,2.68157,206.508,0.122774
283.5000,1.81837,207.638,0.139017
283.4000,1.28961,205.453,0.107541
283.3000,0.799697,207.673,0.13952
283.2000,3.00399,206.613,0.124276
283.1000,0.821853,206.989,0.12969
283.0000,1.30413,207.422,0.13591
282.9000,2.68266,206.788,0.126805
282.8000,1.41007,207.594,0.138383
282.7000,2.54939,206.897,0.12837
282.6000,2.61616,209.511,0.165787
282.5000,0.264156,207.569,0.138025
282.4000,2.20278,206.108,0.117006
282.3000,1.40375,207.577,0.138139
282.2000,1.85289,207.785,0.141129
282.1000,1.61899,205.891,0.113864
282.0000,1.26937,207.717,0.140154
281.9000,1.2477,206.665,0.125027
281.8000,0.551926,205.725,0.111474
281.7000,0.758866,207.969,0.14376
281.6000,0.684202,206.334,0.120258
281.5000,1.39349,206.373,0.12083
281.4000,1.12085,206.738,0.126087
281.3000,1.37541,206.337,0.120308
281.2000,0.754811,206.257,0.119147
281.1000,1.20944,206.701,0.125549
281.0000,1.73392,206.721,0.125842
280.9000,0.984302,207.705,0.139975
280.8000,4.2143,207.542,0.137635
280.7000,1.23667,205.663,0.110573
280.6000,1.54877,205.884,0.113766
280.5000,0.796202,207.91,0.142916
280.4000,-0.131637,205.995,0.11537
280.3000,-0.551059,207.18,0.132444
280.2000,0.865513,206.076,0.116531
280.1000,0.86615,207.492,0.136919
280.0000,2.12636,206.843,0.127587
279.9000,1.32152,206.741,0.12612
279.8000,1.5758,206.763,0.126446
279.7000,-0.396353,205.324,0.105671
279.6000,0.190388,205.838,0.113095
279.5000,0.453067,207.079,0.130994
279.4000,2.18543,207.376,0.13526
279.3000,0.675189,206.904,0.128468
279.2000,0.763942,207.087,0.131108
279.1000,0.0701724,206.722,0.125859
279.0000,0.932849,207.104,0.131352
278.9000,0.745162,206.975,0.129495
278.8000,-0.39158,207.461,0.13648
278.7000,0.11937,207.011,0.130016
278.6000,0.739919,206.426,0.121582
278.5000,-0.315111,207.39,0.135455
278.4000,-1.81953,206.904,0.128468
278.3000,0.856805,205.822,0.112866
278.2000,2.19504,206.845,0.12762
278.1000,-1.00013,206.627,0.124488
278.0000,1.25311,206.976,0.129511
277.9000,2.2952,207.369,0.135162
277.8000,-0.387425,207.204,0.132786
277.7000,1.75924,208.472,0.150961
277.6000,0.876047,206.745,0.126185
277.5000,2.84067,206.92,0.128696
277.4000,1.99431,207.209,0.132851
277.3000,0.394489,207.513,0.137228
277.2000,2.53953,207.26,0.133583
277.1000,1.59919,207.163,0.132199
277.0000,0.497633,207.544,0.137667
276.9000,1.5034,206.932,0.128876
276.8000,2.53216,206.776,0.126625
276.7000,0.977588,208.168,0.146616
276.6000,1.10197,206.073,0.116498
276.5000,2.01249,207.142,0.13189
276.4000,0.115868,206.211,0.118494
276.3000,0.678873,207.194,0.132639
276.2000,2.137,206.69,0.125385
276.1000,1.29032,206.7,0.125532
276.0000,1.55679,207.313,0.134348
275.9000,2.81974,207.585,0.138252
275.8000,1.47713,207.154,0.132069
275.7000,0.0814406,206.923,0.128745
275.6000,0.40906,207.185,0.132509
275.5000,-0.0222803,207.377,0.135276
275.4000,2.37516,206.296,0.119719
275.3000,1.27463,207.11,0.131434
275.2000,0.507481,207.475,0.136675
275.1000,1.3051,208.276,0.148156
275.0000,-0.148823,207.885,0.142558
274.9000,1.77054,207.142,0.13189
274.8000,0.723188,207.534,0.137521
274.7000,0.275197,206.912,0.128582
274.6000,-1.29123,207.575,0.138106
274.5000,0.664652,207.901,0.142786
274.4000,-0.219157,207.338,0.134707
274.3000,1.30911,208.515,0.151576
274.2000,1.24156,207.137,0.131825
274.1000,0.268368,207.677,0.139569
274.0000,1.29347,206.438,0.121762
273.9000,0.263218,207.691,0.13978
273.8000,0.33228,207.168,0.132265
273.7000,0.336315,208.114,0.145837
273.6000,1.15488,207.15,0.132004
273.5000,0.10241,207.637,0.139
273.4000,-0.0648697,207.207,0.132835
273.3000,0.469989,206.976,0.129511
273.2000,1.31157,206.977,0.129527
273.1000,0.17723,207.337,0.13469
273.0000,0.645795,207.505,0.137114
272.9000,0.824267,207.334,0.134658
272.8000,1.13521,208.092,0.145529
272.7000,1.90515,207.401,0.135618
272.6000,0.298146,207.911,0.142932
272.5000,2.63634,207.66,0.139325
272.4000,0.971484,207.857,0.142152
272.3000,0.91421,207.792,0.141227
272.2000,1.56075,207.632,0.138935
272.1000,1.80823,207.612,0.138643
272.0000,1.39144,207.26,0.133583
271.9000,0.801488,207.169,0.132281
271.8000,2.04623,206.8,0.126968
271.7000,2.75328,207.267,0.133697
271.6000,1.14697,207.456,0.136398
271.5000,0.940007,207.667,0.139439
271.4000,1.72629,208.327,0.148886
271.3000,-0.391364,207.258,0.133567
271.2000,-0.938817,207.853,0.142104
271.1000,1.25906,208.244,0.147703
271.0000,1.60286,208.226,0.147443
270.9000,0.781892,206.949,0.12912
270.8000,2.08727,207.856,0.142136
270.7000,0.87909,207.383,0.135357
270.6000,-0.803976,209.982,0.172493
270.5000,0.797389,207.692,0.139797
270.4000,0.535536,207.215,0.132948
270.3000,0.426817,208.225,0.147427
270.2000,0.639935,207.408,0.135715
270.1000,-0.358492,207.593,0.138366
270.0000,1.33809,206.188,0.11815
269.9000,0.285916,208.524,0.151706
269.8000,0.0916285,207.825,0.141698
269.7000,2.02026,208.14,0.14621
269.6000,-0.0743453,207.995,0.144133
269.5000,-0.21642,207.825,0.141698
269.4000,1.17733,209.715,0.16869
269.3000,0.196647,207.45,0.136317
269.2000,2.05405,208.165,0.146567
269.1000,1.73181,207.57,0.138041
269.0000,0.349657,208.601,0.152807
268.9000,1.09606,208.066,0.145156
268.8000,1.09836,206.507,0.122758
268.7000,2.35325,208.635,0.153293
268.6000,0.651998,208.405,0.150004
268.5000,0.870448,207.616,0.138708
268.4000,0.832323,207.551,0.137765
268.3000,-0.404039,207.257,0.133551
268.2000,0.0160933,208.014,0.144409
268.1000,1.11853,207.318,0.13443
268.0000,1.04552,209.069,0.159489
267.9000,1.19932,208.569,0.152354
267.8000,-0.289437,208.744,0.154847
267.7000,-1.50055,208.442,0.150539
267.6000,0.0366486,206.894,0.128321
267.5000,-0.766753,208.687,0.154037
267.4000,0.167653,208.003,0.144247
267.3000,1.8032,208.744,0.154847
267.2000,0.74633,208.409,0.150053
267.1000,1.48292,209.105,0.160006
267.0000,0.974942,207.524,0.137374
266.9000,0.825117,207.837,0.141876
266.8000,2.66608,207.945,0.143419
266.7000,0.848153,207.69,0.139764
266.6000,1.43363,207.938,0.143322
266.5000,0.13757,207.741,0.140495
266.4000,0.287294,209.346,0.16343
266.3000,-0.012101,209.928,0.17172
266.2000,0.486047,209.061,0.159376
266.1000,1.10223,207.877,0.142445
266.0000,0.308409,207.481,0.136756
265.9000,-0.106331,208.004,0.144263
265.8000,2.45697,208.258,0.147897
265.7000,0.966459,208.047,0.14488
265.6000,1.07993,208.956,0.157872
265.5000,0.841541,207.599,0.138464
265.4000,-0.582547,208.38,0.149648
265.3000,0.196467,209.201,0.161363
265.2000,0.257244,208.496,0.151301
265.1000,2.55882,208.377,0.149599
265.0000,0.380739,208.785,0.155429
264.9000,-0.0483327,209.207,0.16146
264.8000,1.66312,208.973,0.158114
264.7000,-0.816636,208.813,0.155834
264.6000,1.19523,209.786,0.169706
264.5000,0.233551,208.539,0.151916
264.4000,0.580212,209.658,0.167884
264.3000,0.0931817,207.968,0.143744
264.2000,-0.0229018,209.866,0.170834
264.1000,-0.211812,208.424,0.15028
264.0000,1.26675,206.115,0.117104
263.9000,-0.680472,209.794,0.169818
263.8000,0.684936,209.776,0.169561
263.7000,-1.4438,209.903,0.171365
263.6000,0.410489,209.04,0.159068
263.5000,0.618038,208.578,0.152483
263.4000,1.75897,209.818,0.170157
263.3000,-0.0657296,210.087,0.173974
263.2000,0.703017,209.125,0.16028
263.1000,1.07616,210.472,0.179444
263.0000,0.663886,209.56,0.166481
262.9000,-1.56951,209.446,0.164867
262.8000,1.17684,209.389,0.164044
262.7000,0.620102,209.275,0.162429
262.6000,-0.390781,209.382,0.163947
262.5000,1.28138,209.572,0.166658
262.4000,0.257904,210.097,0.174119
262.3000,-0.486623,209.435,0.164706
262.2000,-0.00378898,209.651,0.167787
262.1000,0.0675441,208.685,0.154005
262.0000,3.16588,210.382,0.178174
261.9000,0.835106,210.558,0.180665
261.8000,1.44418,210.195,0.175519
261.7000,-0.94809,210.217,0.175825
261.6000,-0.106921,209.655,0.167836
261.5000,1.61781,208.827,0.156028
261.4000,1.56807,210.953,0.186269
261.3000,-1.27243,210.633,0.181726
261.2000,-0.483299,210.105,0.174232
261.1000,1.47118,209.889,0.171172
261.0000,-0.499915,210.351,0.177723
260.9000,0.49142,210.896,0.185451
260.8000,1.98047,210.28,0.176726
260.7000,-0.256287,210.421,0.17872
260.6000,-0.808835,209.517,0.165867
260.5000,2.49037,209.246,0.162009
260.4000,-0.363763,211.035,0.187424
260.3000,1.39734,209.038,0.159052
260.2000,1.08263,210.206,0.175664
260.1000,0.0966384,210.879,0.18521
260.0000,1.28029,210.51,0.17999
259.9000,0.949911,210.646,0.181919
259.8000,1.35239,210.775,0.183749
259.7000,-1.36441,210.382,0.178174
259.6000,1.45638,210.393,0.178318
259.5000,0.304573,210.182,0.175326
259.4000,2.27433,210.331,0.17745
259.3000,-0.206997,210.117,0.174409
259.2000,0.748731,209.893,0.17122
259.1000,-0.498707,210.593,0.181163
259.0000,1.13343,210.499,0.17983
258.9000,0.483308,210.977,0.186606
258.8000,0.0766791,212.618,0.209762
258.7000,2.18306,209.879,0.171027
258.6000,2.15065,211.064,0.187841
258.5000,0.517076,210.526,0.180215
258.4000,1.12397,210.998,0.186895
258.3000,0.0686102,211.098,0.188322
258.2000,1.30908,211.183,0.189525
258.1000,1.41406,212.12,0.202758
258.0000,1.00153,210.977,0.186606
257.9000,-0.14548,211.188,0.189589
257.8000,1.21904,210.519,0.180119
257.7000,0.571035,210.804,0.184151
257.6000,0.622165,211.331,0.191608
257.5000,0.525986,210.843,0.184712
257.4000,2.06421,211.472,0.19361
257.3000,1.37457,209.188,0.161185
257.2000,0.857258,210.702,0.182705
257.1000,0.742247,210.6,0.18126
257.0000,0.811836,210.697,0.182641
256.9000,1.20818,211.434,0.193066
256.8000,2.06156,211.386,0.192393
256.7000,-0.945167,210.565,0.180762
256.6000,1.08695,211.596,0.195355
256.5000,0.926646,212.505,0.208168
256.4000,2.27185,211.881,0.199386
256.3000,0.0322903,211.02,0.187216
256.2000,-0.0621304,211.243,0.190374
256.1000,0.232152,211.918,0.199897
256.0000,0.691917,211.972,0.200665
255.9000,0.452166,212.031,0.201495
255.8000,0.101043,211.584,0.195195
255.7000,0.89519,211.919,0.199913
255.6000,-0.140658,212.009,0.201192
255.5000,1.63416,212.276,0.204945
255.4000,0.0453737,212.619,0.209778
255.3000,0.201354,212.912,0.213905
255.2000,-0.201239,211.945,0.200281
255.1000,0.731411,211.982,0.200808
255.0000,-0.542373,211.478,0.19369
254.9000,1.41619,212.083,0.20223
254.8000,1.40972,211.711,0.196987
254.7000,2.00713,211.817,0.198474
254.6000,2.71927,212.058,0.201879
254.5000,1.32724,211.507,0.194107
254.4000,0.496425,213.365,0.220252
254.3000,3.49896,211.56,0.194843
254.2000,-0.112492,212.386,0.206493
254.1000,0.42011,211.758,0.197643
254.0000,-0.489616,211.916,0.199881
253.9000,1.78738,212.552,0.208838
253.8000,2.10031,212.457,0.207498
253.7000,0.183324,212.21,0.204019
253.6000,1.68572,212.282,0.205041
253.5000,2.27212,212.409,0.206828
253.4000,0.144255,212.165,0.20338
253.3000,0.931122,211.347,0.191832
253.2000,3.10377,212.086,0.202278
253.1000,0.211306,213.657,0.224351
253.0000,-0.0327138,211.343,0.191784
252.9000,1.03298,212.302,0.205312
252.8000,-0.884167,213.08,0.21626
252.7000,0.00845339,212.806,0.212408
252.6000,2.0734,214.885,0.241521
252.5000,3.05689,212.446,0.207338
252.4000,0.420957,213.166,0.217469
252.3000,0.391682,212.848,0.212997
252.2000,1.56247,212.831,0.212758
252.1000,0.440263,214.204,0.232012
252.0000,0.57906,213.06,0.215974
251.9000,-1.20103,213.029,0.215544
251.8000,2.41902,213.445,0.221381
251.7000,1.10098,213.691,0.224827
251.6000,2.27489,213.302,0.219378
251.5000,1.42885,213.204,0.217994
251.4000,1.64226,213.853,0.227097
251.3000,0.933936,212.797,0.21228
251.2000,1.26214,214.794,0.240257
251.1000,-0.221449,212.081,0.202198
251.0000,2.25426,213.659,0.224383
250.9000,0.530012,213.579,0.223255
250.8000,0.654608,214.161,0.231409
250.7000,0.963063,213.793,0.226256
250.6000,0.437228,213.192,0.217835
250.5000,1.10066,212.697,0.210878
250.4000,2.61756,214.271,0.232946
250.3000,0.816643,214.96,0.242564
250.2000,1.27784,213.431,0.22119
250.1000,0.28774,213.827,0.226732
250.0000,0.527202,214.521,0.236445
249.9000,0.579834,212.42,0.206972
249.8000,0.57312,213.614,0.223747
249.7000,-0.174848,212.602,0.209539
249.6000,0.382055,213.002,0.215162
249.5000,0.458832,213.845,0.226985
249.4000,3.61036,214.198,0.231932
249.3000,-1.05689,213.689,0.224796
249.2000,0.623537,215.3,0.2473
249.1000,-0.444903,212.31,0.205424
249.0000,1.36857,213.098,0.216515
248.9000,1.01997,213.155,0.21731
248.8000,0.0805803,215.098,0.244491
248.7000,0.598366,214.073,0.230173
248.6000,-1.49902,213.6,0.223557
248.5000,-0.0804047,214.703,0.238976
248.4000,2.35523,213.947,0.228413
248.3000,0.355069,213.178,0.217629
248.2000,-1.3527,213.871,0.227351
248.1000,-0.0679594,214.017,0.229396
248.0000,-0.599742,213.394,0.220666
247.9000,1.49747,212.985,0.214923
247.8000,2.1118,214.913,0.241916
247.7000,0.572043,213.45,0.221444
247.6000,1.39189,213.911,0.227906
247.5000,0.0652106,214.484,0.235923
247.4000,1.24434,214.324,0.233691
247.3000,3.19686,214.291,0.233231
247.2000,1.38581,215.276,0.246969
247.1000,1.05075,214.83,0.240747
247.0000,-0.352235,215.635,0.251967
246.9000,2.07261,215.269,0.246874
246.8000,0.586406,214.184,0.231726
246.7000,0.297663,214.937,0.242248
246.6000,1.24417,213.624,0.22389
246.5000,0.0833112,214.443,0.235353
246.4000,2.72727,215.504,0.250139
246.3000,0.930225,216.25,0.260513
246.2000,0.269294,214.662,0.238407
246.1000,-0.289361,214.825,0.240683
246.0000,-0.213679,215.326,0.247663
245.9000,0.453009,214.089,0.230395
245.8000,-0.431798,217.064,0.271783
245.7000,1.54196,216.273,0.260828
245.6000,2.07953,215.227,0.24629
245.5000,2.13897,215.778,0.253952
245.4000,0.559863,214.96,0.242564
245.3000,1.38746,216.942,0.27009
245.2000,1.48072,215.287,0.247127
245.1000,0.494387,215.123,0.244838
245.0000,0.428265,215.419,0.248957
244.9000,0.362865,216.381,0.262321
244.8000,0.13009,213.94,0.228318
244.7000,-0.68162,215.317,0.247537
244.6000,1.15211,215.322,0.247616
244.5000,1.26157,214.699,0.238929
244.4000,0.0391035,215.613,0.251652
244.3000,-0.0450236,215.988,0.256864
244.2000,-1.32188,216.909,0.269635
244.1000,2.84475,214.799,0.24032
244.0000,1.06395,216.725,0.267094
243.9000,0.254352,216.678,0.266435
243.8000,1.08223,216.645,0.26598
243.7000,1.7922,215.607,0.251573
243.6000,2.27568,216.769,0.267706
243.5000,-0.00991524,215.83,0.254677
243.4000,0.871036,215.684,0.252645
243.3000,-2.38898,216.439,0.263122
243.2000,-0.393845,215.88,0.255369
243.1000,1.19259,216.372,0.262195
243.0000,0.272304,215.863,0.255133
242.9000,-0.579785,216.488,0.263813
242.8000,3.14698,215.634,0.251952
242.7000,1.20514,214.772,0.239941
242.6000,0.980288,215.55,0.250785
242.5000,-1.21535,216.235,0.260293
242.4000,0.879087,215.78,0.253984
242.3000,1.81153,215.968,0.256597
242.2000,0.148034,215.259,0.246732
242.1000,0.364319,216.443,0.263185
242.0000,1.9249,216.662,0.266215
241.9000,0.328076,215.62,0.251763
241.8000,2.005,216.781,0.267863
241.7000,-0.436618,216.705,0.266812
241.6000,1.37113,216.406,0.262666
241.5000,0.402554,215.328,0.247695
241.4000,1.67864,216.657,0.266153
241.3000,-0.521278,217.602,0.279219
241.2000,1.45929,217.199,0.273647
241.1000,-0.158161,216.71,0.26689
241.0000,2.61216,217.106,0.272363
240.9000,2.88435,216.577,0.265038
240.8000,2.51544,218.063,0.285579
240.7000,1.95145,216.924,0.269839
240.6000,0.111474,219.394,0.303863
240.5000,-0.075838,217.258,0.274462
240.4000,1.17288,216.927,0.269886
240.3000,0.803709,217.692,0.280455
240.2000,1.98772,217.244,0.274274
240.1000,0.576249,218.809,0.295838
240.0000,2.03574,217.978,0.284408
239.9000,0.179396,217.98,0.284424
239.8000,0.155778,217.919,0.283596
239.7000,1.42724,219.142,0.300412
239.6000,1.1169,219.028,0.298841
239.5000,0.27684,218.637,0.293471
239.4000,-0.0337449,218.248,0.288123
239.3000,1.30822,218.58,0.292692
239.2000,0.995703,217.516,0.278031
239.1000,2.24493,218.003,0.284752
239.0000,-0.0214731,218.374,0.289855
238.9000,0.947739,218.902,0.297114
238.8000,0.251015,219.007,0.298561
238.7000,2.0566,219.498,0.305291
238.6000,0.0135101,218.909,0.297208
238.5000,0.636915,219.259,0.302013
238.4000,-0.602258,219.015,0.29867
238.3000,0.751326,218.939,0.297628
238.2000,2.82337,219.476,0.304996
238.1000,0.1906,218.471,0.291196
238.0000,0.60618,219.797,0.309389
237.9000,1.1482,220.145,0.314147
237.8000,1.89595,219.273,0.302215
237.7000,0.525424,219.609,0.306813
237.6000,2.36801,220.238,0.315417
237.5000,0.451681,221.713,0.335524
237.4000,3.3904,219.508,0.305431
237.3000,1.72446,219.925,0.311141
237.2000,-0.548541,219.256,0.301982
237.1000,1.09354,219.609,0.306813
237.0000,1.97341,219.162,0.300692
236.9000,0.703904,219.791,0.309311
236.8000,-0.190611,220.154,0.314271
236.7000,2.06866,219.645,0.307309
236.6000,-1.05682,220.55,0.319689
236.5000,1.73842,221.066,0.326719
236.4000,0.609371,220.504,0.319055
236.3000,0.453888,219.619,0.306952
236.2000,1.1925,220.57,0.319952
236.1000,0.37641,221.379,0.330978
236.0000,1.24819,219.756,0.30883
235.9000,1.08071,221.426,0.331625
235.8000,0.745217,220.589,0.320215
235.7000,1.75022,221.38,0.330993
235.6000,2.20307,221.357,0.330685
235.5000,0.543957,221.363,0.330762
235.4000,-1.51628,220.715,0.321931
235.3000,1.92157,221.052,0.326534
235.2000,2.07767,221.799,0.336694
235.1000,-0.361553,221.444,0.331872
235.0000,1.56104,220.792,0.322982
234.9000,1.93884,221.787,0.336524
234.8000,0.510636,220.949,0.325129
234.7000,0.537235,221.337,0.330407
234.6000,0.883063,220.753,0.322456
234.5000,0.897526,221.75,0.336032
234.4000,0.427867,221.185,0.32834
234.3000,0.130903,220.592,0.320261
234.2000,2.42733,222.821,0.350554
234.1000,2.6422,221.461,0.332103
234.0000,1.69226,222.999,0.352961
233.9000,1.58265,222.15,0.341463
233.8000,0.259336,223.169,0.35526
233.7000,2.38241,223.488,0.359576
233.6000,0.472034,222.803,0.350309
233.5000,0.518998,223.279,0.356745
233.4000,-0.68164,222.572,0.347179
233.3000,2.08954,222.235,0.342616
233.2000,-0.29268,224.173,0.368806
233.1000,1.97891,223.273,0.356668
233.0000,0.889602,223.752,0.36314
232.9000,1.30855,223.19,0.355551
232.8000,1.16054,224.111,0.367966
232.7000,2.11038,223.465,0.359255
232.6000,-0.28532,223.064,0.353835
232.5000,2.47032,224.03,0.366882
232.4000,-0.454866,224.173,0.368806
232.3000,2.32624,224.411,0.372009
232.2000,1.46109,223.683,0.362207
232.1000,1.67619,224.1,0.367829
232.0000,1.12546,223.646,0.361703
231.9000,1.10558,224.032,0.366913
231.8000,0.469341,223.392,0.358276
231.7000,-1.57635,224.302,0.370545
231.6000,1.95488,224.096,0.367768
231.5000,1.34345,224.619,0.374814
231.4000,2.05645,225.512,0.3868
231.3000,1.46217,225.892,0.391884
231.2000,0.629789,224.44,0.372405
231.1000,2.43238,224.668,0.375469
231.0000,1.16085,224.743,0.376474
230.9000,-0.658514,225.312,0.384111
230.8000,-0.805305,225.292,0.383852
230.7000,2.13675,224.575,0.374219
230.6000,-0.272522,223.212,0.355842
230.5000,2.33728,225.579,0.387695
230.4000,2.11727,224.971,0.379534
230.3000,0.64423,224.573,0.374189
230.2000,1.21984,224.405,0.371933
230.1000,2.13601,225.951,0.392672
230.0000,1.60029,225.131,0.381694
229.9000,0.366825,224.999,0.379914
229.8000,1.99914,225.893,0.391899
229.7000,1.90187,225.561,0.387453
229.6000,1.61023,226.161,0.395491
229.5000,0.113311,226.346,0.39796
229.4000,2.36492,225.376,0.384977
229.3000,-0.107762,225.802,0.390685
229.2000,1.54567,225.656,0.388728
229.1000,-0.390339,226.328,0.397717
229.0000,2.1825,225.917,0.392217
228.9000,-0.738514,226.106,0.394748
228.8000,2.24565,227.113,0.408195
228.7000,1.57174,225.269,0.383533
228.6000,1.01224,226.444,0.399261
228.5000,2.41858,227.05,0.407349
228.4000,2.32639,227.253,0.410051
228.3000,1.57729,227.054,0.40741
228.2000,1.89218,227.034,0.407138
228.1000,0.90391,227.537,0.413837
228.0000,1.27618,228,0.419997
227.9000,-0.193891,227.858,0.418101
227.8000,1.88492,227.672,0.415631
227.7000,2.70994,227.894,0.418582
227.6000,1.03215,228.219,0.422901
227.5000,1.16761,227.715,0.416203
227.4000,1.52273,228.321,0.424254
227.3000,3.19652,228.794,0.430517
227.2000,-0.276629,228.839,0.431117
227.1000,2.08102,228.757,0.430036
227.0000,1.99572,228.448,0.425937
226.9000,3.54108,229.624,0.441499
226.8000,2.0006,227.954,0.41938
226.7000,0.730111,228.863,0.431432
226.6000,1.30147,228.526,0.426974
226.5000,1.1209,228.576,0.427634
226.4000,1.05672,229.009,0.433367
226.3000,0.858659,229.549,0.440512
226.2000,2.98884,229.64,0.441709
226.1000,2.32891,229.699,0.442487
226.0000,2.00141,230.592,0.454254
225.9000,3.26101,229.749,0.443145
225.8000,0.794983,230.044,0.447046
225.7000,0.385492,230.469,0.452644
225.6000,-0.376767,229.712,0.442666
225.5000,1.03277,229.784,0.443609
225.4000,-0.179033,230.295,0.450346
225.3000,1.81906,230.154,0.448495
225.2000,3.0627,230.276,0.450092
225.1000,0.400197,230.492,0.452942
225.0000,1.10223,230.844,0.457578
224.9000,2.08625,231.054,0.460332
224.8000,1.13413,231.021,0.459901
224.7000,1.25776,231.775,0.469787
224.6000,2.26502,231.468,0.465761
224.5000,2.09061,231.608,0.467604
224.4000,-0.617015,231.346,0.46417
224.3000,1.10434,231.181,0.461999
224.2000,0.198904,231.83,0.470514
224.1000,1.94318,231.139,0.461448
224.0000,3.1774,231.847,0.470737
223.9000,1.7952,232.274,0.476328
223.8000,-1.54159,232.023,0.473037
223.7000,-0.992199,232.001,0.472755
223.6000,2.61914,231.783,0.469891
223.5000,0.64016,231.9,0.471434
223.4000,1.63684,232.515,0.479469
223.3000,1.32569,232.444,0.478551
223.2000,-1.60296,232.673,0.481541
223.1000,2.28926,232.813,0.483361
223.0000,0.827887,233.131,0.487515
222.9000,4.49423,233.039,0.486318
222.8000,0.295548,233.058,0.48657
222.7000,1.41458,233.14,0.487633
222.6000,-1.37336,233.002,0.485831
222.5000,1.67345,233.481,0.492078
222.4000,0.686911,233.606,0.493701
222.3000,2.40096,233.086,0.486924
222.2000,-1.22746,233.548,0.492948
222.1000,1.6221,233.564,0.493155
222.0000,0.629657,233.727,0.495279
221.9000,1.71372,234.316,0.502938
221.8000,-1.43592,234.44,0.504541
221.7000,0.550578,233.929,0.497902
221.6000,-1.78148,234.104,0.500185
221.5000,0.926681,234.427,0.504379
221.4000,-0.61154,234.45,0.504673
221.3000,2.02931,234.547,0.505938
221.2000,-0.263867,234.735,0.508378
221.1000,2.42373,234.653,0.507305
221.0000,2.01726,235.007,0.511902
220.9000,0.832331,235.496,0.518223
220.8000,-0.0617164,234.863,0.510037
220.7000,2.2663,236.036,0.525205
220.6000,0.284101,235.24,0.51491
220.5000,-0.33498,236.01,0.524869
220.4000,0.716143,235.428,0.517343
220.3000,1.64918,235.553,0.51897
220.2000,1.42109,235.374,0.516654
220.1000,0.925232,236.145,0.526609
220.0000,2.20062,235.4,0.516991
219.9000,-0.601566,237.03,0.538009
219.8000,1.03895,235.398,0.516962
219.7000,0.721363,235.806,0.522235
219.6000,3.2078,236.22,0.527574
219.5000,2.17443,235.246,0.514998
219.4000,2.76365,236.452,0.530568
219.3000,0.0247224,235.467,0.517856
219.2000,2.73293,236.591,0.532364
219.1000,1.10616,236.657,0.533211
219.0000,0.763288,237.694,0.546539
218.9000,1.25631,238.51,0.556993
218.8000,0.0871981,238.301,0.554325
218.7000,3.46366,236.623,0.532773
218.6000,0.940797,237.015,0.537819
218.5000,0.459679,237.387,0.542597
218.4000,0.723826,237.855,0.548603
218.3000,-0.123937,237.718,0.546844
218.2000,1.28878,238.127,0.552089
218.1000,2.74839,238.069,0.551349
218.0000,1.03542,237.269,0.541083
217.9000,3.50673,238.05,0.551102
217.8000,3.09684,238.009,0.550579
217.7000,0.216654,238.291,0.554194
217.6000,3.12968,238.641,0.558675
217.5000,2.74544,236.818,0.535282
217.4000,1.68775,239.435,0.56882
217.3000,1.95913,237.901,0.549199
217.2000,1.08081,239.361,0.567866
217.1000,2.20187,238.648,0.558762
217.0000,1.24571,239.282,0.566869
216.9000,2.9375,239.129,0.564916
216.8000,2.31747,239.339,0.567591
216.7000,1.21469,239.767,0.573053
216.6000,0.336911,239.214,0.566001
216.5000,1.39692,240.767,0.585763
216.4000,1.20426,241.153,0.590666
216.3000,-0.943835,238.938,0.56247
216.2000,0.323933,239.254,0.566507
216.1000,3.07024,238.715,0.559617
216.0000,1.84817,240.855,0.586885
215.9000,1.04067,240.315,0.580019
215.8000,1.24174,240.181,0.578318
215.7000,1.39636,241.383,0.593582
215.6000,1.60198,239.851,0.574121
215.5000,3.80073,241.125,0.590307
215.4000,2.79936,239.656,0.571637
215.3000,4.05736,239.856,0.574178
215.2000,1.75403,241.36,0.593294
215.1000,-0.443254,241.13,0.590379
215.0000,-0.51913,239.807,0.573558
214.9000,-0.860331,239.951,0.57539
214.8000,2.6364,241.109,0.590106
214.7000,1.62754,240.581,0.583403
214.6000,1.72755,240.556,0.583087
214.5000,2.31279,241.553,0.595734
214.4000,1.46451,241.712,0.597743
214.3000,2.95125,241.164,0.59081
214.2000,0.887784,240.838,0.58667
214.1000,1.98725,240.483,0.582165
214.0000,2.11795,243.59,0.621443
213.9000,2.93131,241.741,0.598115
213.8000,1.75118,242.73,0.610612
213.7000,0.94105,242.476,0.60741
213.6000,4.06447,242.995,0.613954
213.5000,3.39383,242.271,0.60482
213.4000,-2.40038,243.77,0.623707
213.3000,1.87055,242.697,0.610197
213.2000,3.73639,242.833,0.611912
213.1000,0.732687,243.095,0.615211
213.0000,3.61926,243.273,0.617451
212.9000,3.69403,243.075,0.614954
212.8000,2.72216,244.191,0.628987
212.7000,1.63232,242.867,0.612341
212.6000,1.78466,243.33,0.618164
212.5000,2.6612,243.025,0.614326
212.4000,2.27948,243.857,0.62479
212.3000,6.47735,244.234,0.629527
212.2000,2.34599,244.275,0.630039
212.1000,0.709401,243.391,0.618934
212.0000,-1.38169,244.164,0.628645
211.9000,0.10499,244.803,0.636657
211.8000,1.58555,244.381,0.631375
211.7000,3.01266,244.055,0.62728
211.6000,2.80569,244.113,0.628005
211.5000,0.309874,244.641,0.634628
211.4000,0.175921,244.687,0.63521
211.3000,-0.0897529,244.968,0.638728
211.2000,3.66284,244.937,0.638345
211.1000,2.93243,245.114,0.640558
211.0000,1.97278,245.834,0.649548
210.9000,0.567171,244.956,0.638573
210.8000,2.46418,245.351,0.643519
210.7000,2.95017,245.71,0.648006
210.6000,1.72289,246.016,0.651824
210.5000,3.07856,245.808,0.649223
210.4000,0.78156,246.163,0.653661
210.3000,-0.287498,245.694,0.647808
210.2000,-0.328659,246.243,0.654649
210.1000,2.51858,245.921,0.650637
210.0000,3.93442,245.766,0.648699
209.9000,2.01557,246.752,0.660985
209.8000,0.11843,247.342,0.668322
209.7000,1.34693,247.792,0.673903
209.6000,0.102906,246.843,0.662126
209.5000,0.744338,245.327,0.643221
209.4000,1.35413,247.003,0.664113
209.3000,-0.200374,248.53,0.683052
209.2000,-0.0187112,247.763,0.673552
209.1000,0.0774897,246.401,0.656626
209.0000,0.92494,248.444,0.681986
208.9000,1.16413,247.26,0.667309
208.8000,3.61309,248.432,0.681832
208.7000,2.14889,248.391,0.681328
208.6000,2.18839,248.098,0.677694
208.5000,2.63051,248.134,0.678144
208.4000,0.870997,249.429,0.694148
208.3000,0.758359,246.737,0.660801
208.2000,-0.190678,248.555,0.68336
208.1000,4.17685,248.759,0.685881
208.0000,1.57606,250.139,0.702898
207.9000,-0.101658,249.628,0.696606
207.8000,-2.13037,251.47,0.719227
207.7000,4.68135,250.73,0.710153
207.6000,2.6132,249.623,0.696536
207.5000,1.42679,249.844,0.699258
207.4000,2.13965,250.095,0.702355
207.3000,3.38328,251.251,0.716547
207.2000,1.35444,251.659,0.721544
207.1000,-0.263258,250.835,0.711447
207.0000,1.56044,251.584,0.720628
206.9000,4.35008,252.519,0.732056
206.8000,2.1854,251.61,0.720947
206.7000,2.20153,250.752,0.710432
206.6000,0.475713,252.355,0.73005
206.5000,-0.71329,252.743,0.734793
206.4000,3.97425,252.59,0.732927
206.3000,1.31584,251.526,0.719921
206.2000,0.0797451,252.682,0.734047
206.1000,2.50001,252.796,0.735443
206.0000,2.58457,250.96,0.712976
205.9000,1.96358,252.015,0.725896
205.8000,1.31142,252.27,0.729012
205.7000,-0.228674,252.927,0.737031
205.6000,5.15687,252.191,0.728057
205.5000,1.14306,252.637,0.733494
205.4000,3.79365,254.82,0.76004
205.3000,3.93915,253.846,0.748216
205.2000,-0.0980228,254.196,0.752469
205.1000,1.51824,254.07,0.750941
205.0000,3.60865,253.584,0.745034
204.9000,3.01204,254.527,0.756483
204.8000,4.53404,254.801,0.759806
204.7000,4.03074,254.69,0.758461
204.6000,-0.964401,254.905,0.761069
204.5000,1.76652,254.689,0.758447
204.4000,0.330962,255.605,0.76954
204.3000,3.25934,255.719,0.770909
204.2000,2.07121,256.462,0.779877
204.1000,3.09397,254.614,0.75754
204.0000,1.15053,255.911,0.773235
203.9000,2.77263,256.53,0.780696
203.8000,3.25079,256.572,0.781201
203.7000,1.78203,256.854,0.784598
203.6000,-1.623,257.38,0.79092
203.5000,0.671753,257.222,0.789027
203.4000,4.14257,257.193,0.788673
203.3000,4.68813,257.219,0.788986
203.2000,0.979797,257.482,0.792145
203.1000,1.85982,257.68,0.794526
203.0000,2.06834,258.52,0.80459
202.9000,4.31998,258.523,0.80463
202.8000,-0.12702,258.276,0.801673
202.7000,2.22056,258.133,0.799962
202.6000,-0.17361,258.665,0.806325
202.5000,4.01694,258.974,0.810025
202.4000,5.54094,259.06,0.811054
202.3000,2.0331,259.808,0.81998
202.2000,4.91877,259.623,0.817778
202.1000,1.03392,259.63,0.817859
202.0000,0.349589,260.506,0.828291
201.9000,2.86992,260.6,0.82941
201.8000,1.56948,261.4,0.83891
201.7000,6.51689,261.666,0.842067
201.6000,1.66185,262.699,0.854294
201.5000,-1.0095,261.603,0.841315
201.4000,0.897611,262.127,0.847529
201.3000,0.894899,262.009,0.846134
201.2000,1.7236,262.162,0.847944
201.1000,3.39898,262.512,0.852085
201.0000,-0.698896,262.869,0.856301
200.9000,5.38343,263.061,0.858561
200.8000,-0.384131,263.101,0.859029
200.7000,1.02895,263.405,0.862623
200.6000,4.06752,263.35,0.861969
200.5000,-0.586414,263.584,0.864733
200.4000,0.896869,264.073,0.870481
200.3000,1.10135,264.076,0.870521
200.2000,3.37226,264.03,0.869974
200.1000,-1.51616,264.475,0.875209
200.0000,-0.805812,264.534,0.875901
199.9000,2.23344,265.472,0.886903
199.8000,4.9089,264.648,0.877245
199.7000,0.379441,265.467,0.88685
199.6000,2.26249,265.789,0.890617
199.5000,2.78822,265.53,0.88758
199.4000,0.361054,265.589,0.88827
199.3000,0.716642,266.219,0.895637
199.2000,0.681407,265.653,0.889026
199.1000,-0.127317,266.412,0.8979
199.0000,2.34557,265.657,0.889066
198.9000,2.60966,266.092,0.894154
198.8000,0.857443,267.699,0.912885
198.7000,5.55911,266.282,0.896378
198.6000,3.4077,266.826,0.902726
198.5000,4.2663,267.448,0.909972
198.4000,0.722853,266.699,0.901246
198.3000,6.1426,266.604,0.900135
198.2000,0.29793,267.705,0.912964
198.1000,1.46857,267.185,0.906911
198.0000,2.40518,267.829,0.9144
197.9000,-1.31029,268.027,0.916705
197.8000,3.65591,269.139,0.929596
197.7000,-2.0866,268.994,0.927916
197.6000,3.47776,267.463,0.910143
197.5000,0.967543,267.976,0.916112
197.4000,-0.716361,268.392,0.920941
197.3000,4.52969,268.249,0.919284
197.2000,0.342535,267.986,0.916231
197.1000,3.46751,268.446,0.921572
197.0000,0.576066,268.864,0.92642
196.9000,-3.43719,268.847,0.926223
196.8000,2.15735,269.479,0.933529
196.7000,4.26753,269.193,0.930225
196.6000,1.61201,269.177,0.930042
196.5000,3.1781,270.297,0.942979
196.4000,-0.0366877,269.637,0.935363
196.3000,1.14081,270.348,0.943567
196.2000,0.566021,267.812,0.914203
196.1000,3.15549,269.498,0.933752
196.0000,5.51077,269.363,0.932192
195.9000,0.684104,270.586,0.94631
195.8000,0.394653,270.229,0.942194
195.7000,4.80838,269.608,0.935023
195.6000,1.73663,270.102,0.940729
195.5000,0.93191,270.388,0.944037
195.4000,2.27151,271.052,0.951687
195.3000,2.97703,269.166,0.92991
195.2000,-0.0040678,270.52,0.945553
195.1000,2.71559,270.72,0.947864
195.0000,0.0214892,270.601,0.946493
194.9000,2.17983,271.277,0.954268
194.8000,3.40939,270.431,0.944534
194.7000,1.05063,271.559,0.957512
194.6000,2.70994,271.305,0.954594
194.5000,4.82983,270.723,0.94789
194.4000,2.92747,271.015,0.951257
194.3000,4.64325,271.846,0.960805
194.2000,-0.56398,270.956,0.950578
194.1000,2.13254,271.904,0.961481
194.0000,0.955238,271.645,0.958501
193.9000,0.908743,270.928,0.950252
193.8000,2.27294,270.913,0.950082
193.7000,3.59353,270.183,0.941671
193.6000,1.66086,270.928,0.950252
193.5000,4.52834,271.293,0.954451
193.4000,1.41399,271.185,0.953212
193.3000,1.76915,271.007,0.951165
193.2000,3.35166,271.269,0.954177
193.1000,0.770741,271.171,0.953056
193.0000,1.71723,271.899,0.961416
192.9000,3.29556,270.561,0.946023
192.8000,0.917233,272.029,0.962912
192.7000,1.24424,270.56,0.94601
192.6000,3.69634,271.965,0.962171
192.5000,-2.7137,271.656,0.958632
192.4000,1.9935,272.928,0.973208
192.3000,-0.0958863,270.322,0.943266
192.2000,3.38128,273.68,0.981808
192.1000,2.88369,272.74,0.971055
192.0000,0.672824,272.427,0.967473
191.9000,-1.83513,271.259,0.95406
191.8000,4.40111,271.88,0.961195
191.7000,1.70679,270.88,0.949704
191.6000,3.37236,271.301,0.954542
191.5000,-2.13208,272.452,0.967758
191.4000,1.50315,271.49,0.956717
191.3000,2.02082,272.137,0.964147
191.2000,0.11745,270.206,0.941933
191.1000,-0.921271,272.122,0.963978
191.0000,-0.712465,272.885,0.972716
190.9000,-3.08225,272.419,0.967382
190.8000,2.11957,272.677,0.970342
190.7000,1.88168,272.042,0.963055
190.6000,5.79864,272.82,0.971976
190.5000,0.412179,272.53,0.968654
190.4000,3.13461,272.446,0.967694
190.3000,3.00543,273.124,0.975451
190.2000,5.56586,272.656,0.970095
190.1000,2.48627,272.193,0.964796
190.0000,0.747982,271.723,0.959399

##### Extended Information
[Comments]
Sample name,ECTC_BUFFER_928
Comment,BUFFER
User,TRICIACHESELDINE
Division
Company,Saint Mary's College

[Detailed Information]
Creation date,9/28/2022 4:11 PM

Data array type,Linear data array * 3
Horizontal axis,Wavelength [nm]
Vertical axis(1),CD [mdeg]
Vertical axis(2),HT [V]
Vertical axis(3),Abs
Start,320 nm
End,190 nm
Data interval,0.1 nm
Data points,1301    

[Measurement Information]
Instrument name,J-1500
Model name,J-1500
Serial No.,B051061638

Detector,PM-539
Detector S/N,B051061638
  Lock-in amp.,X mode
  HT volt,Auto

Accessory,PTC-517
Accessory S/N,B026561646
  Temperature,22.94 C
  Control sensor,Holder
  Monitor sensor,Holder

Measurement date,9/28/2022 4:11 PM

Photometric mode,CD, HT, Abs
Measure range,320 - 190 nm
Data pitch,0.1 nm
CD scale,20 mdeg/0.05 dOD
FL scale,20 mdeg/0.05 dOD
D.I.T.,8 msec
Bandwidth,2.00 nm
Start mode,Immediately
Scanning mode,Continuous
Scanning speed,200 nm/min
Baseline correction,None
Shutter control,Auto
No. of cycle,1/1
N2 Flowmeter,Manual

Solvent,NaPO4 buffer

