TITLE,ECTC_PROTEIN&ADDITIVE_928
DATA TYPE,
ORIGIN,JASCO
OWNER,
DATE,22/09/28
TIME,17:50:43
SPECTROMETER/DATA SYSTEM,
LOCALE,1033
RESOLUTION,
DELTAX,-0.1
XUNITS,NANOMETERS
YUNITS,CD [mdeg]
Y2UNITS,HT [V]
Y3UNITS,ABSORBANCE
FIRSTX,  320.0000
LASTX,  190.0000
NPOINTS,    1301
FIRSTY,     1.79209
MAXY,    57.43895
MINY,   -57.50724
XYDATA
320.0000,1.79209,207.716,0.140138
319.9000,3.14106,208.496,0.151301
319.8000,0.748015,206.821,0.127278
319.7000,-0.323429,207.873,0.14238
319.6000,0.51368,207.815,0.141551
319.5000,1.93496,207.654,0.139244
319.4000,0.4353,208.154,0.146405
319.3000,0.725807,208.062,0.145091
319.2000,3.43433,208.74,0.154798
319.1000,0.587231,207.985,0.143987
319.0000,0.791471,208.372,0.149534
318.9000,1.39192,208.746,0.154879
318.8000,0.256334,209.334,0.163269
318.7000,1.80641,208.047,0.14488
318.6000,0.620324,208.201,0.147086
318.5000,1.96322,206.214,0.118526
318.4000,-0.939045,207.812,0.141519
318.3000,1.48559,208.142,0.146243
318.2000,1.61068,209.264,0.162268
318.1000,0.399843,209.981,0.172477
318.0000,1.15818,210.202,0.175616
317.9000,0.43677,209.186,0.161153
317.8000,0.205721,209.053,0.159262
317.7000,1.01653,207.836,0.14186
317.6000,0.0975461,207.618,0.138724
317.5000,2.4271,207.534,0.137521
317.4000,-0.707069,207.196,0.132672
317.3000,0.911615,208.756,0.155025
317.2000,2.25309,208.129,0.146048
317.1000,3.46827,208.373,0.149551
317.0000,0.8265,208.405,0.150004
316.9000,-0.616091,207.486,0.136838
316.8000,1.33537,208.453,0.150685
316.7000,1.95548,206.633,0.12457
316.6000,-0.970206,207.766,0.140853
316.5000,2.68391,207.939,0.143338
316.4000,-1.62056,208.671,0.153811
316.3000,0.692261,208.569,0.152354
316.2000,-0.578817,207.97,0.143776
316.1000,0.396989,208.155,0.146421
316.0000,1.36744,208.367,0.149453
315.9000,1.80583,208.092,0.145529
315.8000,1.27191,208.592,0.152677
315.7000,1.75666,207.477,0.136708
315.6000,1.24306,208.009,0.144328
315.5000,1.00735,207.895,0.142705
315.4000,1.2792,207.914,0.14298
315.3000,0.910498,207.449,0.136301
315.2000,1.68227,208.108,0.145756
315.1000,0.65588,208.099,0.145626
315.0000,0.0151944,207.664,0.13939
314.9000,2.24146,207.884,0.142542
314.8000,2.64137,207.828,0.141746
314.7000,0.0488228,207.552,0.137781
314.6000,2.03934,208.024,0.144555
314.5000,1.80861,206.858,0.127816
314.4000,2.20539,208.292,0.148384
314.3000,0.799528,207.84,0.141909
314.2000,1.86276,208.561,0.15224
314.1000,-0.656328,208.023,0.144539
314.0000,1.40398,207.623,0.138805
313.9000,3.19625,208.618,0.15305
313.8000,0.726185,207.164,0.132216
313.7000,0.661115,206.897,0.12837
313.6000,2.88502,207.901,0.142786
313.5000,0.747733,208.014,0.144409
313.4000,0.33011,208.048,0.144896
313.3000,1.71149,207.688,0.139732
313.2000,2.50477,208.013,0.144393
313.1000,0.502626,207.197,0.132688
313.0000,2.53907,208.027,0.144588
312.9000,0.107486,207.2,0.13272
312.8000,-0.336901,208.3,0.148497
312.7000,1.50728,207.954,0.143549
312.6000,1.62444,206.027,0.115828
312.5000,-0.311913,207.482,0.136773
312.4000,0.0563639,207.388,0.135422
312.3000,0.0746303,207.664,0.13939
312.2000,1.12208,207.57,0.138041
312.1000,1.13669,207.895,0.142705
312.0000,0.545655,207.911,0.142932
311.9000,0.509501,207.715,0.140122
311.8000,1.74535,208.695,0.154151
311.7000,2.40368,207.071,0.13088
311.6000,0.698792,207.363,0.135064
311.5000,1.05513,209.16,0.160781
311.4000,0.189468,208.371,0.149518
311.3000,-0.577817,207.505,0.137114
311.2000,1.3306,207.594,0.138383
311.1000,-0.0112925,207.554,0.137814
311.0000,-0.570163,207.79,0.141194
310.9000,0.859557,207.663,0.139374
310.8000,1.28798,207.509,0.137163
310.7000,-0.16007,207.725,0.140268
310.6000,0.944198,208.307,0.148594
310.5000,1.70095,209.145,0.160571
310.4000,2.53671,206.936,0.128925
310.3000,1.77648,208.863,0.156546
310.2000,1.70823,208.155,0.146421
310.1000,2.16171,207.575,0.138106
310.0000,1.37654,207.207,0.132835
309.9000,1.06512,207.662,0.139358
309.8000,1.1721,206.93,0.128843
309.7000,1.94187,207.479,0.13674
309.6000,1.11653,207.524,0.137374
309.5000,1.78135,207.928,0.143175
309.4000,0.0238142,208.192,0.146956
309.3000,1.77619,207.558,0.137862
309.2000,0.541007,208.064,0.145123
309.1000,0.86841,207.677,0.139569
309.0000,2.43354,207.35,0.134885
308.9000,0.668829,207.822,0.141649
308.8000,0.151167,207.734,0.140398
308.7000,2.00529,207.064,0.130766
308.6000,0.846989,207.735,0.140414
308.5000,1.30655,207.513,0.137228
308.4000,0.930488,207.454,0.136382
308.3000,0.397835,207.052,0.130603
308.2000,-0.399892,207.786,0.141145
308.1000,1.29719,208.166,0.146583
308.0000,1.44629,207.355,0.134951
307.9000,0.975748,207.797,0.141292
307.8000,1.20753,207.679,0.139602
307.7000,1.98099,207.824,0.141681
307.6000,0.946146,206.574,0.123721
307.5000,2.0592,206.749,0.126234
307.4000,0.448067,207.504,0.137098
307.3000,1.55112,207.264,0.133649
307.2000,1.18471,206.375,0.120847
307.1000,0.348062,207.043,0.130473
307.0000,1.11753,209.412,0.164383
306.9000,-0.721571,208.07,0.145204
306.8000,1.43028,207.513,0.137228
306.7000,0.483786,208.628,0.153195
306.6000,2.06752,207.484,0.136805
306.5000,1.31935,207.16,0.13215
306.4000,0.937817,208.875,0.156724
306.3000,1.25629,207.891,0.14264
306.2000,0.137746,207.139,0.131857
306.1000,2.30729,207.027,0.130245
306.0000,0.919714,207.619,0.13874
305.9000,1.00822,207.28,0.133876
305.8000,1.67286,207.782,0.14108
305.7000,2.98747,206.401,0.121222
305.6000,0.317821,207.913,0.142964
305.5000,2.54704,207.341,0.134755
305.4000,0.755464,208.905,0.157144
305.3000,1.51593,208.257,0.147881
305.2000,1.44062,207.154,0.132069
305.1000,0.362624,207.166,0.132232
305.0000,0.9534,207.484,0.136805
304.9000,1.40513,207.774,0.140967
304.8000,0.672603,207.522,0.137358
304.7000,-0.50004,207.611,0.138626
304.6000,1.91085,207.303,0.134202
304.5000,1.05444,207.23,0.13316
304.4000,1.8034,207.547,0.137716
304.3000,2.55504,208.126,0.146016
304.2000,0.377237,206.856,0.127783
304.1000,1.99799,208.344,0.149129
304.0000,1.4011,206.336,0.120291
303.9000,1.10741,205.917,0.114241
303.8000,1.33612,208.07,0.145204
303.7000,-1.29515,207.419,0.135878
303.6000,-0.675071,207.57,0.138041
303.5000,0.288348,208.319,0.148773
303.4000,0.410187,206.426,0.121582
303.3000,1.09207,207.24,0.133306
303.2000,-0.427129,206.388,0.121043
303.1000,0.577927,207.607,0.138578
303.0000,2.03011,207.734,0.140398
302.9000,2.35746,207.871,0.142364
302.8000,1.11644,207.61,0.13861
302.7000,-0.0306598,207.766,0.140853
302.6000,2.2674,207.362,0.135048
302.5000,0.91652,207.121,0.131597
302.4000,-0.61517,207.272,0.133762
302.3000,1.48888,207.487,0.136854
302.2000,0.0461204,207.434,0.13609
302.1000,1.74293,207.812,0.141519
302.0000,-0.212485,208.117,0.145886
301.9000,-0.418668,207.244,0.133355
301.8000,0.219848,207.249,0.133437
301.7000,1.97228,207.779,0.141031
301.6000,0.22529,207.324,0.134511
301.5000,3.02978,207.258,0.133567
301.4000,2.1276,207.289,0.134007
301.3000,1.53489,207.152,0.132037
301.2000,1.13422,207.028,0.130261
301.1000,2.08844,207.315,0.134381
301.0000,2.46995,207.587,0.138285
300.9000,0.291555,207.419,0.135878
300.8000,0.63819,206.559,0.123509
300.7000,3.28529,208.106,0.145724
300.6000,0.590905,207.459,0.136447
300.5000,0.762946,207.176,0.132378
300.4000,2.41459,207.656,0.139277
300.3000,1.50469,207.118,0.131548
300.2000,2.00593,207.07,0.130864
300.1000,0.528236,206.746,0.126201
300.0000,2.2023,207.002,0.129886
299.9000,-0.938768,207.607,0.138578
299.8000,0.269623,207.814,0.141535
299.7000,2.73519,207.689,0.139748
299.6000,1.91889,206.716,0.125761
299.5000,0.210042,207.961,0.143646
299.4000,1.08185,207.194,0.132639
299.3000,0.772742,207.709,0.14004
299.2000,0.734086,208.495,0.151285
299.1000,1.35399,207.062,0.13075
299.0000,1.16459,205.452,0.107524
298.9000,0.13915,206.928,0.12881
298.8000,1.73132,207.082,0.131026
298.7000,1.99877,207.189,0.132574
298.6000,0.807644,208.188,0.146892
298.5000,2.06816,207.321,0.134462
298.4000,1.42914,207.236,0.133242
298.3000,0.391128,207.234,0.133209
298.2000,2.00747,207.614,0.138675
298.1000,1.13542,207.606,0.138561
298.0000,2.12034,206.773,0.126593
297.9000,1.51156,206.943,0.129039
297.8000,0.300568,207.436,0.136122
297.7000,1.03963,207.263,0.133632
297.6000,2.5708,206.749,0.126234
297.5000,-0.283732,205.232,0.104342
297.4000,1.46616,207.427,0.135992
297.3000,0.0873164,206.758,0.126364
297.2000,0.756679,207.341,0.134755
297.1000,1.10472,207.64,0.139049
297.0000,2.0863,206.373,0.12083
296.9000,0.839826,206.565,0.12359
296.8000,2.13415,207.56,0.137895
296.7000,0.581,207.381,0.135325
296.6000,1.8588,207.064,0.130766
296.5000,1.75439,208.032,0.144669
296.4000,1.03529,206.001,0.115452
296.3000,2.7042,207.167,0.132248
296.2000,1.78003,207.415,0.135813
296.1000,1.84714,208.078,0.145318
296.0000,0.908628,207.077,0.130962
295.9000,-0.706422,206.879,0.128109
295.8000,0.50176,206.977,0.129527
295.7000,1.57457,205.699,0.111097
295.6000,1.00298,207.071,0.13088
295.5000,1.06091,207.842,0.141941
295.4000,1.09369,207.108,0.131401
295.3000,0.426129,207.595,0.138399
295.2000,2.1603,206.95,0.129136
295.1000,0.696374,206.216,0.118559
295.0000,2.00892,207.995,0.144133
294.9000,1.21293,207.458,0.136431
294.8000,2.81615,207.052,0.130603
294.7000,1.69622,208.627,0.153179
294.6000,1.32388,205.731,0.111556
294.5000,1.14276,206.441,0.12181
294.4000,-0.329283,205.766,0.112063
294.3000,1.36432,206.673,0.125141
294.2000,0.970376,207.104,0.131352
294.1000,0.107824,206.166,0.11784
294.0000,1.07813,207.954,0.143549
293.9000,1.44545,206.904,0.128468
293.8000,1.45051,208.423,0.150264
293.7000,1.06397,207.031,0.130293
293.6000,1.39038,207.492,0.136919
293.5000,2.91199,206.925,0.128778
293.4000,-0.327418,207.117,0.131532
293.3000,-0.180428,206.53,0.123084
293.2000,-0.0171604,206.005,0.115517
293.1000,1.83147,207.323,0.134495
293.0000,1.12527,207.852,0.142087
292.9000,-0.904791,206.836,0.12749
292.8000,-0.748229,205.981,0.115173
292.7000,0.220676,207.473,0.136642
292.6000,1.58929,206.338,0.120324
292.5000,0.45711,207.23,0.13316
292.4000,2.42913,206.38,0.120929
292.3000,2.00372,206.125,0.117251
292.2000,-0.0281518,207.963,0.143679
292.1000,-0.491403,205.375,0.106409
292.0000,2.29417,206.647,0.124766
291.9000,1.47636,206.006,0.115534
291.8000,0.853459,207.255,0.133518
291.7000,0.956778,207.699,0.139894
291.6000,1.02402,206.211,0.118494
291.5000,0.699713,205.41,0.106917
291.4000,1.02965,207.173,0.132346
291.3000,2.19196,205.995,0.11537
291.2000,-0.0877548,205.924,0.114339
291.1000,1.88309,206.958,0.129251
291.0000,0.772179,206.937,0.128941
290.9000,1.75078,205.49,0.108065
290.8000,1.80315,206.209,0.118461
290.7000,-0.629212,205.805,0.11262
290.6000,0.860518,206.959,0.129267
290.5000,0.3227,206.942,0.129022
290.4000,1.20894,206.568,0.123639
290.3000,0.404504,206.18,0.118036
290.2000,0.319788,205.46,0.107639
290.1000,1.02992,207.186,0.132525
290.0000,-0.0446449,206.956,0.129218
289.9000,-0.0827785,207.374,0.135227
289.8000,1.26871,208.036,0.144718
289.7000,1.2141,206.886,0.128207
289.6000,2.32706,206.678,0.125222
289.5000,0.40148,207.399,0.135585
289.4000,0.384136,206.702,0.125565
289.3000,-0.080891,206.611,0.124259
289.2000,0.446018,206.613,0.124276
289.1000,0.912904,207.964,0.143695
289.0000,0.527574,207.137,0.131825
288.9000,1.9459,206.26,0.119196
288.8000,0.0769359,206.955,0.129202
288.7000,0.854385,207.81,0.141486
288.6000,0.41822,207.064,0.130766
288.5000,-0.178569,206.822,0.127294
288.4000,1.22164,206.968,0.129397
288.3000,1.82363,207.655,0.13926
288.2000,1.7571,207.773,0.14095
288.1000,1.13759,206.84,0.127555
288.0000,1.53695,207.508,0.137147
287.9000,2.52636,206.841,0.127571
287.8000,1.92082,206.964,0.129332
287.7000,2.01346,206.285,0.119556
287.6000,1.93807,207.699,0.139894
287.5000,0.793018,205.991,0.115304
287.4000,0.597785,206.922,0.128729
287.3000,0.295787,206.954,0.129185
287.2000,2.34802,207.119,0.131564
287.1000,1.42738,207.7,0.139911
287.0000,0.623053,206.946,0.129071
286.9000,1.41771,206.605,0.124162
286.8000,0.546869,206.863,0.127881
286.7000,0.866416,207.769,0.140902
286.6000,1.85892,205.059,0.10183
286.5000,2.66943,206.618,0.124358
286.4000,0.723875,206.259,0.11918
286.3000,-0.37718,207.149,0.131988
286.2000,0.304081,207.088,0.131124
286.1000,2.55807,206.794,0.126886
286.0000,1.67097,206.863,0.127881
285.9000,-0.681526,207.807,0.141438
285.8000,0.501024,207.337,0.13469
285.7000,0.330914,207.447,0.136268
285.6000,1.17797,206.858,0.127816
285.5000,0.967679,207.196,0.132672
285.4000,0.462953,207.751,0.140642
285.3000,1.65242,206.96,0.129283
285.2000,2.82147,206.734,0.126022
285.1000,1.61433,208.301,0.148513
285.0000,1.97399,206.142,0.117496
284.9000,0.181434,207.511,0.137195
284.8000,0.791365,206.854,0.127751
284.7000,0.170428,206.923,0.128745
284.6000,0.149468,207.999,0.144198
284.5000,0.173082,207.111,0.13145
284.4000,1.59169,206.938,0.128957
284.3000,0.770621,206.837,0.127506
284.2000,0.481002,206.626,0.124472
284.1000,-0.19719,208.147,0.146308
284.0000,1.55556,207.437,0.136138
283.9000,-1.41802,206.822,0.127294
283.8000,-0.094018,207.526,0.137407
283.7000,0.286693,206.906,0.1285
283.6000,0.600705,207.034,0.130342
283.5000,1.21082,207.607,0.138578
283.4000,1.81648,207.474,0.136659
283.3000,1.48161,207.168,0.132265
283.2000,-1.0976,206.982,0.129593
283.1000,1.57898,207.695,0.139829
283.0000,3.23567,207.026,0.130228
282.9000,0.720448,206.575,0.123737
282.8000,1.01722,206.895,0.128337
282.7000,1.4802,208.086,0.145432
282.6000,0.312731,207.298,0.134137
282.5000,2.01025,208.054,0.144977
282.4000,-0.22898,208.271,0.148092
282.3000,-0.27915,207.312,0.134332
282.2000,-1.23767,207.649,0.139179
282.1000,0.490562,207.291,0.134039
282.0000,0.456395,208.631,0.153228
281.9000,1.46754,207.04,0.130424
281.8000,0.0677364,207.261,0.1336
281.7000,2.68126,207.537,0.13757
281.6000,1.04129,205.767,0.11208
281.5000,2.5216,207.329,0.134576
281.4000,1.88261,207.195,0.132655
281.3000,0.924903,208.55,0.152078
281.2000,0.540469,208.083,0.145399
281.1000,1.50179,208.973,0.158114
281.0000,2.15023,206.388,0.121043
280.9000,-1.62754,206.57,0.123656
280.8000,0.8232,208.473,0.150977
280.7000,0.639228,208.89,0.156934
280.6000,0.98188,206.694,0.125451
280.5000,0.997476,205.346,0.105983
280.4000,0.901624,207.649,0.139179
280.3000,-0.53496,206.358,0.120602
280.2000,-0.193952,207.037,0.130391
280.1000,0.631412,207.186,0.132525
280.0000,2.05237,207.25,0.133453
279.9000,1.15964,208.172,0.146665
279.8000,0.313057,207.596,0.138415
279.7000,3.39093,206.373,0.12083
279.6000,0.380639,206.829,0.127392
279.5000,1.23258,206.055,0.116237
279.4000,-0.856949,207.162,0.132183
279.3000,0.140183,209.334,0.163269
279.2000,-0.10585,206.523,0.122986
279.1000,-0.123978,207.053,0.130619
279.0000,-0.213843,206.768,0.126511
278.9000,1.43214,206.364,0.1207
278.8000,0.846869,207.751,0.140642
278.7000,3.48856,207.039,0.130408
278.6000,0.362101,206.277,0.119441
278.5000,1.2387,207.483,0.136789
278.4000,0.170167,207.865,0.142266
278.3000,1.0226,207.138,0.131841
278.2000,0.924131,207.098,0.131255
278.1000,1.05121,207.843,0.141958
278.0000,-0.0626643,207.296,0.134104
277.9000,-0.286752,207.211,0.132883
277.8000,0.695458,207.342,0.134771
277.7000,0.536157,208.083,0.145399
277.6000,0.125775,207.266,0.133681
277.5000,0.790374,207.732,0.140365
277.4000,-0.727557,207.247,0.133404
277.3000,0.740122,207.196,0.132672
277.2000,0.30615,207.308,0.134283
277.1000,0.164069,206.326,0.120144
277.0000,1.44211,207.626,0.138838
276.9000,0.466688,207.919,0.143045
276.8000,-0.156407,207.494,0.136952
276.7000,1.84148,207.411,0.135764
276.6000,1.47198,207.422,0.13591
276.5000,2.66605,206.619,0.124374
276.4000,-0.0632559,207.825,0.141698
276.3000,0.940811,207.907,0.142867
276.2000,0.445294,206.376,0.120863
276.1000,0.771133,206.523,0.122986
276.0000,1.17762,207.362,0.135048
275.9000,0.667028,206.296,0.119719
275.8000,0.429214,208.029,0.14462
275.7000,0.736631,207.115,0.131499
275.6000,1.76858,207.806,0.141421
275.5000,0.654356,207.708,0.140024
275.4000,1.54666,206.3,0.119768
275.3000,1.0177,207.8,0.14134
275.2000,2.62767,207.043,0.130473
275.1000,2.63936,207.297,0.13412
275.0000,-0.0958715,207.212,0.132899
274.9000,0.355631,207.672,0.139504
274.8000,-0.243823,207.223,0.133062
274.7000,-0.306656,207.138,0.131841
274.6000,1.82984,208.011,0.14436
274.5000,0.42519,206.828,0.127376
274.4000,0.647843,206.262,0.119229
274.3000,1.79699,207.715,0.140122
274.2000,-1.40823,206.889,0.128256
274.1000,0.412562,208.5,0.151366
274.0000,0.801851,207.886,0.142574
273.9000,0.0622552,207.263,0.133632
273.8000,0.5749,207.922,0.143094
273.7000,-0.0401499,208.112,0.145805
273.6000,1.63803,207.89,0.142623
273.5000,1.8227,208.267,0.148027
273.4000,0.0339244,207.962,0.143663
273.3000,0.362055,206.82,0.127261
273.2000,0.884051,207.324,0.134511
273.1000,1.29522,207.597,0.138431
273.0000,-0.279558,207.352,0.134918
272.9000,1.38566,209.389,0.164044
272.8000,0.615803,207.911,0.142932
272.7000,1.82649,206.559,0.123509
272.6000,1.11203,206.176,0.117987
272.5000,2.05064,207.401,0.135618
272.4000,1.81205,207.373,0.135211
272.3000,0.500706,207.636,0.138984
272.2000,-0.0978057,208.09,0.145496
272.1000,0.908297,207.93,0.143208
272.0000,-0.283452,206.836,0.12749
271.9000,-0.278877,207.299,0.134153
271.8000,0.741591,207.176,0.132378
271.7000,0.893142,208.194,0.146989
271.6000,-0.694889,207.72,0.140187
271.5000,1.9609,207.408,0.135715
271.4000,1.5101,207.699,0.139894
271.3000,0.320566,207.815,0.141551
271.2000,0.126467,208.021,0.144506
271.1000,0.979212,207.911,0.142932
271.0000,0.735857,208.052,0.144945
270.9000,1.77276,208.662,0.153681
270.8000,0.64213,207.63,0.138903
270.7000,0.230678,208.041,0.144799
270.6000,0.588976,208.018,0.144458
270.5000,-0.967784,206.554,0.123427
270.4000,-0.229216,207.879,0.142477
270.3000,0.471656,207.779,0.141031
270.2000,-0.61344,208.231,0.147508
270.1000,1.56265,207.335,0.134674
270.0000,0.0925417,207.783,0.141097
269.9000,1.09698,208.667,0.153746
269.8000,-0.229866,209.232,0.161815
269.7000,-1.43169,207.163,0.132199
269.6000,1.68572,206.345,0.120422
269.5000,0.762968,208.186,0.146875
269.4000,-0.769911,209.563,0.166529
269.3000,0.333652,207.415,0.135813
269.2000,1.8793,208.626,0.153163
269.1000,0.567631,208.303,0.148546
269.0000,1.85311,208.019,0.144474
268.9000,1.19842,208.09,0.145496
268.8000,1.34397,207.85,0.142055
268.7000,0.19403,208.225,0.147427
268.6000,2.42795,208.639,0.153341
268.5000,-0.829279,208.719,0.154491
268.4000,0.615166,208.765,0.155154
268.3000,0.0220614,208.107,0.14574
268.2000,1.46423,208.555,0.152143
268.1000,-0.824289,207.874,0.142396
268.0000,0.298786,207.993,0.144101
267.9000,0.8116,207.87,0.142347
267.8000,-0.066312,209.514,0.165835
267.7000,0.0785889,208.454,0.150701
267.6000,1.65179,208.048,0.144896
267.5000,0.582408,207.986,0.144003
267.4000,0.316843,208.41,0.150069
267.3000,2.64306,208.198,0.147037
267.2000,-0.249806,208.517,0.151609
267.1000,0.83194,208.509,0.151495
267.0000,1.82653,208.623,0.153114
266.9000,0.861995,208.778,0.155332
266.8000,1.86701,208.356,0.149307
266.7000,-0.971648,207.221,0.13303
266.6000,1.19323,210.131,0.174602
266.5000,0.362061,208.487,0.151171
266.4000,0.794916,208.422,0.150248
266.3000,-0.27231,209.052,0.159246
266.2000,-0.700478,209.355,0.16356
266.1000,1.1005,208.807,0.155753
266.0000,2.6117,208.406,0.150021
265.9000,0.587211,208.84,0.156222
265.8000,-0.014462,209.24,0.161928
265.7000,0.778562,208.628,0.153195
265.6000,-0.375342,208.744,0.154847
265.5000,-0.0829796,209.459,0.165045
265.4000,1.52685,208.684,0.153989
265.3000,0.243904,208.878,0.156756
265.2000,-0.801267,208.229,0.147492
265.1000,-0.419737,209.292,0.162671
265.0000,-0.0166851,209.11,0.16007
264.9000,0.227249,208.501,0.151382
264.8000,-0.302691,208.925,0.157435
264.7000,2.60876,209.204,0.161412
264.6000,1.22381,209.176,0.161008
264.5000,0.578989,209.176,0.161008
264.4000,-0.113554,209.342,0.163382
264.3000,0.933596,208.949,0.157775
264.2000,1.55048,209.86,0.170753
264.1000,0.358458,209.959,0.172155
264.0000,1.32705,208.692,0.154102
263.9000,-0.605585,209.325,0.16314
263.8000,2.87179,209.109,0.160054
263.7000,0.276224,208.947,0.157743
263.6000,1.70479,209.237,0.16188
263.5000,0.0206937,209.497,0.165593
263.4000,0.854919,209.506,0.165722
263.3000,0.419442,209.392,0.164092
263.2000,0.0393578,210.094,0.174087
263.1000,-0.960231,209.287,0.162591
263.0000,2.45018,209.138,0.160474
262.9000,-0.82241,209.373,0.163818
262.8000,-0.190309,210.012,0.172912
262.7000,0.482066,209.734,0.168964
262.6000,-0.337958,209.089,0.15978
262.5000,0.119765,209.259,0.162203
262.4000,-0.773835,209.763,0.169367
262.3000,-0.145669,209.656,0.167852
262.2000,1.94874,209.119,0.1602
262.1000,0.497933,208.852,0.156384
262.0000,-0.444643,208.948,0.157759
261.9000,2.44765,209.726,0.168851
261.8000,0.22021,209.106,0.160022
261.7000,0.759301,209.76,0.169335
261.6000,0.35209,209.828,0.170302
261.5000,-0.393942,209.312,0.162946
261.4000,-0.451216,209.866,0.170834
261.3000,-0.21903,209.684,0.168255
261.2000,0.248569,210.568,0.18081
261.1000,-0.20419,210.237,0.176115
261.0000,0.181432,209.017,0.158745
260.9000,1.63659,209.681,0.168206
260.8000,-0.2893,209.651,0.167787
260.7000,-0.31369,210.066,0.173684
260.6000,-0.395185,210.245,0.176228
260.5000,1.92945,210.25,0.176292
260.4000,1.05169,210.251,0.176308
260.3000,-0.045718,210.297,0.176967
260.2000,0.780594,209.673,0.168094
260.1000,0.105491,210.024,0.173089
260.0000,-0.643549,210.351,0.177723
259.9000,0.363989,210.764,0.183589
259.8000,-0.497781,210.487,0.179653
259.7000,-1.84118,209.9,0.171317
259.6000,-0.158696,210.593,0.181163
259.5000,0.33289,212.171,0.203476
259.4000,-0.522936,210.774,0.183733
259.3000,1.46762,210.114,0.174361
259.2000,0.322411,210.481,0.179572
259.1000,0.482344,210.297,0.176967
259.0000,0.149529,210.063,0.173636
258.9000,-0.91502,211.169,0.189316
258.8000,1.2057,211.425,0.192938
258.7000,0.659436,210.464,0.179331
258.6000,-1.03278,210.859,0.184937
258.5000,-0.0671997,210.33,0.177434
258.4000,-1.04995,210.349,0.177707
258.3000,0.625941,211.129,0.188755
258.2000,-0.529195,210.712,0.18285
258.1000,1.56731,211.066,0.187857
258.0000,-0.476111,210.934,0.185996
257.9000,1.73201,211.296,0.191111
257.8000,0.218525,211.107,0.188451
257.7000,-0.873219,212.03,0.20148
257.6000,1.96097,210.812,0.184263
257.5000,1.66968,212.243,0.204482
257.4000,-1.41282,210.868,0.185066
257.3000,0.044572,211.153,0.189092
257.2000,1.26883,211.641,0.195995
257.1000,1.51443,211.415,0.192793
257.0000,-0.478418,211.608,0.195531
256.9000,0.0364934,211.063,0.187825
256.8000,1.45315,211.624,0.195755
256.7000,1.13705,211.643,0.196027
256.6000,-0.337,211.511,0.194154
256.5000,2.2366,211.434,0.193066
256.4000,-0.670104,211.315,0.191384
256.3000,1.18144,211.632,0.195867
256.2000,-0.296528,211.714,0.197019
256.1000,0.067008,211.375,0.192233
256.0000,-0.170287,210.957,0.186317
255.9000,0.454351,211.43,0.193018
255.8000,-0.430527,211.369,0.192153
255.7000,-0.298292,211.426,0.192953
255.6000,-2.71635,211.637,0.195931
255.5000,0.401822,211.958,0.200473
255.4000,0.749689,211.914,0.199849
255.3000,-0.467969,211.679,0.196523
255.2000,-0.288608,211.624,0.195755
255.1000,2.35523,212.015,0.201272
255.0000,-0.843754,211.165,0.189268
254.9000,-0.515659,211.292,0.191063
254.8000,-0.0556541,211.872,0.199258
254.7000,0.160811,211.728,0.197227
254.6000,-1.04497,211.204,0.189813
254.5000,0.95109,212.252,0.20461
254.4000,-0.105557,212.007,0.20116
254.3000,0.550901,212.05,0.201767
254.2000,0.110657,211.494,0.193914
254.1000,-0.340954,212.092,0.202358
254.0000,-0.134076,211.992,0.200952
253.9000,0.809605,212.001,0.20108
253.8000,0.711619,212.263,0.204769
253.7000,1.31596,212.408,0.206812
253.6000,0.746098,212.092,0.202358
253.5000,0.433712,212.227,0.204259
253.4000,1.06819,212.154,0.203237
253.3000,1.62131,211.939,0.200201
253.2000,0.927624,212.588,0.209348
253.1000,0.24843,211.573,0.195035
253.0000,-0.25711,212.587,0.209332
252.9000,0.912734,212.086,0.202278
252.8000,0.3746,212.268,0.204833
252.7000,0.962188,212.396,0.206636
252.6000,2.64925,212.425,0.207051
252.5000,0.0945969,212.478,0.207801
252.4000,-0.508202,212.292,0.205168
252.3000,1.5168,212.792,0.212216
252.2000,0.232421,213.139,0.217088
252.1000,-0.177178,212.892,0.213618
252.0000,-0.650802,212.671,0.210511
251.9000,-0.205068,213.235,0.21844
251.8000,-0.963349,213.775,0.226002
251.7000,1.46955,213.076,0.216197
251.6000,-0.569968,212.708,0.211037
251.5000,1.42955,212.846,0.212965
251.4000,1.00531,213.009,0.215258
251.3000,-0.0690685,213.061,0.21599
251.2000,0.938399,212.975,0.21478
251.1000,0.697666,211.722,0.197131
251.0000,1.00657,212.093,0.202374
250.9000,1.29765,213.643,0.22416
250.8000,0.733844,213.08,0.21626
250.7000,1.18031,212.773,0.211946
250.6000,-0.901965,214.184,0.231726
250.5000,-0.0185972,212.954,0.214494
250.4000,-0.537024,214.61,0.237679
250.3000,0.852003,212.856,0.213109
250.2000,-0.982771,212.834,0.212806
250.1000,1.20276,211.931,0.200089
250.0000,1.61237,213.864,0.227255
249.9000,-0.514047,213.085,0.216324
249.8000,0.82838,213.522,0.222461
249.7000,-0.168483,213.819,0.226621
249.6000,0.813333,212.467,0.207642
249.5000,-0.629794,213.48,0.221873
249.4000,1.77342,214.077,0.230237
249.3000,0.650957,213.472,0.221762
249.2000,-0.885355,214.282,0.233104
249.1000,0.312539,214.637,0.238059
249.0000,1.04108,214.535,0.236635
248.9000,-2.02666,214.211,0.232107
248.8000,-1.58108,213.771,0.225954
248.7000,0.231029,212.991,0.215003
248.6000,1.15486,214.627,0.237916
248.5000,1.13156,213.769,0.225922
248.4000,0.30007,213.802,0.226383
248.3000,-1.14048,213.192,0.217835
248.2000,-0.457571,213.749,0.225637
248.1000,0.720302,214.764,0.23983
248.0000,-0.273269,213.937,0.22827
247.9000,-0.419303,211.892,0.19953
247.8000,1.0402,213.87,0.227335
247.7000,-0.781709,213.911,0.227906
247.6000,-0.461757,213.653,0.224303
247.5000,-0.632243,213.946,0.228397
247.4000,0.469551,213.769,0.225922
247.3000,-0.352884,214.366,0.234276
247.2000,-0.496862,214.237,0.232471
247.1000,-0.895022,214.529,0.236556
247.0000,-0.574497,214.643,0.238138
246.9000,-1.50153,213.947,0.228413
246.8000,0.634887,213.789,0.226208
246.7000,0.231763,215.677,0.25255
246.6000,-1.75078,214.388,0.234577
246.5000,1.35495,215.963,0.256518
246.4000,-1.65769,215.055,0.243891
246.3000,-1.61519,213.802,0.226383
246.2000,-0.727164,215.497,0.250045
246.1000,-0.965039,215.113,0.244696
246.0000,0.485121,213.665,0.224462
245.9000,-1.01784,214.188,0.23179
245.8000,-1.05053,215.013,0.243306
245.7000,-0.294895,213.787,0.226176
245.6000,-2.27549,216.32,0.261472
245.5000,-1.11494,215.379,0.248405
245.4000,0.883572,216.074,0.25806
245.3000,-1.85001,214.588,0.237378
245.2000,-2.76982,213.677,0.224637
245.1000,-0.84291,215.153,0.245249
245.0000,-0.452324,215.963,0.256518
244.9000,-2.25032,214.958,0.242533
244.8000,-0.21175,215.004,0.24318
244.7000,-3.68681,213.98,0.228873
244.6000,-2.47485,215.683,0.252629
244.5000,-0.255575,216.12,0.258705
244.4000,-2.06798,215.35,0.247994
244.3000,-1.84491,216.656,0.266137
244.2000,-3.09289,216.699,0.266733
244.1000,-2.42449,216.35,0.261896
244.0000,-3.30304,216.757,0.267534
243.9000,-3.06737,215.394,0.24861
243.8000,-2.42221,215.62,0.251763
243.7000,-0.537785,215.005,0.243196
243.6000,-1.68713,216.706,0.266827
243.5000,-2.7389,217.507,0.277906
243.4000,-1.71007,216.207,0.259916
243.3000,-5.14892,215.898,0.255621
243.2000,-1.18913,216.266,0.260734
243.1000,-1.74578,216.877,0.269196
243.0000,-5.4589,216.124,0.258752
242.9000,-3.85813,215.581,0.251211
242.8000,-1.59686,217.125,0.272629
242.7000,-3.36658,216.518,0.264221
242.6000,-3.82454,216.361,0.262054
242.5000,-3.2693,216.359,0.262022
242.4000,-2.46261,216.42,0.262871
242.3000,-5.63619,215.771,0.253858
242.2000,-3.91377,215.14,0.245075
242.1000,-3.79648,216.845,0.268757
242.0000,-2.76115,218.016,0.284923
241.9000,-3.98799,217.082,0.272034
241.8000,-3.12987,218.309,0.288966
241.7000,-4.45034,215.771,0.253858
241.6000,-2.50314,216.794,0.268051
241.5000,-3.25569,217.66,0.280017
241.4000,-3.83908,217.995,0.284642
241.3000,-4.28182,218.238,0.287983
241.2000,-6.11749,218.007,0.284799
241.1000,-5.6313,218.385,0.290011
241.0000,-5.20872,218.634,0.29344
240.9000,-5.20505,218.649,0.293642
240.8000,-5.22617,218.336,0.28934
240.7000,-4.76929,218.031,0.285127
240.6000,-4.76577,217.625,0.279532
240.5000,-6.15229,218.137,0.286594
240.4000,-6.06412,219.083,0.299604
240.3000,-5.31438,218.233,0.28792
240.2000,-4.33008,219.161,0.300677
240.1000,-5.53408,220.048,0.31283
240.0000,-5.81682,219.213,0.301392
239.9000,-6.78959,218.244,0.288061
239.8000,-6.3998,219.088,0.299666
239.7000,-5.26909,219.058,0.299261
239.6000,-5.53055,219.728,0.308442
239.5000,-4.89624,219.311,0.302728
239.4000,-7.76225,219.76,0.308876
239.3000,-5.6353,219.818,0.309683
239.2000,-7.54587,220.867,0.324002
239.1000,-6.97898,220.167,0.314457
239.0000,-7.26341,219.846,0.310055
238.9000,-8.12965,221.591,0.33386
238.8000,-6.73609,220.895,0.324388
238.7000,-9.97847,221.359,0.330716
238.6000,-7.10074,220.732,0.322163
238.5000,-8.23952,221.415,0.331471
238.4000,-9.0352,221.152,0.327892
238.3000,-8.75024,221.58,0.333721
238.2000,-9.59909,221.642,0.334553
238.1000,-8.71397,222.076,0.340448
238.0000,-9.90271,222.455,0.345597
237.9000,-10.8118,222.317,0.343723
237.8000,-10.647,222.412,0.345013
237.7000,-8.60937,222.29,0.343354
237.6000,-9.20573,222.389,0.344706
237.5000,-9.54943,222.387,0.344675
237.4000,-9.54467,222.463,0.345704
237.3000,-10.3153,222.855,0.351014
237.2000,-12.6717,223.155,0.355076
237.1000,-10.0631,222.764,0.349787
237.0000,-10.0643,223.078,0.354034
236.9000,-9.98948,222.924,0.35195
236.8000,-9.90241,223.123,0.354632
236.7000,-11.0945,223.665,0.361963
236.6000,-12.0004,224.219,0.369431
236.5000,-12.4493,224.182,0.368928
236.4000,-12.9867,224.32,0.370789
236.3000,-14.9545,224.328,0.370896
236.2000,-10.6421,224.19,0.369035
236.1000,-15.421,224.456,0.372619
236.0000,-13.6427,225.162,0.382104
235.9000,-12.4464,224.648,0.375194
235.8000,-12.2809,225.161,0.382089
235.7000,-16.0679,225.043,0.380507
235.6000,-13.5314,225.548,0.387286
235.5000,-12.368,225.849,0.391307
235.4000,-14.9279,225.597,0.387939
235.3000,-15.643,225.903,0.392035
235.2000,-16.786,226.672,0.402317
235.1000,-15.1303,225.911,0.392141
235.0000,-15.2257,226.42,0.398944
234.9000,-18.9034,225.91,0.392126
234.8000,-18.3678,226.824,0.404343
234.7000,-17.7176,227.154,0.408738
234.6000,-15.6988,227.059,0.40747
234.5000,-18.5584,227.856,0.418085
234.4000,-18.0542,227.732,0.416429
234.3000,-17.6474,228.156,0.422058
234.2000,-19.761,228.021,0.420268
234.1000,-19.1423,228.252,0.423337
234.0000,-18.8719,228.144,0.421908
233.9000,-20.0485,228.816,0.430817
233.8000,-18.6108,229.012,0.433411
233.7000,-19.6716,229.065,0.434116
233.6000,-20.1148,228.822,0.430892
233.5000,-19.6191,230.018,0.446702
233.4000,-23.1365,229.983,0.446239
233.3000,-22.6709,229.584,0.440976
233.2000,-23.7655,229.703,0.442547
233.1000,-21.2907,229.919,0.445387
233.0000,-21.8798,230.441,0.452271
232.9000,-23.8911,229.871,0.44476
232.8000,-22.1338,230.622,0.454657
232.7000,-23.9592,231.32,0.463829
232.6000,-24.2596,231.462,0.465687
232.5000,-22.4796,231.626,0.467841
232.4000,-23.8471,231.324,0.463873
232.3000,-24.2963,233.31,0.489849
232.2000,-25.1307,231.335,0.464022
232.1000,-24.4454,231.619,0.467752
232.0000,-23.3478,232.161,0.474846
231.9000,-27.1526,231.742,0.469356
231.8000,-26.3967,232.231,0.475765
231.7000,-26.3573,233.729,0.495308
231.6000,-26.9123,232.841,0.483731
231.5000,-26.3395,234.069,0.499729
231.4000,-28.3349,234.488,0.505173
231.3000,-26.1777,233.808,0.49634
231.2000,-26.7569,232.856,0.483923
231.1000,-29.6792,233.552,0.493007
231.0000,-30.8361,234.095,0.500067
230.9000,-29.4357,234.327,0.503085
230.8000,-30.5311,235.548,0.518896
230.7000,-30.7267,234.111,0.500273
230.6000,-31.6053,233.665,0.494468
230.5000,-27.0234,235.105,0.513164
230.4000,-30.5303,236.603,0.53251
230.3000,-27.891,235.281,0.515452
230.2000,-29.8731,234.955,0.511226
230.1000,-31.3646,235.543,0.518838
230.0000,-32.3526,236.243,0.52788
229.9000,-30.2706,237.074,0.538577
229.8000,-33.1506,236.682,0.533532
229.7000,-34.7178,236.336,0.529078
229.6000,-31.9435,237.006,0.537702
229.5000,-32.2437,237.297,0.541447
229.4000,-34.0248,236.554,0.531883
229.3000,-32.9785,236.094,0.525951
229.2000,-32.7348,236.514,0.531372
229.1000,-38.3227,237.313,0.54165
229.0000,-36.3339,238.902,0.562007
228.9000,-34.6505,237.143,0.539466
228.8000,-35.5314,238.138,0.552234
228.7000,-34.6238,237.357,0.542218
228.6000,-37.9804,237.545,0.544634
228.5000,-33.9613,238.848,0.561326
228.4000,-37.5341,238.914,0.562166
228.3000,-37.685,238.619,0.558399
228.2000,-37.0774,238,0.550463
228.1000,-35.8311,239.572,0.570569
228.0000,-39.5823,240.406,0.581186
227.9000,-39.5146,241.791,0.598746
227.8000,-40.2316,240.949,0.588079
227.7000,-39.2733,241.375,0.593481
227.6000,-40.0413,240.812,0.586339
227.5000,-38.4875,241.377,0.59351
227.4000,-38.9823,241.84,0.599363
227.3000,-41.4037,241.252,0.591916
227.2000,-41.8364,241.269,0.592131
227.1000,-40.3226,242.378,0.606165
227.0000,-41.8059,241.624,0.596638
226.9000,-40.5917,243.285,0.617608
226.8000,-39.708,240.636,0.584109
226.7000,-40.7648,242.074,0.602329
226.6000,-41.0169,242.339,0.605679
226.5000,-40.5044,242.686,0.610055
226.4000,-42.615,243.679,0.622554
226.3000,-42.5817,244.031,0.626981
226.2000,-44.5821,243.467,0.619889
226.1000,-44.937,245.496,0.645332
226.0000,-45.1761,244.823,0.636913
225.9000,-43.8681,243.812,0.624234
225.8000,-44.2782,244.772,0.636274
225.7000,-45.9826,243.459,0.619789
225.6000,-43.6424,245.092,0.640274
225.5000,-45.1347,245.071,0.640019
225.4000,-47.2848,245.2,0.641635
225.3000,-43.5477,245.042,0.63965
225.2000,-45.8213,246.703,0.660378
225.1000,-46.4908,246.661,0.659857
225.0000,-44.2263,245.47,0.645006
224.9000,-46.8483,246.102,0.652898
224.8000,-47.1568,246.637,0.65956
224.7000,-44.4688,247.979,0.676221
224.6000,-43.796,247.651,0.672161
224.5000,-47.7045,247.364,0.668603
224.4000,-44.7062,247.507,0.670376
224.3000,-46.9338,247.899,0.675238
224.2000,-45.3813,247.452,0.669686
224.1000,-48.8506,248.715,0.685335
224.0000,-46.1823,248.289,0.680066
223.9000,-46.486,248.248,0.679561
223.8000,-48.5296,248.091,0.67761
223.7000,-47.29,248.77,0.686007
223.6000,-45.5989,248.363,0.680977
223.5000,-48.346,248.316,0.680402
223.4000,-45.3884,249.653,0.696913
223.3000,-46.4398,249.824,0.699021
223.2000,-49.9982,249.845,0.699272
223.1000,-49.249,250.438,0.706576
223.0000,-48.2751,249.324,0.692849
222.9000,-48.1896,250.687,0.709625
222.8000,-49.8239,251.322,0.717422
222.7000,-46.5269,251.935,0.724926
222.6000,-46.0759,250.916,0.712434
222.5000,-48.7807,251.132,0.715089
222.4000,-50.0192,252.335,0.729814
222.3000,-47.8403,252.396,0.730562
222.2000,-49.046,252.48,0.731586
222.1000,-50.0857,252.607,0.733134
222.0000,-47.7924,252.009,0.725827
221.9000,-45.803,253.726,0.746756
221.8000,-47.2207,254.43,0.755315
221.7000,-49.7917,252.939,0.737183
221.6000,-48.6173,253.413,0.742952
221.5000,-49.7055,251.813,0.723429
221.4000,-48.5931,254.921,0.761261
221.3000,-48.8587,253.894,0.748808
221.2000,-45.4366,254.425,0.755246
221.1000,-47.7479,255.133,0.763826
221.0000,-45.8704,255.304,0.765896
220.9000,-47.668,255.586,0.769307
220.8000,-49.6856,255.495,0.768212
220.7000,-47.9678,254.418,0.755163
220.6000,-48.2262,255.638,0.769937
220.5000,-48.1925,256.659,0.782251
220.4000,-47.2155,257.573,0.793247
220.3000,-48.1932,256.111,0.775642
220.2000,-47.1814,257.392,0.79107
220.1000,-47.2266,257.72,0.795002
220.0000,-45.0829,257.443,0.791682
219.9000,-47.1826,257.879,0.796919
219.8000,-46.552,257.913,0.797326
219.7000,-46.9011,258.512,0.804495
219.6000,-47.3268,257.985,0.798182
219.5000,-46.3862,258.299,0.801944
219.4000,-47.967,260.044,0.822789
219.3000,-46.1757,258.985,0.81016
219.2000,-49.8143,259.513,0.816466
219.1000,-48.1278,259.505,0.816372
219.0000,-48.21,259.864,0.820655
218.9000,-45.2113,259.82,0.820128
218.8000,-51.5088,259.502,0.816331
218.7000,-48.0893,259.891,0.820966
218.6000,-47.8683,260.723,0.830878
218.5000,-49.8496,260.914,0.83314
218.4000,-48.1566,260.854,0.832427
218.3000,-50.6842,261.93,0.845195
218.2000,-46.1321,260.813,0.831942
218.1000,-46.8051,262.005,0.84608
218.0000,-46.9049,261.192,0.83645
217.9000,-49.3318,262.643,0.853625
217.8000,-48.7058,262.874,0.856355
217.7000,-46.1656,262.793,0.855405
217.6000,-47.1673,263.286,0.861221
217.5000,-46.5933,262.426,0.851067
217.4000,-49.2905,264.575,0.87638
217.3000,-48.083,264.729,0.878189
217.2000,-49.1425,264.947,0.880755
217.1000,-45.8333,265.998,0.893055
217.0000,-48.1185,264.121,0.871054
216.9000,-44.2585,266.013,0.893227
216.8000,-45.3307,265.075,0.882257
216.7000,-42.9619,266.026,0.893386
216.6000,-48.1978,265.337,0.885324
216.5000,-48.1016,266.049,0.893651
216.4000,-50.0145,266.586,0.899924
216.3000,-47.9857,267.275,0.907954
216.2000,-47.1165,267.415,0.90959
216.1000,-49.5098,267.616,0.911923
216.0000,-44.0897,267.951,0.915823
215.9000,-45.0057,268.177,0.918442
215.8000,-50.6642,267.262,0.907809
215.7000,-43.3782,268.444,0.921546
215.6000,-46.1097,268.682,0.924305
215.5000,-47.5071,268.102,0.917573
215.4000,-47.1028,269.259,0.930986
215.3000,-49.8329,269.937,0.938832
215.2000,-46.6371,269.967,0.939173
215.1000,-47.921,270.443,0.944664
215.0000,-47.2443,269.765,0.936843
214.9000,-45.0593,270.054,0.94018
214.8000,-45.8089,271.807,0.960362
214.7000,-47.2099,271.957,0.96208
214.6000,-49.388,271.852,0.960883
214.5000,-46.2766,271.424,0.955962
214.4000,-47.7867,271.731,0.959491
214.3000,-45.6663,272.683,0.970407
214.2000,-48.2667,272.98,0.973805
214.1000,-45.8653,273.59,0.980786
214.0000,-43.8472,273.485,0.979582
213.9000,-48.7428,272.768,0.97138
213.8000,-47.9307,273.722,0.982287
213.7000,-46.926,274.304,0.98893
213.6000,-49.5384,274.633,0.992673
213.5000,-45.9783,275.176,0.998847
213.4000,-47.0497,274.864,0.995304
213.3000,-48.6638,276.125,1.00962
213.2000,-44.7159,276.628,1.01532
213.1000,-46.7615,275.607,1.00375
213.0000,-47.7393,276.993,1.01945
212.9000,-50.1059,276.661,1.01569
212.8000,-49.8781,276.238,1.01091
212.7000,-49.6838,278.159,1.0326
212.6000,-48.2387,277.232,1.02215
212.5000,-46.343,277.623,1.02656
212.4000,-48.3175,278.596,1.03753
212.3000,-49.8912,278.714,1.03885
212.2000,-48.3047,279.043,1.04255
212.1000,-48.6753,278.851,1.0404
212.0000,-52.0632,279.191,1.04421
211.9000,-49.0485,281.099,1.06558
211.8000,-50.6342,279.795,1.05099
211.7000,-47.1718,281.048,1.06501
211.6000,-49.6459,281.798,1.07338
211.5000,-50.1634,282.202,1.07787
211.4000,-50.3548,282.884,1.08546
211.3000,-55.927,282.893,1.08556
211.2000,-51.1136,283.015,1.08692
211.1000,-47.6322,282.348,1.0795
211.0000,-54.3652,282.858,1.08517
210.9000,-47.4713,284.647,1.10499
210.8000,-46.3008,284.81,1.10679
210.7000,-50.9247,285.044,1.10937
210.6000,-47.7779,285.375,1.11303
210.5000,-50.334,285.891,1.11871
210.4000,-46.5777,287.999,1.14185
210.3000,-46.2462,288.503,1.14736
210.2000,-52.4336,288.451,1.14679
210.1000,-51.6195,288.043,1.14233
210.0000,-54.0035,287.166,1.13272
209.9000,-48.4943,288.068,1.14261
209.8000,-49.6291,290.249,1.1664
209.7000,-48.9614,290.049,1.16423
209.6000,-52.4205,290.154,1.16536
209.5000,-48.538,291.971,1.18508
209.4000,-50.9862,292.107,1.18655
209.3000,-51.9501,292.977,1.19595
209.2000,-48.811,293.45,1.20104
209.1000,-55.1931,293.455,1.2011
209.0000,-53.0885,293.995,1.20691
208.9000,-53.8729,294.44,1.2117
208.8000,-57.5072,296.371,1.23238
208.7000,-49.6963,295.063,1.21838
208.6000,-50.0166,297.512,1.24456
208.5000,-43.7602,296.151,1.23003
208.4000,-50.6635,296.569,1.2345
208.3000,-49.619,297.479,1.24421
208.2000,-48.1356,299.047,1.26087
208.1000,-53.1376,298.47,1.25475
208.0000,-49.2327,299.789,1.26874
207.9000,-51.0104,300.391,1.2751
207.8000,-49.3607,301.456,1.28634
207.7000,-55.2634,302.01,1.29217
207.6000,-43.0547,302.12,1.29333
207.5000,-46.2321,303.488,1.30768
207.4000,-47.0577,303.33,1.30603
207.3000,-45.8043,304.31,1.31629
207.2000,-46.596,304.935,1.32281
207.1000,-46.6143,306.147,1.33544
207.0000,-50.418,308.355,1.35834
206.9000,-52.7226,308.049,1.35518
206.8000,-47.476,309.144,1.36648
206.7000,-43.6372,308.645,1.36134
206.6000,-42.8379,310.947,1.38504
206.5000,-46.0105,310.646,1.38195
206.4000,-41.9599,311.271,1.38836
206.3000,-45.2909,310.873,1.38428
206.2000,-44.986,314.597,1.42233
206.1000,-42.1739,313.672,1.41291
206.0000,-44.7575,315.009,1.42651
205.9000,-38.1486,315.583,1.43234
205.8000,-36.3724,316.761,1.44427
205.7000,-40.7456,317.42,1.45092
205.6000,-43.8953,317.623,1.45297
205.5000,-41.0123,318.545,1.46226
205.4000,-36.1315,318.891,1.46574
205.3000,-38.1141,320.135,1.47822
205.2000,-41.0105,322.304,1.4999
205.1000,-28.3232,322.79,1.50474
205.0000,-36.5393,323.977,1.51653
204.9000,-33.1788,325.145,1.5281
204.8000,-33.6198,325.136,1.52801
204.7000,-32.836,326.594,1.54241
204.6000,-28.6494,327.58,1.55211
204.5000,-21.1476,327.134,1.54772
204.4000,-21.6349,329.592,1.57184
204.3000,-33.5713,331.304,1.58855
204.2000,-24.8947,331.471,1.59017
204.1000,-28.7325,331.82,1.59356
204.0000,-19.6765,334.392,1.61849
203.9000,-25.3359,335.092,1.62525
203.8000,-12.1705,335.795,1.63202
203.7000,-25.8016,337.35,1.64697
203.6000,-19.5728,339.677,1.66922
203.5000,-17.7587,340.569,1.67772
203.4000,-22.2053,340.579,1.67781
203.3000,-20.666,341.625,1.68776
203.2000,-8.07876,342.99,1.70068
203.1000,-10.7753,344.633,1.71619
203.0000,-15.3859,345.689,1.72613
202.9000,-5.33237,346.497,1.73371
202.8000,-10.5763,348.358,1.75113
202.7000,-11.6406,349.474,1.76154
202.6000,-10.4396,350.561,1.77164
202.5000,-7.5569,350.719,1.77311
202.4000,-8.6134,352.078,1.7857
202.3000,-13.0347,353.669,1.8004
202.2000,-8.50528,354.983,1.8125
202.1000,-5.28756,357.153,1.83239
202.0000,2.56189,358.793,1.84735
201.9000,3.13871,359.979,1.85814
201.8000,-6.37377,362.54,1.88133
201.7000,1.03367,362.741,1.88315
201.6000,11.0539,364.099,1.89538
201.5000,4.8554,366.141,1.91371
201.4000,1.91329,367.99,1.93023
201.3000,-8.94498,368.452,1.93435
201.2000,9.57865,370.776,1.955
201.1000,6.03302,372.018,1.96599
201.0000,11.4994,373.067,1.97525
200.9000,5.80735,375.57,1.99725
200.8000,25.7826,376.068,2.00162
200.7000,17.4083,377.558,2.01464
200.6000,12.8044,379.25,2.02938
200.5000,15.0528,380.917,2.04384
200.4000,17.1665,382.107,2.05413
200.3000,23.3112,384.914,2.07832
200.2000,19.0092,386.214,2.08946
200.1000,17.451,388.051,2.10516
200.0000,23.1065,389.6,2.11835
199.9000,20.671,392.09,2.13946
199.8000,18.9209,393.424,2.15072
199.7000,23.8742,394.744,2.16183
199.6000,18.6767,395.712,2.16996
199.5000,29.4356,397.766,2.18715
199.4000,23.3714,399.183,2.19897
199.3000,33.8573,398.799,2.19577
199.2000,26.9867,402.069,2.22294
199.1000,25.6695,402.9,2.2298
199.0000,33.3896,405.293,2.24953
198.9000,30.1265,406.727,2.26131
198.8000,35.9053,409.122,2.2809
198.7000,30.2788,411.253,2.29823
198.6000,33.009,411.562,2.30075
198.5000,38.9993,413.684,2.31793
198.4000,28.8728,416.861,2.34353
198.3000,27.5522,418.127,2.35368
198.2000,33.2512,419.012,2.36076
198.1000,40.8034,421.826,2.3832
198.0000,40.3503,422.926,2.39194
197.9000,38.3125,425.879,2.41529
197.8000,40.2521,425.649,2.41348
197.7000,33.3296,428.525,2.4361
197.6000,49.4487,431.117,2.45639
197.5000,43.3295,431.06,2.45594
197.4000,46.7642,434.989,2.4865
197.3000,37.7339,435.589,2.49114
197.2000,41.3219,438.223,2.51147
197.1000,41.661,438.941,2.517
197.0000,51.6682,441.849,2.53929
196.9000,46.6933,443.191,2.54954
196.8000,43.1694,446.126,2.57186
196.7000,51.3797,447.528,2.58247
196.6000,34.8043,448.668,2.59108
196.5000,52.0524,451.663,2.61363
196.4000,34.2065,452.727,2.62161
196.3000,44.5417,455.115,2.63945
196.2000,37.8794,456.888,2.65265
196.1000,51.3039,458.544,2.66495
196.0000,37.9516,461.373,2.68585
195.9000,46.5264,461.855,2.6894
195.8000,52.8711,465.138,2.71351
195.7000,57.4389,467.205,2.72861
195.6000,51.982,468.809,2.74029
195.5000,43.5425,469.448,2.74494
195.4000,39.1826,471.448,2.75944
195.3000,47.1807,474.048,2.77822
195.2000,45.0811,474.984,2.78496
195.1000,46.8082,476.169,2.79347
195.0000,46.2205,478.428,2.80965
194.9000,26.2705,479.2,2.81517
194.8000,52.4117,481.14,2.82899
194.7000,41.3668,481.584,2.83215
194.6000,45.2437,483.345,2.84465
194.5000,41.2138,485.025,2.85654
194.4000,39.104,487.2,2.87188
194.3000,53.7647,488.036,2.87776
194.2000,44.3059,489.966,2.8913
194.1000,31.5949,491.814,2.90423
194.0000,23.5144,493.53,2.9162
193.9000,28.3251,496.242,2.93504
193.8000,22.2408,495.864,2.93242
193.7000,28.9187,498.4,2.94997
193.6000,30.3275,501.416,2.97075
193.5000,43.8406,502.367,2.97727
193.4000,32.804,503.251,2.98333
193.3000,40.107,504.615,2.99266
193.2000,29.262,506.928,3.00844
193.1000,36.8241,506.968,3.00871
193.0000,46.8775,509.201,3.02388
192.9000,32.0676,510.443,3.0323
192.8000,33.4893,511.496,3.03942
192.7000,42.7791,513.156,3.05062
192.6000,48.7967,514.388,3.05891
192.5000,19.5093,515.971,3.06953
192.4000,29.0308,518.256,3.08483
192.3000,32.4306,520.076,3.09697
192.2000,27.9512,522.289,3.11168
192.1000,42.219,522.639,3.11401
192.0000,34.1553,523.061,3.11681
191.9000,42.4129,525.245,3.13126
191.8000,32.1508,526.658,3.14058
191.7000,23.135,529.7,3.16058
191.6000,46.767,529.932,3.16211
191.5000,41.2779,531.293,3.17102
191.4000,36.0063,532.661,3.17995
191.3000,29.0097,533.94,3.1883
191.2000,31.1638,536.332,3.20385
191.1000,37.6949,537.8,3.21337
191.0000,21.2589,539.867,3.22673
190.9000,22.2086,540.445,3.23045
190.8000,36.5819,545.14,3.26062
190.7000,29.3589,546.521,3.26945
190.6000,31.1121,548.224,3.28031
190.5000,19.5662,549.785,3.29024
190.4000,37.6815,551.578,3.30162
190.3000,28.4257,553.983,3.31683
190.2000,34.4526,554.84,3.32224
190.1000,30.424,556.328,3.33161
190.0000,30.3083,557.478,3.33884

##### Extended Information
[Comments]
Sample name,ECTC_PROTEIN&ADDITIVE_928
Comment,PROTEIN&ADDITIVE
User,TRICIACHESELDINE
Division
Company,Saint Mary's College

[Detailed Information]
Creation date,9/28/2022 4:50 PM

Data array type,Linear data array * 3
Horizontal axis,Wavelength [nm]
Vertical axis(1),CD [mdeg]
Vertical axis(2),HT [V]
Vertical axis(3),Abs
Start,320 nm
End,190 nm
Data interval,0.1 nm
Data points,1301    

[Measurement Information]
Instrument name,J-1500
Model name,J-1500
Serial No.,B051061638

Detector,PM-539
Detector S/N,B051061638
  Lock-in amp.,X mode
  HT volt,Auto

Accessory,PTC-517
Accessory S/N,B026561646
  Temperature,22.76 C
  Control sensor,Holder
  Monitor sensor,Holder

Measurement date,9/28/2022 4:50 PM

CD Overload detect,1046
Photometric mode,CD, HT, Abs
Measure range,320 - 190 nm
Data pitch,0.1 nm
CD scale,20 mdeg/0.05 dOD
FL scale,20 mdeg/0.05 dOD
D.I.T.,8 msec
Bandwidth,2.00 nm
Start mode,Immediately
Scanning mode,Continuous
Scanning speed,200 nm/min
Baseline correction,None
Shutter control,Auto
No. of cycle,1/1
N2 Flowmeter,Manual

Solvent,NaPO4 buffer

