TITLE,ECTC_PROTEIN_928
DATA TYPE,
ORIGIN,JASCO
OWNER,
DATE,22/09/28
TIME,17:36:57
SPECTROMETER/DATA SYSTEM,
LOCALE,1033
RESOLUTION,
DELTAX,-0.1
XUNITS,NANOMETERS
YUNITS,CD [mdeg]
Y2UNITS,HT [V]
Y3UNITS,ABSORBANCE
FIRSTX,  320.0000
LASTX,  190.0000
NPOINTS,    1301
FIRSTY,     2.16240
MAXY,    15.17710
MINY,    -7.19990
XYDATA
320.0000,2.1624,208.013,0.144393
319.9000,0.704192,208.551,0.152094
319.8000,0.335681,208.592,0.152677
319.7000,0.74786,207.639,0.139033
319.6000,2.67626,209.658,0.167884
319.5000,1.82385,207.873,0.14238
319.4000,0.703702,208.597,0.152742
319.3000,1.63862,207.799,0.141324
319.2000,1.7282,207.622,0.138789
319.1000,1.20294,208.181,0.146794
319.0000,-0.0914969,207.8,0.14134
318.9000,2.9641,208.465,0.150863
318.8000,2.59573,207.914,0.14298
318.7000,2.36127,208.551,0.152094
318.6000,1.48306,208.365,0.149437
318.5000,1.34941,208.534,0.151851
318.4000,0.0510067,207.598,0.138448
318.3000,0.0274051,208.129,0.146048
318.2000,1.58207,207.338,0.134707
318.1000,2.85278,207.951,0.1435
318.0000,-0.744224,207.848,0.142023
317.9000,0.944171,208.129,0.146048
317.8000,1.67329,207.952,0.143516
317.7000,1.88801,208.045,0.144847
317.6000,0.956251,208.825,0.156012
317.5000,1.38405,207.907,0.142867
317.4000,2.04312,208.146,0.146291
317.3000,0.326528,208.009,0.144328
317.2000,0.544565,208.739,0.154782
317.1000,1.1605,208.279,0.148205
317.0000,2.27408,208.05,0.144928
316.9000,1.27644,208.082,0.145383
316.8000,0.507065,207.746,0.140561
316.7000,2.82021,208.137,0.146162
316.6000,3.28574,208.03,0.144636
316.5000,1.64728,208.769,0.155203
316.4000,0.497454,208.141,0.146226
316.3000,1.13106,207.85,0.142055
316.2000,0.48058,208.438,0.150474
316.1000,2.01449,207.576,0.138123
316.0000,0.793914,208.223,0.147394
315.9000,2.40981,207.665,0.139407
315.8000,0.705426,207.869,0.142331
315.7000,2.72374,207.989,0.144052
315.6000,1.35591,208.203,0.147119
315.5000,1.97449,207.903,0.142818
315.4000,2.01885,207.618,0.138724
315.3000,2.57552,207.456,0.136398
315.2000,0.312143,208.312,0.148675
315.1000,1.84309,206.832,0.127441
315.0000,1.55848,207.728,0.1403
314.9000,0.95744,208.248,0.147751
314.8000,1.53736,205.742,0.111719
314.7000,2.91357,207.529,0.137456
314.6000,2.05674,208.714,0.154426
314.5000,-0.200288,207.448,0.136285
314.4000,0.193555,208.328,0.148902
314.3000,2.74684,207.15,0.132004
314.2000,0.630553,207.638,0.139017
314.1000,2.36758,208.938,0.157613
314.0000,0.139128,208.035,0.144701
313.9000,2.40941,207.647,0.139147
313.8000,0.718476,208.149,0.14634
313.7000,0.755118,207.846,0.142006
313.6000,1.32828,207.762,0.140788
313.5000,0.994822,207.607,0.138578
313.4000,1.00366,207.358,0.134999
313.3000,1.22092,207.532,0.137488
313.2000,1.16504,208.372,0.149534
313.1000,0.268099,207.287,0.133974
313.0000,0.666801,206.824,0.127327
312.9000,2.44269,207.794,0.141259
312.8000,2.27885,208.703,0.154264
312.7000,1.30479,207.684,0.139683
312.6000,1.12165,207.912,0.142948
312.5000,1.87377,207.955,0.143565
312.4000,0.202259,208.411,0.150085
312.3000,0.839311,207.924,0.14311
312.2000,0.565276,207.565,0.137976
312.1000,1.76509,207.031,0.130293
312.0000,1.09976,207.522,0.137358
311.9000,1.32971,208.167,0.1466
311.8000,1.92951,207.267,0.133697
311.7000,0.300047,207.963,0.143679
311.6000,1.73177,207.556,0.137846
311.5000,3.38028,207.21,0.132867
311.4000,1.72076,207.111,0.13145
311.3000,2.20139,207.657,0.139293
311.2000,0.210539,207.294,0.134072
311.1000,1.29587,207.886,0.142574
311.0000,2.16273,207.074,0.130913
310.9000,2.04152,208.517,0.151609
310.8000,1.57352,208.054,0.144977
310.7000,2.30538,208.476,0.151025
310.6000,1.66814,207.86,0.142201
310.5000,1.18603,207.346,0.13482
310.4000,0.970509,208.412,0.150102
310.3000,1.27294,207.945,0.143419
310.2000,0.0995083,207.493,0.136935
310.1000,2.47833,208.35,0.14921
310.0000,1.66017,207.755,0.14069
309.9000,1.93444,207.385,0.13539
309.8000,0.957106,207.317,0.134413
309.7000,0.475842,207.606,0.138561
309.6000,0.840439,207.732,0.140365
309.5000,-0.75004,208.66,0.153649
309.4000,3.76325,206.811,0.127131
309.3000,2.22412,207.971,0.143792
309.2000,-0.1071,207.973,0.143825
309.1000,1.22147,207.938,0.143322
309.0000,-1.06129,207.734,0.140398
308.9000,0.715416,207.492,0.136919
308.8000,0.864118,207.315,0.134381
308.7000,1.41304,208.36,0.149356
308.6000,2.41229,207.298,0.134137
308.5000,0.811723,207.495,0.136968
308.4000,1.96829,207.788,0.141162
308.3000,1.23136,207.885,0.142558
308.2000,1.94959,209.06,0.159359
308.1000,0.93658,207.953,0.143533
308.0000,2.6121,207.337,0.13469
307.9000,2.87565,207.663,0.139374
307.8000,1.61396,208.156,0.146437
307.7000,4.28305,208.31,0.148643
307.6000,2.54685,207.715,0.140122
307.5000,2.45591,207.779,0.141031
307.4000,0.991141,206.636,0.124619
307.3000,-0.0255519,207.614,0.138675
307.2000,0.675341,207.521,0.137342
307.1000,1.42792,206.721,0.125842
307.0000,0.27214,207.457,0.136415
306.9000,2.11524,208.095,0.145561
306.8000,1.55347,207.039,0.130408
306.7000,0.462655,208.376,0.149583
306.6000,1.7857,207.568,0.138009
306.5000,3.05677,207.894,0.142688
306.4000,1.60188,206.899,0.128403
306.3000,1.02083,207.275,0.133811
306.2000,1.38889,207.234,0.133209
306.1000,1.80367,207.681,0.139634
306.0000,-0.493387,207.371,0.135178
305.9000,1.21176,207.206,0.132818
305.8000,0.716347,206.675,0.125174
305.7000,-0.225833,207.721,0.140203
305.6000,1.10679,207.64,0.139049
305.5000,-0.23351,207.144,0.131922
305.4000,1.68571,207.772,0.140934
305.3000,0.846976,208.526,0.151738
305.2000,1.65786,206.736,0.126054
305.1000,1.31242,207.186,0.132525
305.0000,1.13924,207.686,0.139699
304.9000,1.29432,207.508,0.137147
304.8000,1.39055,207.964,0.143695
304.7000,0.682827,208.159,0.146486
304.6000,0.356368,207.793,0.141243
304.5000,1.54531,206.529,0.123068
304.4000,0.911215,207.413,0.13578
304.3000,0.197116,207.468,0.136578
304.2000,1.8941,206.942,0.129022
304.1000,1.97722,207.348,0.134853
304.0000,1.70035,208.516,0.151592
303.9000,1.67417,207.079,0.130994
303.8000,1.39194,206.945,0.129055
303.7000,0.747598,205.836,0.113079
303.6000,1.99573,206.883,0.128174
303.5000,2.28982,206.885,0.128191
303.4000,2.62829,207.649,0.139179
303.3000,1.77142,207.014,0.130049
303.2000,0.162134,207.638,0.139017
303.1000,1.04407,207.232,0.133193
303.0000,1.3929,205.942,0.114601
302.9000,1.18654,206.583,0.123851
302.8000,1.93562,208.852,0.156384
302.7000,2.37903,207.179,0.132427
302.6000,1.18648,207.798,0.141308
302.5000,1.88876,206.761,0.126413
302.4000,0.0935394,207.059,0.130701
302.3000,0.870467,207.198,0.132704
302.2000,1.07461,207.034,0.130342
302.1000,2.32465,205.464,0.107688
302.0000,0.837615,207.381,0.135325
301.9000,1.19743,207.409,0.135731
301.8000,0.563786,207.269,0.133713
301.7000,2.81908,207.492,0.136919
301.6000,1.11435,207.673,0.13952
301.5000,2.80805,206.636,0.124619
301.4000,2.17724,207.234,0.133209
301.3000,0.159473,207.502,0.137066
301.2000,1.0911,206.981,0.129577
301.1000,0.481961,207.575,0.138106
301.0000,2.43469,206.593,0.123998
300.9000,0.868687,207.113,0.131483
300.8000,-0.760904,207.809,0.14147
300.7000,0.934403,206.245,0.118984
300.6000,1.44238,208.449,0.150636
300.5000,1.68063,206.624,0.124439
300.4000,0.891125,207.559,0.137879
300.3000,1.70363,206.662,0.124994
300.2000,0.57972,207.308,0.134283
300.1000,2.29827,207.382,0.135341
300.0000,1.75172,206.996,0.129788
299.9000,1.09543,206.999,0.129837
299.8000,1.6455,208.082,0.145383
299.7000,0.0825187,207.289,0.134007
299.6000,2.25395,206.508,0.122774
299.5000,2.46403,207.495,0.136968
299.4000,-0.641867,207.636,0.138984
299.3000,2.18878,207.89,0.142623
299.2000,1.06539,206.994,0.129772
299.1000,1.78359,207.181,0.13246
299.0000,2.43074,206.703,0.125581
298.9000,1.66412,208.18,0.146778
298.8000,2.57637,206.548,0.123345
298.7000,-0.205902,206.095,0.116809
298.6000,1.59882,206.96,0.129283
298.5000,0.488444,206.832,0.127441
298.4000,2.38531,206.701,0.125549
298.3000,1.28484,206.973,0.129462
298.2000,-0.509547,207.124,0.131629
298.1000,1.4565,207.817,0.141584
298.0000,2.0504,206.546,0.123313
297.9000,0.820953,206.826,0.127343
297.8000,0.801046,207.003,0.129902
297.7000,1.09314,207.226,0.133095
297.6000,1.9593,207.439,0.136154
297.5000,2.00812,207.045,0.130505
297.4000,1.32035,207.984,0.143971
297.3000,0.739446,206.922,0.128729
297.2000,1.98431,206.605,0.124162
297.1000,-0.0723463,206.435,0.121712
297.0000,0.862323,206.685,0.12532
296.9000,1.57934,206.886,0.128207
296.8000,0.0190983,206.686,0.125337
296.7000,0.867746,205.924,0.114339
296.6000,0.393639,206.713,0.125728
296.5000,0.534542,206.508,0.122774
296.4000,1.77517,206.465,0.122154
296.3000,0.843402,207.126,0.131662
296.2000,1.80341,206.587,0.1239
296.1000,2.72018,207.275,0.133811
296.0000,0.348873,206.514,0.122856
295.9000,2.19836,207.76,0.140772
295.8000,2.4089,207,0.129853
295.7000,1.95322,206.8,0.126968
295.6000,2.22197,207.377,0.135276
295.5000,2.00587,207.192,0.132606
295.4000,0.56298,206.439,0.121778
295.3000,0.0698388,207.384,0.135374
295.2000,1.33616,207.212,0.132899
295.1000,1.13051,206.651,0.124831
295.0000,0.660592,207.093,0.131189
294.9000,0.556985,207.281,0.133893
294.8000,0.703388,206.683,0.125288
294.7000,0.114554,206.386,0.12101
294.6000,1.05673,206.644,0.124733
294.5000,1.21451,206.678,0.125222
294.4000,0.72654,207.102,0.13132
294.3000,0.672533,207.028,0.130261
294.2000,1.94964,206.858,0.127816
294.1000,1.35966,206.525,0.123019
294.0000,1.67831,206.412,0.121386
293.9000,-0.287669,207.493,0.136935
293.8000,2.80552,206.419,0.121484
293.7000,0.756309,205.966,0.114944
293.6000,1.68321,206.24,0.118902
293.5000,1.61574,207.246,0.133388
293.4000,1.36937,206.507,0.122758
293.3000,1.58337,206.196,0.118265
293.2000,1.48339,206.823,0.12731
293.1000,-0.318087,206.691,0.125402
293.0000,1.28292,207.056,0.130652
292.9000,1.69729,207.245,0.133372
292.8000,0.193775,206.574,0.123721
292.7000,1.84135,207.192,0.132606
292.6000,-0.87799,206.572,0.123688
292.5000,3.62705,206.225,0.11869
292.4000,1.06338,206.279,0.119474
292.3000,2.10982,206.366,0.120716
292.2000,0.778435,206.018,0.115697
292.1000,0.767337,206.063,0.116351
292.0000,1.3612,207.019,0.13013
291.9000,0.179737,206.936,0.128925
291.8000,2.74159,207.078,0.130978
291.7000,0.370613,206.574,0.123721
291.6000,0.63801,206.66,0.124961
291.5000,1.95884,206.148,0.117578
291.4000,0.89141,206.303,0.119817
291.3000,0.101136,205.739,0.11167
291.2000,2.12753,204.846,0.0987412
291.1000,0.376195,205.987,0.115255
291.0000,1.91037,205.521,0.108524
290.9000,3.15742,206.352,0.12052
290.8000,-0.792504,206.221,0.118624
290.7000,2.57197,206.252,0.119082
290.6000,0.798151,207.127,0.131678
290.5000,-0.406724,205.892,0.11388
290.4000,0.983993,206.351,0.120504
290.3000,1.88173,205.134,0.102914
290.2000,1.55605,206.937,0.128941
290.1000,0.558029,205.626,0.110032
290.0000,2.32383,206.963,0.129315
289.9000,1.13873,206.367,0.120732
289.8000,1.6159,206.474,0.122284
289.7000,1.54385,205.9,0.113995
289.6000,2.64276,206.262,0.119229
289.5000,1.67998,206.107,0.116989
289.4000,0.36921,206.529,0.123068
289.3000,1.47079,206.452,0.121957
289.2000,0.418075,207.023,0.130179
289.1000,1.03704,206.769,0.126527
289.0000,-1.0863,206.313,0.119965
288.9000,1.80807,206.635,0.124602
288.8000,0.499672,206.558,0.123492
288.7000,2.84884,207.058,0.130684
288.6000,0.474364,207.206,0.132818
288.5000,1.06262,206.496,0.122594
288.4000,0.154304,206.403,0.121255
288.3000,2.11405,206.738,0.126087
288.2000,1.35519,205.869,0.113553
288.1000,1.11294,206.369,0.120765
288.0000,1.53218,206.801,0.126984
287.9000,-0.30707,206.431,0.121664
287.8000,1.01092,206.548,0.123345
287.7000,2.05319,205.725,0.111474
287.6000,0.0245439,205.861,0.113439
287.5000,2.38434,206.662,0.124994
287.4000,1.62,206.409,0.121337
287.3000,1.29432,206.358,0.120602
287.2000,0.00331856,206.298,0.119736
287.1000,0.63439,206.436,0.121729
287.0000,1.37102,206.879,0.128109
286.9000,0.795776,206.366,0.120716
286.8000,2.24245,206.491,0.122529
286.7000,1.70906,205.933,0.11447
286.6000,2.45809,207.02,0.130147
286.5000,2.43764,206.641,0.124684
286.4000,1.64005,206.157,0.117709
286.3000,0.255738,206.139,0.117447
286.2000,0.992273,206.377,0.120879
286.1000,0.184536,206.226,0.118706
286.0000,1.53423,206.583,0.123851
285.9000,2.28946,206.556,0.12346
285.8000,3.70032,206.266,0.119278
285.7000,0.968424,207.675,0.139553
285.6000,3.31533,206.171,0.117905
285.5000,0.222907,206.783,0.126723
285.4000,0.996166,206.734,0.126022
285.3000,1.25118,206.211,0.118494
285.2000,1.92834,205.855,0.11334
285.1000,0.237715,206.376,0.120863
285.0000,2.27197,206.354,0.120553
284.9000,0.0589152,206.272,0.11936
284.8000,1.32981,206.326,0.120144
284.7000,1.77144,206.882,0.128158
284.6000,0.143955,206.507,0.122758
284.5000,1.77645,206.896,0.128354
284.4000,3.81491,206.509,0.12279
284.3000,1.91788,205.884,0.113766
284.2000,1.07943,206.149,0.117594
284.1000,1.59146,206.065,0.116384
284.0000,1.73583,205.587,0.109475
283.9000,1.2498,206.489,0.122496
283.8000,-0.874991,206.238,0.118869
283.7000,0.822677,206.222,0.118641
283.6000,-0.665341,205.665,0.110605
283.5000,0.479043,205.83,0.11298
283.4000,0.587861,206.682,0.125271
283.3000,-0.0391521,206.353,0.120536
283.2000,0.246106,206.368,0.120749
283.1000,1.03267,206.189,0.118167
283.0000,0.333367,207.609,0.138594
282.9000,0.727318,206.218,0.118592
282.8000,2.22083,206.521,0.122953
282.7000,1.34748,206.366,0.120716
282.6000,2.28727,205.538,0.10877
282.5000,2.33313,206.18,0.118036
282.4000,0.88499,206.158,0.117725
282.3000,0.90957,206.387,0.121027
282.2000,1.17306,206.157,0.117709
282.1000,0.75524,205.272,0.104916
282.0000,0.0544329,206.528,0.123052
281.9000,0.420478,205.728,0.111506
281.8000,0.699999,206.269,0.119327
281.7000,0.427424,206.458,0.122055
281.6000,-0.518178,206.836,0.12749
281.5000,1.56128,207.074,0.130913
281.4000,0.815594,206.862,0.127865
281.3000,2.29934,206.341,0.120357
281.2000,1.25069,206.775,0.126609
281.1000,1.38768,205.637,0.110196
281.0000,0.933911,206.257,0.119147
280.9000,2.40938,206.09,0.116744
280.8000,0.93923,206.273,0.119376
280.7000,1.53299,205.407,0.106868
280.6000,1.56184,207.183,0.132476
280.5000,0.970533,206.82,0.127261
280.4000,0.230916,207.068,0.130831
280.3000,1.70779,206.252,0.119082
280.2000,1.09503,206.817,0.127213
280.1000,0.965863,206.265,0.119262
280.0000,2.06828,206.153,0.117643
279.9000,1.15574,206.593,0.123998
279.8000,0.673473,206.579,0.123786
279.7000,1.18086,206.372,0.120814
279.6000,0.680679,206.659,0.124945
279.5000,0.263115,206.119,0.117153
279.4000,1.52522,206.567,0.123623
279.3000,1.23348,205.952,0.114748
279.2000,0.00968743,205.947,0.114682
279.1000,2.19123,206.547,0.123329
279.0000,0.44769,205.651,0.110393
278.9000,0.659658,205.737,0.111637
278.8000,1.39782,206.598,0.124064
278.7000,1.41935,206.307,0.119867
278.6000,1.1079,206.085,0.116662
278.5000,-0.0671317,206.372,0.120814
278.4000,1.95561,206.645,0.124749
278.3000,0.976137,207.139,0.131857
278.2000,0.915438,206.423,0.121549
278.1000,-0.0522726,207.426,0.135976
278.0000,0.0901868,206.039,0.116008
277.9000,2.1285,206.557,0.123476
277.8000,-0.883293,206.775,0.126609
277.7000,2.39669,206.956,0.129218
277.6000,1.86979,206.136,0.117398
277.5000,1.23523,206.655,0.12488
277.4000,1.25576,206.605,0.124162
277.3000,-0.338937,206.477,0.122317
277.2000,0.898848,206.107,0.116989
277.1000,3.10109,206.299,0.119752
277.0000,1.338,206.768,0.126511
276.9000,1.96149,206.728,0.12594
276.8000,0.0999397,206.253,0.119098
276.7000,1.20932,206.444,0.121843
276.6000,0.480489,206.564,0.123574
276.5000,-0.721521,207.279,0.13386
276.4000,1.31653,206.623,0.124423
276.3000,1.53489,206.721,0.125842
276.2000,1.38566,206.508,0.122774
276.1000,-0.400677,206.426,0.121582
276.0000,2.2134,206.078,0.116564
275.9000,2.00827,206.581,0.123819
275.8000,0.762228,206.972,0.129446
275.7000,1.06956,206.199,0.118314
275.6000,0.753242,206.539,0.123215
275.5000,0.28047,206.073,0.116498
275.4000,0.809932,206.716,0.125761
275.3000,1.24478,206.496,0.122594
275.2000,0.390067,206.59,0.12395
275.1000,2.54459,206.712,0.125712
275.0000,2.24493,207.228,0.133127
274.9000,1.14181,206.504,0.122709
274.8000,1.69444,206.776,0.126625
274.7000,-0.837168,206.934,0.128908
274.6000,-0.541163,206.004,0.115501
274.5000,1.52794,206.649,0.124798
274.4000,0.530528,207.162,0.132183
274.3000,1.30952,206.192,0.118215
274.2000,2.16463,206.895,0.128337
274.1000,1.66453,206.891,0.128289
274.0000,-1.03939,206.576,0.123753
273.9000,2.67149,206.974,0.129478
273.8000,2.34267,206.437,0.121745
273.7000,0.0923178,206.541,0.123247
273.6000,0.739509,206.729,0.125956
273.5000,1.39074,205.969,0.114993
273.4000,0.294691,206.966,0.129365
273.3000,1.01998,207.083,0.131043
273.2000,-0.390119,206.26,0.119196
273.1000,0.353952,206.54,0.123231
273.0000,1.00212,206.458,0.122055
272.9000,0.588898,206.504,0.122709
272.8000,1.73359,207.091,0.131157
272.7000,1.0264,206.881,0.128142
272.6000,0.783451,206.993,0.129756
272.5000,-0.487467,206.492,0.122545
272.4000,1.32601,206.655,0.12488
272.3000,0.659755,207.031,0.130293
272.2000,1.33533,206.402,0.121239
272.1000,1.92286,206.072,0.116482
272.0000,0.784934,207.348,0.134853
271.9000,0.899886,206.546,0.123313
271.8000,0.941454,206.23,0.118755
271.7000,0.703153,206.759,0.126381
271.6000,1.40314,207.91,0.142916
271.5000,1.29218,206.94,0.128989
271.4000,0.193841,206.699,0.125516
271.3000,-0.348608,206.742,0.126136
271.2000,0.894505,207.218,0.132981
271.1000,-0.0182122,207.488,0.13687
271.0000,1.34952,207.071,0.13088
270.9000,1.01068,207.23,0.13316
270.8000,-0.140739,207.2,0.13272
270.7000,-0.760401,207.718,0.140171
270.6000,1.40054,207.296,0.134104
270.5000,2.03347,206.438,0.121762
270.4000,0.84811,207.383,0.135357
270.3000,1.57742,207.63,0.138903
270.2000,1.16309,207.554,0.137814
270.1000,1.95361,207.083,0.131043
270.0000,3.00597,207.207,0.132835
269.9000,1.79027,206.43,0.121647
269.8000,0.840219,207.694,0.139813
269.7000,1.96687,206.705,0.125614
269.6000,-1.36773,205.887,0.113815
269.5000,-0.483776,207.452,0.13635
269.4000,0.230081,206.776,0.126625
269.3000,1.2206,207.091,0.131157
269.2000,0.436377,207.722,0.140219
269.1000,-1.34278,207.525,0.137391
269.0000,1.99407,207.056,0.130652
268.9000,0.297346,207.706,0.139992
268.8000,0.427579,207.714,0.140105
268.7000,1.61923,207,0.129853
268.6000,0.815294,206.964,0.129332
268.5000,-0.758315,207.465,0.136529
268.4000,-0.0293458,207.995,0.144133
268.3000,0.747561,207.065,0.130782
268.2000,-0.197572,208.212,0.147248
268.1000,0.410467,207.424,0.135943
268.0000,1.28791,208.045,0.144847
267.9000,-0.229558,207.449,0.136301
267.8000,-1.10083,207.746,0.140561
267.7000,0.780899,207.973,0.143825
267.6000,0.722643,208.172,0.146665
267.5000,-0.147329,207.492,0.136919
267.4000,2.58927,207.528,0.137439
267.3000,1.83754,207.84,0.141909
267.2000,1.47648,208.08,0.145351
267.1000,0.730388,208.504,0.151414
267.0000,2.52647,207.723,0.140236
266.9000,1.1388,207.381,0.135325
266.8000,1.57682,207.194,0.132639
266.7000,1.61711,208.544,0.151997
266.6000,1.09608,207.65,0.139195
266.5000,0.158619,208.808,0.155769
266.4000,1.2072,208.845,0.156287
266.3000,1.79026,207.749,0.140609
266.2000,-0.655422,208.15,0.146356
266.1000,0.588337,208.171,0.146648
266.0000,1.0867,207.967,0.143728
265.9000,1.47692,207.738,0.140447
265.8000,1.79561,208.759,0.155057
265.7000,0.474931,208.534,0.151851
265.6000,1.12371,208.549,0.152062
265.5000,0.898224,209.147,0.160604
265.4000,0.131384,208.108,0.145756
265.3000,0.15892,208.437,0.150458
265.2000,0.961058,207.982,0.143955
265.1000,0.448267,208.012,0.144377
265.0000,1.67549,208.388,0.149761
264.9000,0.181061,207.934,0.143257
264.8000,0.334226,208.014,0.144409
264.7000,1.88084,208.237,0.147605
264.6000,-0.292498,208.347,0.149178
264.5000,-0.0499929,209.032,0.158955
264.4000,0.20816,208.626,0.153163
264.3000,1.16338,208.541,0.151949
264.2000,0.367768,208.924,0.157419
264.1000,1.25446,208.632,0.153244
264.0000,1.49265,208.118,0.145902
263.9000,1.84752,208.15,0.146356
263.8000,1.06462,208.653,0.153552
263.7000,1.31887,208.869,0.156627
263.6000,0.810879,208.898,0.157047
263.5000,1.3563,208.067,0.145172
263.4000,1.77025,209.215,0.161573
263.3000,1.65582,208.867,0.15661
263.2000,-0.628309,208.296,0.148448
263.1000,1.29726,208.952,0.157824
263.0000,1.11108,209.016,0.158729
262.9000,1.14473,208.476,0.151025
262.8000,1.04465,208.624,0.153131
262.7000,1.11382,208.813,0.155834
262.6000,1.90387,208.459,0.150782
262.5000,0.870639,208.788,0.155478
262.4000,1.21119,209.273,0.162397
262.3000,1.19611,209.101,0.159941
262.2000,1.58002,209.35,0.163495
262.1000,-1.38872,209.248,0.162042
262.0000,0.279589,208.819,0.155915
261.9000,0.501296,209.369,0.163769
261.8000,0.779026,208.992,0.158389
261.7000,1.51416,208.829,0.15606
261.6000,-0.300932,208.738,0.154766
261.5000,0.155258,208.999,0.158486
261.4000,-0.32269,208.968,0.15805
261.3000,-0.0802386,209.377,0.163882
261.2000,-0.125319,209.06,0.159359
261.1000,0.801558,209.57,0.166626
261.0000,0.74182,209.13,0.160361
260.9000,1.76142,209.18,0.161072
260.8000,2.10401,209.914,0.171526
260.7000,0.547477,209.944,0.171945
260.6000,0.543919,209.274,0.162413
260.5000,1.19928,209.573,0.166674
260.4000,0.179293,209.835,0.170398
260.3000,-1.14027,209.942,0.171913
260.2000,1.42126,209.351,0.163511
260.1000,1.24581,209.993,0.172638
260.0000,-0.215784,209.649,0.167755
259.9000,-0.854163,209.302,0.162817
259.8000,-0.362541,209.406,0.164286
259.7000,1.37001,209.894,0.171237
259.6000,0.651939,209.258,0.162187
259.5000,1.48709,209.855,0.170689
259.4000,-0.294762,210.1,0.174167
259.3000,1.06263,209.756,0.16927
259.2000,1.57484,209.746,0.169125
259.1000,0.665097,209.871,0.170914
259.0000,1.69495,210.151,0.174892
258.9000,-0.132359,209.654,0.167819
258.8000,-0.137567,210.194,0.175503
258.7000,-1.69738,210.181,0.17531
258.6000,1.83204,209.434,0.16469
258.5000,2.29702,210.487,0.179653
258.4000,-0.444627,209.211,0.161508
258.3000,0.912398,210.223,0.175906
258.2000,1.69342,210.748,0.183364
258.1000,1.08778,210.208,0.175696
258.0000,-0.445162,211.388,0.192425
257.9000,2.80532,210.617,0.181501
257.8000,0.222,210.398,0.178399
257.7000,1.02065,210.42,0.178704
257.6000,-1.05885,210.575,0.180906
257.5000,1.35435,210.448,0.179106
257.4000,1.38778,210.437,0.178946
257.3000,2.45478,211.212,0.189925
257.2000,-0.0563627,210.944,0.186141
257.1000,1.16045,210.695,0.182609
257.0000,0.594882,210.809,0.184231
256.9000,0.675627,210.805,0.184167
256.8000,0.130939,211.076,0.188001
256.7000,-0.0338976,210.833,0.184568
256.6000,1.71594,209.726,0.168851
256.5000,0.672112,210.896,0.185451
256.4000,1.22279,210.906,0.185595
256.3000,0.51664,212.45,0.207402
256.2000,0.721667,211.139,0.1889
256.1000,-0.802004,210.863,0.184985
256.0000,2.517,210.664,0.182176
255.9000,0.783841,211.739,0.197371
255.8000,-0.245252,211.515,0.194218
255.7000,2.07948,210.335,0.177498
255.6000,-0.408008,211.155,0.189124
255.5000,-0.320237,211.237,0.190278
255.4000,1.92393,211.132,0.188803
255.3000,-0.946613,211.229,0.190166
255.2000,1.95858,211.358,0.191992
255.1000,0.585643,212.243,0.204482
255.0000,1.17045,211.496,0.193946
254.9000,0.13107,211.316,0.1914
254.8000,1.36274,211.399,0.192569
254.7000,0.250039,211.459,0.193418
254.6000,0.634236,211.681,0.196555
254.5000,3.20693,211.631,0.195851
254.4000,1.51675,211.722,0.197131
254.3000,0.788349,211.689,0.196667
254.2000,-1.26718,211.953,0.200393
254.1000,2.32358,212.207,0.203971
254.0000,-0.453533,211.74,0.197387
253.9000,1.26463,211.879,0.199354
253.8000,2.03969,211.584,0.195195
253.7000,2.20711,212.016,0.201288
253.6000,-0.364656,211.209,0.189893
253.5000,1.52682,211.726,0.197195
253.4000,1.69403,212.183,0.203636
253.3000,3.4382,212.174,0.203508
253.2000,2.45917,212.358,0.20611
253.1000,2.74287,211.723,0.197147
253.0000,1.34575,211.532,0.194459
252.9000,3.05589,212.136,0.202981
252.8000,-0.0800852,211.123,0.188675
252.7000,0.499863,212.694,0.21083
252.6000,2.01457,211.685,0.196619
252.5000,1.07392,211.94,0.200217
252.4000,0.151482,212.379,0.206397
252.3000,0.16305,211.692,0.196715
252.2000,1.77207,212.15,0.203173
252.1000,2.75583,211.667,0.196363
252.0000,0.454667,212.574,0.209141
251.9000,-0.349213,212.681,0.210655
251.8000,1.39342,212.495,0.20804
251.7000,0.337087,212.442,0.207291
251.6000,-1.04101,212.054,0.201815
251.5000,0.987162,212.475,0.207753
251.4000,1.06335,213.147,0.217199
251.3000,1.2599,212.018,0.20132
251.2000,-0.397068,212.766,0.21185
251.1000,1.03138,212.832,0.212774
251.0000,0.752175,212.526,0.208471
250.9000,0.494396,212.534,0.208583
250.8000,0.692531,212.543,0.20871
250.7000,1.4149,212.883,0.21349
250.6000,0.730909,213.267,0.218885
250.5000,1.78844,212.923,0.214048
250.4000,0.731511,211.798,0.198203
250.3000,1.49171,213.15,0.217247
250.2000,0.154575,212.73,0.21134
250.1000,-0.630346,212.34,0.205855
250.0000,2.09927,213.793,0.226256
249.9000,-0.135746,212.986,0.21494
249.8000,0.778959,212.552,0.208838
249.7000,0.979049,212.68,0.210639
249.6000,0.772305,212.689,0.210766
249.5000,1.95454,212.775,0.211977
249.4000,1.11924,212.986,0.21494
249.3000,0.104359,212.736,0.21142
249.2000,0.639953,213.466,0.221682
249.1000,1.00179,212.78,0.212041
249.0000,2.03777,213.632,0.224002
248.9000,1.61556,212.81,0.212471
248.8000,2.15428,213.164,0.217438
248.7000,0.315539,213.197,0.217899
248.6000,-0.169852,212.812,0.212487
248.5000,1.43388,213.886,0.227557
248.4000,2.05453,212.801,0.212344
248.3000,1.36966,212.997,0.215099
248.2000,0.680191,213.632,0.224002
248.1000,1.59307,213.136,0.21704
248.0000,0.977024,213.948,0.228429
247.9000,1.22627,213.727,0.225335
247.8000,-0.216953,213.116,0.21677
247.7000,-0.433187,213.929,0.228159
247.6000,1.28986,213.652,0.224287
247.5000,0.604875,213.444,0.221365
247.4000,1.59013,213.703,0.225002
247.3000,0.4977,213.413,0.220936
247.2000,2.29266,213.498,0.222127
247.1000,0.514265,213.944,0.228366
247.0000,0.83444,213.903,0.227794
246.9000,0.725372,213.904,0.227811
246.8000,1.45213,213.464,0.221651
246.7000,2.1751,213.661,0.224414
246.6000,2.2896,214.435,0.235242
246.5000,1.88569,213.862,0.227223
246.4000,1.50378,214.133,0.231013
246.3000,0.463687,213.639,0.224097
246.2000,0.99716,213.852,0.227081
246.1000,0.692394,214.375,0.234403
246.0000,1.85647,213.839,0.226906
245.9000,2.39301,213.836,0.226859
245.8000,0.0485456,214.385,0.234546
245.7000,1.92122,214.094,0.230474
245.6000,1.83518,214.928,0.242121
245.5000,0.253224,214.593,0.237442
245.4000,-0.858139,214.313,0.233532
245.3000,-0.622696,214.392,0.234641
245.2000,2.18144,214.456,0.235527
245.1000,-0.208562,214.125,0.230902
245.0000,1.45257,214.479,0.235859
244.9000,0.423454,214.343,0.23396
244.8000,2.85765,213.658,0.224367
244.7000,1.53028,214.995,0.243054
244.6000,1.37134,214.46,0.23559
244.5000,0.700361,214.883,0.241489
244.4000,1.34313,214.638,0.238075
244.3000,2.98841,214.947,0.24239
244.2000,0.0209117,214.935,0.242217
244.1000,2.25584,214.075,0.230205
244.0000,-0.74912,214.615,0.237758
243.9000,0.724544,214.748,0.239609
243.8000,0.380087,215.235,0.246401
243.7000,0.820961,214.472,0.235749
243.6000,0.687219,215.424,0.249035
243.5000,0.709625,214.55,0.236841
243.4000,0.286239,215.131,0.244949
243.3000,0.655464,215.548,0.250754
243.2000,-0.0585307,215.411,0.248846
243.1000,1.45745,215.531,0.250517
243.0000,1.47244,215.053,0.243859
242.9000,-0.0534336,215.327,0.247679
242.8000,-1.02232,214.699,0.238929
242.7000,0.740046,215.508,0.250202
242.6000,0.273511,215.63,0.251889
242.5000,-0.325033,215.339,0.247852
242.4000,-0.186482,215.88,0.255369
242.3000,0.538937,216.222,0.26012
242.2000,2.22272,216.494,0.263892
242.1000,0.980411,215.363,0.248184
242.0000,0.252901,216.616,0.265587
241.9000,1.01005,216.129,0.258831
241.8000,-0.87489,216.143,0.25902
241.7000,0.0539045,215.996,0.256975
241.6000,0.975816,217.013,0.271078
241.5000,0.115535,216.249,0.260498
241.4000,1.59775,216.263,0.260686
241.3000,-0.941489,216.399,0.262572
241.2000,-0.983057,215.912,0.25581
241.1000,0.582204,216.204,0.259869
241.0000,1.50562,216.433,0.263043
240.9000,-0.584958,216.57,0.264944
240.8000,0.609539,216.793,0.268036
240.7000,0.116263,216.883,0.269275
240.6000,0.710803,217.069,0.271846
240.5000,0.77472,217.137,0.272786
240.4000,-0.635975,216.82,0.268412
240.3000,-1.2457,216.842,0.26871
240.2000,0.944549,217.246,0.274305
240.1000,2.33042,217.407,0.276528
240.0000,0.585075,217.268,0.274603
239.9000,-0.125104,217.427,0.276794
239.8000,2.58118,217.381,0.276168
239.7000,0.616922,217.73,0.280986
239.6000,-1.96384,217.191,0.273538
239.5000,0.662157,217.342,0.27562
239.4000,-0.260271,217.314,0.275245
239.3000,1.55633,218.535,0.292068
239.2000,0.92531,217.355,0.275809
239.1000,-1.50409,218.234,0.287936
239.0000,2.02728,217.796,0.281893
238.9000,0.145647,217.797,0.281909
238.8000,1.35025,217.923,0.283643
238.7000,-0.230305,217.821,0.282237
238.6000,0.658907,218.716,0.294561
238.5000,0.302487,217.992,0.284596
238.4000,1.45251,218.895,0.297021
238.3000,-0.125214,219.858,0.310226
238.2000,-0.817395,219.074,0.299479
238.1000,-1.56098,218.188,0.287296
238.0000,1.0271,217.791,0.28183
237.9000,-0.365091,218.649,0.293642
237.8000,1.5139,219.49,0.305183
237.7000,0.686995,219.236,0.301703
237.6000,-1.37431,218.423,0.290525
237.5000,-0.193183,218.825,0.296056
237.4000,3.12709,219.668,0.30762
237.3000,-1.08885,218.69,0.294203
237.2000,1.48386,218.884,0.296865
237.1000,-1.19542,219.466,0.304856
237.0000,0.643889,219.191,0.301081
236.9000,-1.35962,219.303,0.30262
236.8000,-0.678355,218.996,0.298406
236.7000,-0.816145,219.408,0.304064
236.6000,1.32367,219.424,0.304282
236.5000,0.60145,220.165,0.314426
236.4000,-1.13117,219.338,0.303101
236.3000,-1.78875,220.181,0.314643
236.2000,-0.720861,220.547,0.319642
236.1000,-0.470098,219.501,0.305338
236.0000,0.552116,220.981,0.325561
235.9000,-0.0633418,220.033,0.312613
235.8000,1.10957,220.359,0.317074
235.7000,-1.9595,219.856,0.310195
235.6000,0.0642254,220.901,0.324465
235.5000,0.234888,221.135,0.327661
235.4000,-1.82328,220.52,0.319271
235.3000,0.0506931,220.606,0.320447
235.2000,-1.22753,221.515,0.332828
235.1000,0.703875,221.136,0.327676
235.0000,-1.40121,221.276,0.329574
234.9000,-0.603475,220.969,0.325392
234.8000,0.862522,221.688,0.335185
234.7000,0.321476,221.352,0.330608
234.6000,-0.341818,222.607,0.347654
234.5000,0.292101,221.682,0.335108
234.4000,0.0347449,220.718,0.321977
234.3000,-1.3886,221.282,0.329667
234.2000,-0.910458,222.151,0.341479
234.1000,2.11862,222.395,0.344783
234.0000,0.586846,222.483,0.345981
233.9000,-3.24919,221.882,0.337818
233.8000,-1.49193,221.873,0.337694
233.7000,0.362249,221.851,0.337402
233.6000,0.933749,222.542,0.346779
233.5000,-1.33962,222.437,0.345351
233.4000,-0.570202,222.232,0.34257
233.3000,-0.00198019,223.008,0.353084
233.2000,-0.753114,222.462,0.345689
233.1000,-1.51613,222.923,0.351934
233.0000,-0.396856,223.465,0.359255
232.9000,0.872221,222.981,0.352716
232.8000,-0.970302,223.238,0.356194
232.7000,-1.50643,223.575,0.360739
232.6000,-1.16446,222.711,0.349066
232.5000,-3.23533,223.144,0.354923
232.4000,-0.933553,223.826,0.364133
232.3000,-1.88788,223.061,0.353804
232.2000,-3.05147,223.375,0.358046
232.1000,-1.19371,224.028,0.366852
232.0000,-0.424975,224.073,0.367463
231.9000,-1.04755,223.474,0.359378
231.8000,-0.86145,224.114,0.368012
231.7000,-0.32905,224.725,0.37623
231.6000,-0.014348,225.343,0.384536
231.5000,-1.57235,224.481,0.372954
231.4000,-1.74532,225.269,0.383533
231.3000,-1.33347,224.727,0.376261
231.2000,-0.519018,224.616,0.374768
231.1000,0.628971,225.044,0.380522
231.0000,-2.1842,224.586,0.374372
230.9000,-1.2539,224.944,0.379183
230.8000,-0.742516,224.416,0.372085
230.7000,-1.18391,225.801,0.39067
230.6000,-0.191089,225.119,0.381526
230.5000,-0.548026,225.236,0.383092
230.4000,-0.702068,225.322,0.384248
230.3000,-0.915735,225.492,0.386526
230.2000,-2.74516,225.359,0.384749
230.1000,-2.94581,225.118,0.381511
230.0000,-3.36125,224.837,0.377737
229.9000,-1.87864,225.435,0.385767
229.8000,-0.283771,225.976,0.393005
229.7000,-1.1229,226.353,0.39805
229.6000,-1.84784,225.495,0.386572
229.5000,-3.18229,225.926,0.392338
229.4000,-1.97472,225.946,0.392611
229.3000,-2.19622,225.571,0.387589
229.2000,-0.306389,226.191,0.395885
229.1000,-0.380273,226.3,0.397339
229.0000,-2.2865,226.66,0.402151
228.9000,-2.86268,226.078,0.39437
228.8000,-0.0512753,226.708,0.402786
228.7000,-4.62937,226.295,0.397278
228.6000,-2.66404,226.54,0.400548
228.5000,-3.88829,226.677,0.402378
228.4000,-3.5687,227.357,0.411439
228.3000,-1.82232,226.548,0.400653
228.2000,-4.77284,227.473,0.412993
228.1000,-2.12338,226.902,0.405386
228.0000,0.224749,227.816,0.417543
227.9000,-2.87491,227.325,0.411017
227.8000,-2.37859,227.74,0.416534
227.7000,-1.77212,228.485,0.426433
227.6000,-2.51574,228.791,0.430486
227.5000,-3.03106,229.029,0.433636
227.4000,-4.32044,227.996,0.419937
227.3000,-1.50469,228.409,0.425426
227.2000,-2.63768,228.445,0.425892
227.1000,-2.47582,229.009,0.433367
227.0000,-1.93338,229.163,0.435405
226.9000,-1.76197,229.133,0.435016
226.8000,-0.689029,228.922,0.432212
226.7000,-2.47296,229.178,0.4356
226.6000,-2.84545,228.99,0.433112
226.5000,-0.395827,229.493,0.439764
226.4000,-3.54416,229.853,0.444521
226.3000,-3.64934,229.223,0.4362
226.2000,-3.20174,229.632,0.441604
226.1000,-2.43484,229.473,0.439509
226.0000,-3.66732,230.078,0.447494
225.9000,-4.20844,229.907,0.445238
225.8000,-2.50348,230.199,0.449077
225.7000,-1.66067,230.297,0.450376
225.6000,-2.29744,230.689,0.455536
225.5000,-2.77652,230.397,0.451689
225.4000,-3.33205,230.917,0.458531
225.3000,-4.31948,231.702,0.468836
225.2000,-3.4419,230.764,0.45652
225.1000,-0.993189,231.514,0.46637
225.0000,-3.90645,231.052,0.460302
224.9000,-4.2503,231.805,0.470187
224.8000,-2.35588,231.508,0.466296
224.7000,-4.38128,231.745,0.469401
224.6000,-4.12594,231.911,0.471568
224.5000,-2.25671,230.804,0.457041
224.4000,-2.25507,231.304,0.46362
224.3000,-3.18306,231.695,0.468747
224.2000,-1.79812,231.669,0.468406
224.1000,-4.69817,231.784,0.469906
224.0000,-0.621202,231.623,0.467797
223.9000,-4.78302,232.306,0.476743
223.8000,-2.58883,232.665,0.481438
223.7000,-2.81863,233.171,0.488032
223.6000,-5.11699,232.628,0.480949
223.5000,-5.0091,231.795,0.470054
223.4000,-1.55635,233.006,0.485889
223.3000,-6.25508,232.402,0.478003
223.2000,-2.73103,233.33,0.490115
223.1000,-2.28543,232.711,0.482029
223.0000,-1.66912,232.946,0.485106
222.9000,-3.91656,233.253,0.489111
222.8000,-3.9332,233.674,0.494586
222.7000,-4.55344,233.509,0.492447
222.6000,-2.39244,233.225,0.488741
222.5000,-3.10119,233.453,0.491709
222.4000,-1.53548,234.307,0.50282
222.3000,-3.49722,233.965,0.498374
222.2000,-4.52219,234.896,0.510463
222.1000,-4.1213,234.193,0.501334
222.0000,-3.0875,234.56,0.5061
221.9000,-1.52863,235.004,0.511858
221.8000,-5.16915,234.723,0.508216
221.7000,-4.11749,234.896,0.510463
221.6000,-2.93723,234.666,0.507481
221.5000,-3.22489,235.336,0.516156
221.4000,-2.53718,235.558,0.519028
221.3000,-4.50543,235.782,0.521928
221.2000,-5.75031,235.083,0.512885
221.1000,-3.62386,235.499,0.518266
221.0000,-1.98476,235.945,0.524035
220.9000,-3.53651,235.547,0.518882
220.8000,-6.99156,235.867,0.523025
220.7000,-2.66306,236.55,0.531839
220.6000,-4.38355,236.043,0.525293
220.5000,-3.82972,236.519,0.53143
220.4000,-2.9736,235.916,0.523654
220.3000,-4.25326,235.624,0.519878
220.2000,-2.31424,236.7,0.533765
220.1000,-4.31943,237.177,0.539903
220.0000,-3.24481,236.813,0.535224
219.9000,-4.46349,237.74,0.547135
219.8000,-3.88452,236.689,0.533619
219.7000,-1.97634,237.812,0.548051
219.6000,-3.18128,237.18,0.539946
219.5000,-3.51871,237.407,0.542859
219.4000,-3.69047,237.512,0.544212
219.3000,-2.19107,237.471,0.543673
219.2000,-3.3843,237.516,0.544255
219.1000,-2.08272,237.578,0.545056
219.0000,-2.6735,237.933,0.549606
218.9000,-1.54528,238.361,0.555094
218.8000,-2.51336,238.318,0.554542
218.7000,-3.16066,239.211,0.565958
218.6000,-4.13387,237.861,0.54869
218.5000,-4.82397,238.22,0.55328
218.4000,-3.32272,238.141,0.552278
218.3000,-3.98792,238.123,0.552046
218.2000,-3.91745,238.697,0.559385
218.1000,-0.846823,238.964,0.562803
218.0000,-2.73075,239.085,0.564351
217.9000,-0.61583,238.047,0.551073
217.8000,-3.63891,239.316,0.567302
217.7000,-2.19881,239.076,0.564236
217.6000,-4.15184,239.537,0.570121
217.5000,-1.94519,239.416,0.568575
217.4000,-3.51924,239.737,0.572663
217.3000,-3.14301,240.383,0.580883
217.2000,-5.9479,240.092,0.577193
217.1000,-2.144,239.966,0.575578
217.0000,-3.71744,240.002,0.57604
216.9000,-2.31652,239.97,0.575636
216.8000,-3.05236,241.064,0.589531
216.7000,-5.82915,240.798,0.586166
216.6000,-2.20735,241.011,0.58887
216.5000,-5.36293,239.92,0.575001
216.4000,-4.167,241.314,0.592706
216.3000,0.7681,240.969,0.588338
216.2000,-3.87535,240.46,0.581863
216.1000,-3.01831,241.443,0.594342
216.0000,-1.448,241.582,0.596107
215.9000,-4.19116,241.215,0.591456
215.8000,-4.47523,241.279,0.592261
215.7000,-0.690973,241.417,0.594012
215.6000,-4.98007,242.02,0.601641
215.5000,-3.49795,241.88,0.599879
215.4000,-1.46181,242.206,0.60399
215.3000,-3.4885,241.955,0.600824
215.2000,-5.87769,242.525,0.608025
215.1000,-3.35819,242.563,0.608496
215.0000,-2.24612,242.087,0.602486
214.9000,-4.86111,242.807,0.611583
214.8000,-3.61145,242.553,0.608382
214.7000,-2.87845,243.016,0.614211
214.6000,-1.96626,243.436,0.619504
214.5000,-4.06978,243.366,0.61862
214.4000,-2.74448,242.699,0.610212
214.3000,-0.222542,242.753,0.610898
214.2000,-2.38138,243.372,0.618692
214.1000,-1.64024,243.736,0.62328
214.0000,-0.00853853,243.273,0.617451
213.9000,-1.67625,243.181,0.616295
213.8000,-2.87627,243.438,0.619533
213.7000,-1.06532,243.728,0.62318
213.6000,-2.14744,244.114,0.62802
213.5000,-3.31694,244.29,0.630238
213.4000,-3.7015,244.089,0.627707
213.3000,-0.473126,244.647,0.634713
213.2000,-0.367329,244.517,0.63308
213.1000,-2.66649,244.687,0.63521
213.0000,-1.22811,245.182,0.641408
212.9000,-4.96212,244.968,0.638728
212.8000,-3.59991,244.866,0.637452
212.7000,-2.26099,244.79,0.636501
212.6000,-3.83038,245.329,0.64325
212.5000,-3.10604,245.12,0.640629
212.4000,-2.89465,244.649,0.634727
212.3000,-2.11944,245.93,0.65075
212.2000,-5.19603,245.479,0.645119
212.1000,-3.66903,245.932,0.650778
212.0000,-4.05063,246.007,0.651711
211.9000,-3.59233,247.059,0.664803
211.8000,-7.1999,246.262,0.654889
211.7000,-5.6374,247.429,0.669405
211.6000,-3.04182,247.479,0.670024
211.5000,-1.79852,247.074,0.665
211.4000,-2.16141,247.387,0.668885
211.3000,-2.30695,247.387,0.668885
211.2000,-2.24017,247.455,0.669729
211.1000,-3.05914,247.459,0.669771
211.0000,-3.31094,246.917,0.663042
210.9000,-2.41641,247.368,0.668645
210.8000,-1.22826,248.253,0.679617
210.7000,-2.45707,248.961,0.688373
210.6000,-4.45507,249.114,0.690262
210.5000,-0.632349,248.098,0.677694
210.4000,-5.3086,248.145,0.678284
210.3000,-2.21932,248.738,0.685615
210.2000,-5.09194,248.994,0.688779
210.1000,-3.12322,248.843,0.686917
210.0000,-4.79716,249.511,0.695154
209.9000,-6.88645,249.577,0.695978
209.8000,-3.28893,249.568,0.695866
209.7000,-3.07126,249.636,0.696704
209.6000,-3.26307,249.807,0.698812
209.5000,-2.19365,249.467,0.694623
209.4000,-2.18915,250.905,0.712309
209.3000,-3.49726,250.625,0.708873
209.2000,-2.57824,250.721,0.710042
209.1000,-2.62133,250.542,0.707843
209.0000,-5.75816,250.512,0.707481
208.9000,-4.98073,250.343,0.705406
208.8000,-3.28722,251.518,0.719823
208.7000,-2.91269,251.549,0.720198
208.6000,-5.40915,250.859,0.711739
208.5000,-4.24771,251.478,0.719324
208.4000,-3.62675,251.529,0.719948
208.3000,-2.82916,251.764,0.722833
208.2000,-1.74216,252.003,0.725758
208.1000,-4.41479,252.211,0.728292
208.0000,-4.81977,251.83,0.723637
207.9000,-0.232477,252.343,0.729912
207.8000,-4.06623,252.778,0.735221
207.7000,-1.22387,253.756,0.747128
207.6000,-0.640243,253.289,0.741449
207.5000,-0.936794,253.636,0.745667
207.4000,-2.36812,253.935,0.749304
207.3000,-1.34819,253.753,0.747086
207.2000,-2.94554,253.886,0.748711
207.1000,-5.47591,254.741,0.759079
207.0000,-3.48586,255.21,0.764759
206.9000,-2.05158,254.6,0.757376
206.8000,-2.42711,254.802,0.75982
206.7000,-5.64699,254.991,0.762112
206.6000,-2.28762,254.681,0.758351
206.5000,-2.28655,255.376,0.766773
206.4000,-0.495344,255.01,0.762345
206.3000,-2.70297,256.172,0.776379
206.2000,-1.79089,255.759,0.771402
206.1000,-4.4477,255.576,0.769184
206.0000,-1.09027,256.326,0.778238
205.9000,-1.60401,257.022,0.786615
205.8000,-1.3466,257.22,0.789
205.7000,-0.952703,257.626,0.793873
205.6000,-2.1271,257.163,0.788319
205.5000,-3.64151,258.333,0.802351
205.4000,-5.11458,258.033,0.798766
205.3000,-0.931412,258.963,0.809889
205.2000,-0.950585,258.764,0.807518
205.1000,-0.457445,259.196,0.812679
205.0000,-0.0151751,258.808,0.808047
204.9000,-1.92686,258.916,0.809334
204.8000,-1.28475,259.633,0.817899
204.7000,-2.38469,259.555,0.816967
204.6000,-2.43841,259.316,0.814113
204.5000,-4.73339,260.132,0.823841
204.4000,-1.78656,260.01,0.822384
204.3000,-2.12517,260.78,0.831552
204.2000,-1.84368,260.848,0.83236
204.1000,-2.86163,260.756,0.831269
204.0000,0.783781,261.716,0.842658
203.9000,-3.73927,261.512,0.840241
203.8000,-3.40409,262.033,0.846416
203.7000,2.38778,262.132,0.847582
203.6000,-3.94112,262.571,0.852781
203.5000,0.550837,261.666,0.842067
203.4000,-2.09477,263.088,0.858882
203.3000,-2.38292,263.462,0.863291
203.2000,1.47522,264.01,0.869748
203.1000,-4.20979,264.137,0.87124
203.0000,0.579508,264.192,0.87188
202.9000,0.583643,264.223,0.872253
202.8000,1.31353,264.298,0.873132
202.7000,0.536512,264.278,0.872892
202.6000,-0.771531,264.225,0.872266
202.5000,-3.78594,265.092,0.882456
202.4000,5.89,265.6,0.888402
202.3000,-0.940267,265.564,0.887978
202.2000,0.286928,265.812,0.890882
202.1000,3.40581,266.417,0.897953
202.0000,-0.0313503,266.767,0.902039
201.9000,2.48777,267.533,0.910961
201.8000,-0.29272,268.819,0.925895
201.7000,1.9769,267.296,0.908205
201.6000,4.0386,268.198,0.918692
201.5000,0.989221,267.395,0.909352
201.4000,4.59122,268.752,0.92512
201.3000,-1.08252,269.524,0.934053
201.2000,2.55091,269.347,0.932009
201.1000,4.84813,270.116,0.9409
201.0000,4.67791,270.291,0.942913
200.9000,0.183394,269.797,0.937209
200.8000,6.51059,270.342,0.943501
200.7000,1.98528,270.599,0.946467
200.6000,3.30198,269.807,0.937327
200.5000,7.06974,270.974,0.950787
200.4000,3.87433,271.982,0.962366
200.3000,6.45765,271.695,0.959074
200.2000,-0.0376254,271.434,0.956079
200.1000,7.22657,273.521,0.979997
200.0000,4.85896,272.538,0.968745
199.9000,4.89991,273.201,0.976332
199.8000,6.75211,273.6,0.98089
199.7000,4.21109,274.235,0.988142
199.6000,6.02868,273.777,0.982921
199.5000,3.14672,274.636,0.992712
199.4000,6.70437,274.215,0.98791
199.3000,7.42668,272.252,0.965472
199.2000,7.68937,273.823,0.983438
199.1000,6.0696,274.208,0.987832
199.0000,2.42008,274.047,0.985998
198.9000,3.08672,275.701,1.00482
198.8000,6.51242,276.064,1.00893
198.7000,4.98273,275.281,1.00004
198.6000,6.0129,276.04,1.00866
198.5000,2.42998,276.275,1.01132
198.4000,9.5303,276.652,1.01559
198.3000,5.27156,276.201,1.01048
198.2000,7.47108,275.957,1.00772
198.1000,12.0681,278.038,1.03124
198.0000,5.62149,277.565,1.02591
197.9000,7.71435,277.605,1.02636
197.8000,9.59726,277.897,1.02965
197.7000,7.96399,277.719,1.02765
197.6000,5.3848,277.501,1.02518
197.5000,8.62932,279.268,1.04508
197.4000,3.27137,277.617,1.0265
197.3000,9.60608,278.583,1.03737
197.2000,6.82764,279.927,1.05246
197.1000,8.94661,279.334,1.04582
197.0000,5.78212,280.23,1.05586
196.9000,8.17853,280.797,1.0622
196.8000,10.6357,280.038,1.05371
196.7000,7.86801,280.143,1.05489
196.6000,8.12953,280.554,1.05949
196.5000,8.04072,279.622,1.04905
196.4000,8.0434,280.774,1.06195
196.3000,7.14464,280.911,1.06348
196.2000,7.48273,279.661,1.04949
196.1000,5.94327,281.913,1.07466
196.0000,9.67489,280.964,1.06408
195.9000,7.31104,282.814,1.08468
195.8000,8.76013,283.382,1.09099
195.7000,8.26877,283.142,1.08833
195.6000,10.1383,282.514,1.08135
195.5000,9.80631,283.504,1.09234
195.4000,8.13327,283.173,1.08867
195.3000,10.5252,282.867,1.08527
195.2000,13.0069,283.64,1.09384
195.1000,10.002,283.276,1.08981
195.0000,13.2473,283.182,1.08877
194.9000,9.41355,283.491,1.0922
194.8000,7.71323,282.254,1.07845
194.7000,10.0593,284.506,1.10344
194.6000,6.69626,283.244,1.08946
194.5000,7.58062,283.087,1.08771
194.4000,8.41417,283.79,1.09551
194.3000,14.1262,284.23,1.10038
194.2000,7.9142,283.42,1.09141
194.1000,10.9509,285.356,1.11282
194.0000,10.7541,283.705,1.09457
193.9000,4.64613,284.333,1.10152
193.8000,10.6849,284.231,1.10039
193.7000,10.3813,284.827,1.10698
193.6000,4.8739,284.701,1.10559
193.5000,10.8261,284.879,1.10756
193.4000,12.4341,285.328,1.11251
193.3000,9.17269,285.915,1.11898
193.2000,7.60892,286.063,1.12061
193.1000,8.69959,285.522,1.11465
193.0000,11.6982,285.011,1.10901
192.9000,8.94745,285.322,1.11245
192.8000,13.2851,285.94,1.11925
192.7000,11.9095,286.249,1.12265
192.6000,10.491,285.611,1.11563
192.5000,14.2764,285.779,1.11748
192.4000,6.96333,286.217,1.12231
192.3000,9.06684,286.538,1.12583
192.2000,10.3446,286.362,1.1239
192.1000,9.75137,286.642,1.12698
192.0000,12.0926,286.264,1.12282
191.9000,9.7904,285.771,1.11739
191.8000,10.2923,286.222,1.12236
191.7000,8.27631,286.826,1.12899
191.6000,11.6018,287.068,1.13165
191.5000,9.85925,285.996,1.11987
191.4000,10.5324,286.594,1.12644
191.3000,10.7551,287.265,1.13382
191.2000,12.9838,286.655,1.12711
191.1000,7.74397,287.655,1.13809
191.0000,11.992,287.781,1.13947
190.9000,15.1771,287.596,1.13744
190.8000,13.887,288.346,1.14565
190.7000,11.2276,288.454,1.14683
190.6000,10.9004,288.798,1.15059
190.5000,9.13041,288.226,1.14434
190.4000,9.4595,288.468,1.14698
190.3000,8.52259,289.937,1.16301
190.2000,7.17799,289.668,1.16007
190.1000,13.0817,288.796,1.15057
190.0000,9.36111,288.426,1.14652

##### Extended Information
[Comments]
Sample name,ECTC_PROTEIN_928
Comment,PROTEIN
User,TRICIACHESELDINE
Division
Company,Saint Mary's College

[Detailed Information]
Creation date,9/28/2022 4:36 PM

Data array type,Linear data array * 3
Horizontal axis,Wavelength [nm]
Vertical axis(1),CD [mdeg]
Vertical axis(2),HT [V]
Vertical axis(3),Abs
Start,320 nm
End,190 nm
Data interval,0.1 nm
Data points,1301    

[Measurement Information]
Instrument name,J-1500
Model name,J-1500
Serial No.,B051061638

Detector,PM-539
Detector S/N,B051061638
  Lock-in amp.,X mode
  HT volt,Auto

Accessory,PTC-517
Accessory S/N,B026561646
  Temperature,23.03 C
  Control sensor,Holder
  Monitor sensor,Holder

Measurement date,9/28/2022 4:36 PM

CD Overload detect,1255
Photometric mode,CD, HT, Abs
Measure range,320 - 190 nm
Data pitch,0.1 nm
CD scale,20 mdeg/0.05 dOD
FL scale,20 mdeg/0.05 dOD
D.I.T.,8 msec
Bandwidth,2.00 nm
Start mode,Immediately
Scanning mode,Continuous
Scanning speed,200 nm/min
Baseline correction,None
Shutter control,Auto
No. of cycle,1/1
N2 Flowmeter,Manual

Solvent,NaPO4 buffer

