TITLE,ECTC_PROTEIN_928
DATA TYPE,
ORIGIN,JASCO
OWNER,
DATE,22/09/28
TIME,17:21:28
SPECTROMETER/DATA SYSTEM,
LOCALE,1033
RESOLUTION,
DELTAX,-0.1
XUNITS,NANOMETERS
YUNITS,CD [mdeg]
Y2UNITS,HT [V]
Y3UNITS,ABSORBANCE
FIRSTX,  320.0000
LASTX,  190.0000
NPOINTS,    1301
FIRSTY,    -0.05495
MAXY,     8.79636
MINY,    -6.88434
XYDATA
320.0000,-0.0549467,209.357,0.163592
319.9000,-0.518594,209.387,0.164028
319.8000,2.27011,208.801,0.155656
319.7000,2.05378,210.209,0.175712
319.6000,1.4626,209.583,0.166819
319.5000,1.67605,210.108,0.17428
319.4000,2.66381,208.772,0.155251
319.3000,3.2089,208.875,0.156724
319.2000,2.30171,209.123,0.160264
319.1000,1.42534,209.491,0.165496
319.0000,1.65077,208.75,0.154928
318.9000,1.61384,209.323,0.163107
318.8000,2.70298,209.112,0.160103
318.7000,0.719354,209.008,0.158616
318.6000,2.1834,208.674,0.153843
318.5000,-0.887098,208.791,0.155526
318.4000,1.4028,208.694,0.154135
318.3000,0.882484,208.931,0.157516
318.2000,-0.371824,208.22,0.147362
318.1000,0.455072,208.796,0.155591
318.0000,1.43238,208.871,0.156659
317.9000,0.480268,209.162,0.160814
317.8000,1.26098,208.142,0.146243
317.7000,1.33407,208.923,0.157403
317.6000,0.508396,208.354,0.149275
317.5000,3.4194,208.435,0.150426
317.4000,0.871277,208.972,0.158098
317.3000,2.36856,209.641,0.167642
317.2000,2.78553,208.881,0.156804
317.1000,-0.372841,208.791,0.155526
317.0000,1.17496,208.484,0.151139
316.9000,0.779889,209.773,0.169512
316.8000,1.83341,208.111,0.145789
316.7000,1.15938,208.397,0.149891
316.6000,1.85699,209.412,0.164383
316.5000,0.751534,208.752,0.15496
316.4000,0.264246,209.452,0.164948
316.3000,0.704494,208.53,0.151787
316.2000,1.77319,209.245,0.161993
316.1000,1.71209,208.28,0.148221
316.0000,2.31079,208.763,0.155122
315.9000,1.00209,208.266,0.14801
315.8000,-1.55778,208.439,0.150491
315.7000,0.195564,208.633,0.15326
315.6000,0.765769,208.754,0.154993
315.5000,1.41355,208.174,0.146697
315.4000,1.40319,209.24,0.161928
315.3000,1.22529,208.91,0.157225
315.2000,2.90219,208.958,0.157904
315.1000,0.324963,208.871,0.156659
315.0000,1.32031,209.16,0.160781
314.9000,0.400814,208.429,0.150345
314.8000,1.36167,209.171,0.160943
314.7000,0.827616,208.135,0.146145
314.6000,0.64274,208.183,0.146827
314.5000,3.18919,208.898,0.157047
314.4000,1.07668,209.037,0.159036
314.3000,3.14272,207.452,0.13635
314.2000,1.41009,208.178,0.146762
314.1000,2.30042,208.765,0.155154
314.0000,0.411673,208.935,0.157581
313.9000,2.78067,208.129,0.146048
313.8000,1.99116,208.419,0.150199
313.7000,1.06703,208.551,0.152094
313.6000,0.923286,208.185,0.146859
313.5000,1.14266,208.798,0.155623
313.4000,3.79761,208.226,0.147443
313.3000,0.303427,208.731,0.154669
313.2000,0.356401,207.749,0.140609
313.1000,2.83211,208.625,0.153147
313.0000,2.13388,208.58,0.152499
312.9000,1.30288,208.344,0.149129
312.8000,0.746337,207.63,0.138903
312.7000,0.634087,208.905,0.157144
312.6000,0.624104,208.333,0.148967
312.5000,0.600334,208.273,0.148108
312.4000,0.343025,207.843,0.141958
312.3000,2.6198,208.055,0.144993
312.2000,2.29239,208.38,0.149648
312.1000,0.42691,207.573,0.13809
312.0000,1.20231,208.481,0.15109
311.9000,0.889104,207.883,0.142526
311.8000,1.27541,207.976,0.143857
311.7000,2.4218,208.371,0.149518
311.6000,1.85041,208.33,0.148935
311.5000,2.14037,208.288,0.148335
311.4000,1.15168,207.406,0.135683
311.3000,1.10829,208.456,0.150734
311.2000,-0.796143,208.991,0.158373
311.1000,0.452375,208.677,0.153892
311.0000,1.83604,208.718,0.154474
310.9000,0.0880978,208.195,0.147005
310.8000,-0.161102,208.198,0.147037
310.7000,1.50162,207.978,0.14389
310.6000,1.9121,208.377,0.149599
310.5000,0.759261,208.508,0.151479
310.4000,1.07046,208.901,0.157096
310.3000,1.00399,208.156,0.146437
310.2000,0.0988861,208.273,0.148108
310.1000,3.0959,208.658,0.153617
310.0000,1.69115,208.774,0.155284
309.9000,2.062,208.963,0.157969
309.8000,2.22689,208.723,0.154555
309.7000,0.309219,208.534,0.151851
309.6000,0.941082,208.413,0.150118
309.5000,0.706735,208.44,0.150507
309.4000,1.09906,208.058,0.145042
309.3000,2.58348,208.087,0.145448
309.2000,1.6982,208.228,0.147476
309.1000,1.56064,208.662,0.153681
309.0000,1.27914,208.765,0.155154
308.9000,1.65337,207.287,0.133974
308.8000,-1.11985,208.308,0.148611
308.7000,0.977184,208.848,0.156335
308.6000,-0.0199891,208.169,0.146632
308.5000,-0.225377,209.002,0.158535
308.4000,1.93287,208.857,0.156465
308.3000,2.50261,208.39,0.149794
308.2000,-0.499552,207.945,0.143419
308.1000,0.683388,208.527,0.151754
308.0000,0.024702,208.262,0.147962
307.9000,1.45292,208.576,0.152451
307.8000,0.388629,208.405,0.150004
307.7000,1.79677,208.586,0.152596
307.6000,1.35229,208.702,0.154248
307.5000,0.484847,207.951,0.1435
307.4000,0.871806,208.2,0.14707
307.3000,1.73458,208.166,0.146583
307.2000,2.31569,208.274,0.148124
307.1000,2.79222,208.046,0.144864
307.0000,1.9291,208.228,0.147476
306.9000,1.79165,208.284,0.14827
306.8000,1.58181,208.033,0.144685
306.7000,1.73492,208.385,0.149713
306.6000,1.25884,208.548,0.152046
306.5000,1.26059,208.72,0.154507
306.4000,1.06218,208.704,0.15428
306.3000,2.12679,208.248,0.147751
306.2000,1.61029,208.33,0.148935
306.1000,0.876348,208.045,0.144847
306.0000,0.258485,208.147,0.146308
305.9000,1.56754,208.699,0.154199
305.8000,3.19389,207.934,0.143257
305.7000,1.66983,208.595,0.152726
305.6000,1.37555,208.015,0.144425
305.5000,1.29748,208.229,0.147492
305.4000,0.881523,207.621,0.138773
305.3000,1.03827,207.996,0.14415
305.2000,0.726236,207.819,0.141617
305.1000,-0.285398,207.567,0.137992
305.0000,1.2853,208.253,0.147832
304.9000,1.37898,208.448,0.15062
304.8000,1.40277,208.194,0.146989
304.7000,3.30456,209.041,0.159084
304.6000,2.21756,208.967,0.158034
304.5000,0.890235,207.918,0.143029
304.4000,0.452892,208.49,0.15122
304.3000,0.755207,208.122,0.145951
304.2000,2.33569,207.02,0.130147
304.1000,0.338047,208.195,0.147005
304.0000,0.565723,208.445,0.150572
303.9000,2.16248,208.43,0.150361
303.8000,0.902716,207.968,0.143744
303.7000,0.748532,207.953,0.143533
303.6000,2.53917,207.853,0.142104
303.5000,1.88873,207.69,0.139764
303.4000,0.0292755,209.15,0.160636
303.3000,2.29658,207.74,0.140479
303.2000,1.06279,207.834,0.141827
303.1000,0.792206,208.313,0.148692
303.0000,1.843,207.879,0.142477
302.9000,-1.17651,207.793,0.141243
302.8000,1.68514,208.393,0.149826
302.7000,1.50763,207.624,0.138821
302.6000,0.533797,208.372,0.149534
302.5000,0.567314,208.376,0.149583
302.4000,-1.20131,208.743,0.154831
302.3000,1.10875,208.168,0.146616
302.2000,1.42379,208.897,0.157031
302.1000,0.944938,206.719,0.12581
302.0000,0.945916,209.77,0.16948
301.9000,2.22265,210.232,0.176034
301.8000,0.0131556,208.193,0.146973
301.7000,0.639994,207.289,0.134007
301.6000,-0.139701,208.675,0.153859
301.5000,0.797973,208.768,0.155187
301.4000,1.06912,208.431,0.150377
301.3000,1.64423,210.263,0.176485
301.2000,1.72413,208.445,0.150572
301.1000,0.670051,207.218,0.132981
301.0000,1.67054,208.107,0.14574
300.9000,0.644292,208.184,0.146843
300.8000,-0.737194,207.98,0.143922
300.7000,0.618611,208.106,0.145724
300.6000,1.02091,208.097,0.145594
300.5000,1.41293,207.765,0.140837
300.4000,1.45571,208.173,0.146681
300.3000,1.08274,209.087,0.159747
300.2000,0.917129,207.518,0.137293
300.1000,0.130277,207.979,0.143906
300.0000,0.609656,207.552,0.137781
299.9000,0.48628,207.952,0.143516
299.8000,1.81195,208.857,0.156465
299.7000,-0.6038,207.646,0.13913
299.6000,1.12635,208.039,0.144766
299.5000,0.863232,208.556,0.152159
299.4000,2.36516,208.041,0.144799
299.3000,1.38946,207.538,0.137586
299.2000,-0.65562,207.755,0.14069
299.1000,2.70561,206.964,0.129332
299.0000,1.62144,209.048,0.159181
298.9000,-0.361499,208.092,0.145529
298.8000,2.31325,207.751,0.140642
298.7000,-0.779406,207.542,0.137635
298.6000,0.292568,207.756,0.140707
298.5000,1.72087,207.919,0.143045
298.4000,0.654612,207.597,0.138431
298.3000,0.972331,207.027,0.130245
298.2000,1.40482,207.062,0.13075
298.1000,0.00850294,207.684,0.139683
298.0000,1.19934,206.897,0.12837
297.9000,-0.377996,208.249,0.147767
297.8000,1.12297,208.29,0.148351
297.7000,0.162395,207.36,0.135032
297.6000,1.79435,208.231,0.147508
297.5000,2.18801,207.382,0.135341
297.4000,1.16417,207.767,0.140869
297.3000,-0.702889,207.866,0.142282
297.2000,0.515208,207.612,0.138643
297.1000,0.0921587,207.29,0.134023
297.0000,1.52567,207.437,0.136138
296.9000,2.59772,208.538,0.1519
296.8000,0.345613,207.738,0.140447
296.7000,1.49691,207.712,0.140073
296.6000,2.79162,206.98,0.12956
296.5000,1.08528,207.742,0.140512
296.4000,0.71379,207.449,0.136301
296.3000,1.2504,206.683,0.125288
296.2000,0.204481,206.905,0.128484
296.1000,0.847116,207.519,0.137309
296.0000,1.1108,207.385,0.13539
295.9000,2.25312,208.112,0.145805
295.8000,-1.04952,208.414,0.150134
295.7000,1.27792,207.652,0.139212
295.6000,-0.797245,208.007,0.144312
295.5000,1.7515,207.547,0.137716
295.4000,1.22688,206.73,0.125973
295.3000,2.39161,207.598,0.138448
295.2000,1.55979,207.739,0.140463
295.1000,0.241804,207.516,0.137261
295.0000,0.590487,207.631,0.138919
294.9000,0.455577,208.506,0.151447
294.8000,1.56729,207.601,0.13848
294.7000,2.52738,207.183,0.132476
294.6000,-0.241292,207.568,0.138009
294.5000,-0.962738,208.043,0.144815
294.4000,0.533143,207.379,0.135292
294.3000,0.100438,206.491,0.122529
294.2000,1.68404,208.256,0.147865
294.1000,1.07736,208.123,0.145967
294.0000,0.427188,207.801,0.141356
293.9000,0.497194,206.78,0.126691
293.8000,2.68447,206.88,0.128126
293.7000,2.14765,205.683,0.110868
293.6000,2.10791,207.085,0.131075
293.5000,-1.04931,207.494,0.136952
293.4000,-1.38376,206.661,0.124978
293.3000,0.308374,207.858,0.142168
293.2000,1.04174,207.825,0.141698
293.1000,0.164596,207.29,0.134023
293.0000,0.0505388,207.483,0.136789
292.9000,-0.200144,206.658,0.124929
292.8000,-0.137525,207.539,0.137602
292.7000,-0.106089,207.524,0.137374
292.6000,0.283568,206.496,0.122594
292.5000,0.125799,206.805,0.12705
292.4000,1.89041,207.043,0.130473
292.3000,1.15588,207.334,0.134658
292.2000,1.2998,206.946,0.129071
292.1000,3.06862,206.759,0.126381
292.0000,2.86039,208.554,0.152127
291.9000,0.98696,206.508,0.122774
291.8000,1.4913,205.96,0.114862
291.7000,0.882158,206.99,0.129707
291.6000,4.29552,207.136,0.131808
291.5000,2.7364,206.763,0.126446
291.4000,0.178419,207.38,0.135309
291.3000,1.3955,205.799,0.112538
291.2000,2.21693,205.862,0.113455
291.1000,-0.201085,205.906,0.114077
291.0000,0.408242,207.322,0.134479
290.9000,-0.10659,207.079,0.130994
290.8000,2.95579,207.158,0.132118
290.7000,1.25734,206.52,0.122937
290.6000,1.08944,206.579,0.123786
290.5000,1.14777,207.356,0.134967
290.4000,1.37261,206.379,0.120912
290.3000,1.28354,207.078,0.130978
290.2000,2.14479,207.016,0.130082
290.1000,0.434676,206.779,0.126674
290.0000,1.63673,206.461,0.122088
289.9000,0.303623,207.315,0.134381
289.8000,2.17211,207.783,0.141097
289.7000,1.02333,208.739,0.154782
289.6000,-1.52471,208.522,0.151673
289.5000,0.890712,206.957,0.129234
289.4000,-0.00645493,206.24,0.118902
289.3000,0.595881,206.949,0.12912
289.2000,-0.343781,207.943,0.143386
289.1000,0.99615,207.009,0.129984
289.0000,1.09178,207.721,0.140203
288.9000,1.25816,207.403,0.13565
288.8000,1.4487,207.882,0.14251
288.7000,0.147558,206.36,0.120634
288.6000,0.853306,206.609,0.124227
288.5000,1.62626,207.16,0.13215
288.4000,1.60212,206.502,0.122676
288.3000,0.417594,207.964,0.143695
288.2000,-0.0421282,207.043,0.130473
288.1000,2.09598,207.212,0.132899
288.0000,0.00246359,207.428,0.136008
287.9000,0.910653,207.121,0.131597
287.8000,0.317144,207.901,0.142786
287.7000,0.979632,208.069,0.145188
287.6000,0.574367,206.355,0.120569
287.5000,2.44814,206.584,0.123868
287.4000,1.443,206.113,0.117071
287.3000,-1.12242,207.528,0.137439
287.2000,2.37187,207.516,0.137261
287.1000,1.21584,207.045,0.130505
287.0000,1.46497,206.679,0.125239
286.9000,1.94558,206.657,0.124912
286.8000,1.55402,207.168,0.132265
286.7000,0.458511,207.051,0.130587
286.6000,-0.0139883,206.783,0.126723
286.5000,1.02231,207.308,0.134283
286.4000,2.61132,207.971,0.143792
286.3000,1.33454,207.391,0.135471
286.2000,1.41196,207.118,0.131548
286.1000,0.457174,206.899,0.128403
286.0000,-0.0704201,207.25,0.133453
285.9000,0.323103,207.184,0.132492
285.8000,-1.33306,206.838,0.127522
285.7000,1.87677,206.708,0.125646
285.6000,1.14767,207.115,0.131499
285.5000,0.639896,206.443,0.121827
285.4000,0.268799,207.961,0.143646
285.3000,1.32881,207.023,0.130179
285.2000,-0.282977,206.607,0.124194
285.1000,0.932814,207.462,0.136496
285.0000,0.639171,206.488,0.12248
284.9000,0.252841,206.979,0.129544
284.8000,1.28348,206.504,0.122709
284.7000,-1.29366,207.001,0.12987
284.6000,1.76814,206.795,0.126903
284.5000,0.37152,206.039,0.116008
284.4000,2.42636,206.573,0.123705
284.3000,0.467693,207.205,0.132802
284.2000,0.829732,206.279,0.119474
284.1000,1.10219,207.448,0.136285
284.0000,0.237068,208.192,0.146956
283.9000,2.88909,206.967,0.129381
283.8000,0.783014,206.568,0.123639
283.7000,0.372632,207.016,0.130082
283.6000,0.521863,207.052,0.130603
283.5000,2.05778,207.288,0.13399
283.4000,-0.270754,206.461,0.122088
283.3000,2.37488,207.464,0.136512
283.2000,0.925164,206.946,0.129071
283.1000,-1.24485,206.669,0.125092
283.0000,-1.54708,207.812,0.141519
282.9000,0.725416,206.806,0.127066
282.8000,1.80311,207.825,0.141698
282.7000,1.17119,207.943,0.143386
282.6000,0.0103732,207.621,0.138773
282.5000,0.994645,208.904,0.157128
282.4000,1.11429,207.434,0.13609
282.3000,-0.433877,206.877,0.128077
282.2000,0.270393,207.206,0.132818
282.1000,1.62776,206.593,0.123998
282.0000,1.34878,207.874,0.142396
281.9000,1.26365,206.421,0.121517
281.8000,0.655363,206.43,0.121647
281.7000,1.42634,208.541,0.151949
281.6000,0.589294,207.152,0.132037
281.5000,0.701096,206.694,0.125451
281.4000,1.9252,207.068,0.130831
281.3000,1.87883,207.12,0.13158
281.2000,1.16655,207.255,0.133518
281.1000,1.46874,207.488,0.13687
281.0000,-1.44199,206.583,0.123851
280.9000,0.681265,206.837,0.127506
280.8000,2.53467,207.215,0.132948
280.7000,0.289536,206.974,0.129478
280.6000,1.19111,206.83,0.127408
280.5000,-0.0540997,206.709,0.125663
280.4000,1.22279,207.952,0.143516
280.3000,1.14477,206.972,0.129446
280.2000,0.726025,207.496,0.136984
280.1000,0.73571,206.936,0.128925
280.0000,0.823547,207.24,0.133306
279.9000,1.81476,206.991,0.129723
279.8000,1.85475,206.274,0.119393
279.7000,0.889907,207.84,0.141909
279.6000,1.70297,206.037,0.115975
279.5000,0.299745,207.851,0.142071
279.4000,0.36002,207.039,0.130408
279.3000,0.793596,205.875,0.113635
279.2000,0.741195,206.555,0.123443
279.1000,2.20795,207.249,0.133437
279.0000,0.305731,207.449,0.136301
278.9000,0.471143,207.485,0.136822
278.8000,2.25619,207.414,0.135797
278.7000,0.682628,206.956,0.129218
278.6000,1.35589,206.814,0.12718
278.5000,2.31846,207.116,0.131515
278.4000,1.01234,208.015,0.144425
278.3000,2.81909,208.026,0.144571
278.2000,1.0493,207.085,0.131075
278.1000,1.93287,207.391,0.135471
278.0000,-0.0863491,207.86,0.142201
277.9000,0.0578407,207.119,0.131564
277.8000,0.115157,207.332,0.134625
277.7000,0.510216,206.539,0.123215
277.6000,2.03422,206.373,0.12083
277.5000,0.671702,206.344,0.120406
277.4000,1.04757,206.423,0.121549
277.3000,0.694873,207.529,0.137456
277.2000,0.607643,207.103,0.131336
277.1000,1.58373,207.52,0.137326
277.0000,2.32213,207.408,0.135715
276.9000,-0.20684,206.834,0.127457
276.8000,1.00504,207.304,0.134218
276.7000,0.302432,207.27,0.13373
276.6000,1.15081,206.883,0.128174
276.5000,-0.153968,207.657,0.139293
276.4000,-0.25197,206.687,0.125353
276.3000,2.7025,207.824,0.141681
276.2000,1.69557,207.16,0.13215
276.1000,1.87101,207.563,0.137943
276.0000,0.33551,206.951,0.129152
275.9000,0.193455,206.99,0.129707
275.8000,0.990761,207.417,0.135846
275.7000,1.41975,208.195,0.147005
275.6000,0.159192,207.746,0.140561
275.5000,0.0152983,207.639,0.139033
275.4000,1.87686,207.11,0.131434
275.3000,-0.167902,207.532,0.137488
275.2000,0.814596,205.992,0.115321
275.1000,0.692528,207.536,0.137553
275.0000,0.91194,207.964,0.143695
274.9000,1.13188,208.362,0.149388
274.8000,-0.119995,207.507,0.13713
274.7000,0.556705,208.146,0.146291
274.6000,-1.0425,207.346,0.13482
274.5000,0.360983,207.109,0.131417
274.4000,1.89858,206.611,0.124259
274.3000,0.354141,208.105,0.145707
274.2000,2.24958,207.094,0.131206
274.1000,1.854,207.579,0.138171
274.0000,0.207793,207.352,0.134918
273.9000,0.624077,207.839,0.141893
273.8000,-0.160082,207.767,0.140869
273.7000,0.933747,207.218,0.132981
273.6000,0.152566,207.204,0.132786
273.5000,1.39421,206.843,0.127587
273.4000,0.859486,207.477,0.136708
273.3000,1.472,206.868,0.127946
273.2000,-0.48656,206.998,0.129821
273.1000,-0.191642,208.876,0.15674
273.0000,1.13493,208.134,0.146129
272.9000,2.67259,207.473,0.136642
272.8000,0.79843,206.648,0.124782
272.7000,0.644607,207.467,0.136561
272.6000,1.14808,207.281,0.133893
272.5000,0.732524,208.481,0.15109
272.4000,0.414755,207.919,0.143045
272.3000,1.36864,207.944,0.143403
272.2000,1.28134,206.864,0.127897
272.1000,2.24317,207.852,0.142087
272.0000,1.54227,207.929,0.143192
271.9000,1.21783,207.909,0.142899
271.8000,-0.908055,207.376,0.13526
271.7000,0.119629,207.568,0.138009
271.6000,-0.22463,208.164,0.146551
271.5000,1.02774,207.42,0.135894
271.4000,-0.214719,207.428,0.136008
271.3000,1.05938,208.245,0.147719
271.2000,1.24138,207.763,0.140804
271.1000,0.447536,207.167,0.132248
271.0000,0.552124,207.207,0.132835
270.9000,0.590967,207.388,0.135422
270.8000,1.03779,207.074,0.130913
270.7000,1.94027,207.362,0.135048
270.6000,-0.106567,207.352,0.134918
270.5000,-0.361006,207.985,0.143987
270.4000,-0.542894,207.682,0.13965
270.3000,2.9525,208.176,0.14673
270.2000,1.63206,208.058,0.145042
270.1000,0.521887,207.36,0.135032
270.0000,2.06804,207.856,0.142136
269.9000,0.831729,207.492,0.136919
269.8000,0.995175,208.161,0.146519
269.7000,2.3618,208.009,0.144328
269.6000,0.186143,207.339,0.134723
269.5000,0.142674,207.561,0.137911
269.4000,1.23958,207.801,0.141356
269.3000,1.84836,207.827,0.14173
269.2000,1.08877,207.535,0.137537
269.1000,0.427902,207.936,0.143289
269.0000,0.39514,208.533,0.151835
268.9000,-0.326316,208.844,0.156271
268.8000,0.862708,207.996,0.14415
268.7000,1.7519,208.174,0.146697
268.6000,0.131364,207.492,0.136919
268.5000,-0.0201754,208.159,0.146486
268.4000,0.0599051,208.667,0.153746
268.3000,0.534576,208.615,0.153001
268.2000,-0.106043,208.482,0.151106
268.1000,1.69359,207.597,0.138431
268.0000,1.24272,208.48,0.151074
267.9000,0.234001,207.475,0.136675
267.8000,0.934622,207.714,0.140105
267.7000,0.740199,208.697,0.154183
267.6000,0.793065,208.619,0.153066
267.5000,1.84801,208.355,0.149291
267.4000,1.88378,208.218,0.14733
267.3000,1.19481,208.344,0.149129
267.2000,1.33769,207.999,0.144198
267.1000,-1.2688,207.916,0.142997
267.0000,-0.235077,208.801,0.155656
266.9000,0.09704,208.608,0.152904
266.8000,0.508444,208.16,0.146502
266.7000,1.45935,208.232,0.147524
266.6000,2.13007,208.035,0.144701
266.5000,0.612698,209.382,0.163947
266.4000,0.510117,208.411,0.150085
266.3000,0.226847,209.004,0.158567
266.2000,1.77832,209.329,0.163188
266.1000,0.90788,208.217,0.147313
266.0000,0.175549,208.824,0.155996
265.9000,1.50706,208.995,0.158438
265.8000,1.47543,209.778,0.169593
265.7000,1.46263,208.925,0.157435
265.6000,1.93009,209.046,0.159165
265.5000,1.75085,208.633,0.15326
265.4000,-1.25939,208.824,0.155996
265.3000,0.714024,208.602,0.152823
265.2000,1.06956,208.203,0.147119
265.1000,-0.474199,209.395,0.164141
265.0000,0.0758594,208.927,0.157468
264.9000,1.29729,208.123,0.145967
264.8000,1.53457,209.956,0.172123
264.7000,-0.228038,209.691,0.168351
264.6000,1.49283,208.955,0.157856
264.5000,0.12301,208.798,0.155623
264.4000,1.26412,208.781,0.155381
264.3000,-0.255213,209.239,0.161912
264.2000,0.864952,209.287,0.162591
264.1000,0.660741,209.12,0.160216
264.0000,-0.473661,209.273,0.162397
263.9000,-0.215028,208.865,0.156578
263.8000,-0.829241,208.146,0.146291
263.7000,0.220549,209.537,0.166158
263.6000,-0.882904,209.28,0.162494
263.5000,-1.1021,209.155,0.160717
263.4000,0.43167,209.535,0.166126
263.3000,0.532408,209.234,0.161848
263.2000,1.87338,209.881,0.171059
263.1000,-2.91111,209.02,0.158794
263.0000,0.437528,209.222,0.16167
262.9000,0.537494,210.189,0.175423
262.8000,1.22495,210.047,0.173411
262.7000,1.37367,209.295,0.162704
262.6000,-0.417853,209.757,0.169287
262.5000,0.368242,209.795,0.169834
262.4000,-0.136941,210.286,0.176807
262.3000,0.875478,209.092,0.159812
262.2000,-1.29115,209.64,0.167626
262.1000,0.401828,210.766,0.183621
262.0000,0.503681,209.951,0.172042
261.9000,0.412192,209.757,0.169287
261.8000,-0.232729,209.409,0.164334
261.7000,-0.575762,209.463,0.165109
261.6000,0.993936,210.605,0.18134
261.5000,1.16022,210.549,0.180537
261.4000,0.45455,209.627,0.167432
261.3000,1.37167,209.932,0.171784
261.2000,0.803152,210.206,0.175664
261.1000,1.72345,209.954,0.17209
261.0000,-0.192769,210.365,0.177932
260.9000,1.6345,210.199,0.175568
260.8000,0.0834476,210.079,0.173861
260.7000,1.34026,210.511,0.180006
260.6000,0.167342,210.061,0.173604
260.5000,-0.675778,210.472,0.179444
260.4000,0.362341,211.75,0.197531
260.3000,1.76406,210.38,0.178142
260.2000,1.32285,210.229,0.176002
260.1000,-0.258322,210.393,0.178318
260.0000,0.251397,209.61,0.16719
259.9000,1.15582,210.457,0.179235
259.8000,0.377416,210.072,0.173765
259.7000,-0.245751,210.193,0.175487
259.6000,1.99919,209.807,0.169996
259.5000,1.39784,210.206,0.175664
259.4000,0.934977,209.972,0.172348
259.3000,0.772618,211.122,0.188659
259.2000,2.0801,210.02,0.173024
259.1000,1.52078,210.67,0.182256
259.0000,0.0628313,211.479,0.193706
258.9000,1.89151,210.334,0.177482
258.8000,1.28796,210.693,0.182577
258.7000,2.24008,211.222,0.19007
258.6000,1.57771,210.712,0.18285
258.5000,2.145,211.876,0.199306
258.4000,4.01804,211.439,0.193146
258.3000,2.73501,210.918,0.185772
258.2000,2.54659,210.56,0.180697
258.1000,1.58856,210.906,0.185595
258.0000,1.12992,211.452,0.193322
257.9000,0.637167,211.471,0.193594
257.8000,3.72978,210.893,0.185419
257.7000,0.0905626,211.357,0.191976
257.6000,0.505493,211.62,0.195691
257.5000,1.41514,210.138,0.174699
257.4000,-0.555874,210.493,0.179749
257.3000,0.877279,211.078,0.188034
257.2000,1.16663,211.307,0.191271
257.1000,-0.0855791,212.783,0.212089
257.0000,0.281589,210.939,0.18606
256.9000,-0.778562,212.662,0.210384
256.8000,2.10118,211.307,0.191271
256.7000,-0.202701,211.418,0.192841
256.6000,-0.308682,212.208,0.203987
256.5000,1.73929,210.49,0.179701
256.4000,0.783838,212.344,0.205902
256.3000,0.40125,211.299,0.191159
256.2000,2.18872,211.199,0.189749
256.1000,0.0317842,210.173,0.175198
256.0000,0.150812,212.747,0.211579
255.9000,1.75091,210.456,0.179219
255.8000,1.09959,211.385,0.192377
255.7000,1.01748,212.233,0.204338
255.6000,0.455429,212.6,0.209507
255.5000,0.678434,211.597,0.195371
255.4000,2.0585,211.703,0.196875
255.3000,1.54506,211.837,0.198762
255.2000,-0.729871,212.237,0.204402
255.1000,1.78567,210.973,0.186542
255.0000,0.772669,212.275,0.204929
254.9000,1.06006,211.887,0.199466
254.8000,0.319038,212.773,0.211946
254.7000,-0.397092,212.626,0.209874
254.6000,1.27216,212.092,0.202358
254.5000,0.199517,212.387,0.206509
254.4000,-1.00681,212.162,0.203348
254.3000,-0.705712,212.516,0.208327
254.2000,0.524797,211.902,0.199674
254.1000,0.597312,212.6,0.209507
254.0000,0.375569,212.977,0.214812
253.9000,1.63396,211.701,0.196843
253.8000,1.01636,213.086,0.21634
253.7000,1.23111,212.664,0.210416
253.6000,1.92864,211.83,0.198666
253.5000,2.35158,212.484,0.207881
253.4000,1.72424,213.235,0.21844
253.3000,-0.363406,213.084,0.216308
253.2000,0.537292,213.09,0.216404
253.1000,0.147009,213.362,0.22022
253.0000,0.904572,212.44,0.207259
252.9000,0.623233,212.465,0.20761
252.8000,0.175795,212.674,0.210559
252.7000,1.44881,213.164,0.217438
252.6000,0.931374,212.827,0.21271
252.5000,-0.0575959,212.809,0.212455
252.4000,1.62707,212.807,0.212423
252.3000,0.680392,213.301,0.219362
252.2000,-2.98784,213.21,0.21809
252.1000,1.28202,213.728,0.225351
252.0000,1.87049,213.003,0.215178
251.9000,-0.507286,212.775,0.211977
251.8000,-0.387537,213.655,0.224319
251.7000,0.966893,212.46,0.207546
251.6000,-0.81258,213.876,0.227414
251.5000,2.50964,213.335,0.219839
251.4000,0.813237,213.757,0.225748
251.3000,0.271467,213.422,0.221063
251.2000,0.284692,214.467,0.235685
251.1000,0.462347,213.247,0.218599
251.0000,0.303796,213.42,0.221031
250.9000,-0.520727,213.927,0.228128
250.8000,0.102316,213.402,0.220777
250.7000,2.54577,213.247,0.218599
250.6000,0.294809,213.608,0.223668
250.5000,-0.393981,213.904,0.227811
250.4000,2.5022,213.281,0.219076
250.3000,0.843956,214.305,0.233421
250.2000,-0.608525,214.375,0.234403
250.1000,1.49437,213.896,0.227699
250.0000,1.11156,214.364,0.234245
249.9000,1.72781,214.526,0.236508
249.8000,0.981127,213.768,0.225907
249.7000,-1.89435,214.042,0.229745
249.6000,0.55167,214.07,0.230141
249.5000,0.662864,214.136,0.231061
249.4000,0.624369,213.563,0.223033
249.3000,0.533883,213.653,0.224303
249.2000,0.0265298,212.999,0.215115
249.1000,-0.528734,214.195,0.231885
249.0000,-0.455483,214.615,0.237758
248.9000,0.3074,214.076,0.230221
248.8000,-0.037534,214.675,0.238597
248.7000,0.235974,214.073,0.230173
248.6000,1.0308,213.967,0.228699
248.5000,0.536525,214.082,0.2303
248.4000,1.19412,215.539,0.250628
248.3000,0.164806,213.829,0.226763
248.2000,1.28654,214.126,0.230918
248.1000,0.0385885,214.614,0.237742
248.0000,0.0676083,212.063,0.201943
247.9000,-0.693059,214.368,0.234308
247.8000,-0.456433,215.529,0.250486
247.7000,1.55104,214.695,0.238865
247.6000,0.701049,214.921,0.242027
247.5000,-0.520993,214.347,0.234007
247.4000,0.283333,214.423,0.235068
247.3000,1.66202,213.954,0.228508
247.2000,0.164424,214.768,0.239893
247.1000,-0.296876,214.728,0.239324
247.0000,-0.971305,214.608,0.237648
246.9000,1.32,215.13,0.244933
246.8000,0.0783878,214.621,0.237837
246.7000,0.333168,214.334,0.233833
246.6000,1.32857,215.036,0.243622
246.5000,1.18962,214.713,0.239118
246.4000,-1.31437,214.865,0.241237
246.3000,-0.396161,214.929,0.242138
246.2000,-1.55219,215.881,0.255385
246.1000,0.500403,215.19,0.24577
246.0000,1.35307,215.02,0.243401
245.9000,1.11691,214.544,0.236762
245.8000,2.64847,214.2,0.231948
245.7000,1.22963,215.114,0.244712
245.6000,3.50653,215.494,0.249997
245.5000,0.632553,214.738,0.239466
245.4000,-0.457386,216.341,0.261771
245.3000,1.24099,215.385,0.248483
245.2000,0.287923,216.375,0.262242
245.1000,0.983343,214.638,0.238075
245.0000,0.970831,216.417,0.262823
244.9000,0.775532,216.271,0.260796
244.8000,1.25649,214.237,0.232471
244.7000,1.51609,215.821,0.254551
244.6000,1.54935,215.269,0.246874
244.5000,1.03242,215.619,0.251747
244.4000,0.610286,215.666,0.252393
244.3000,0.891655,215.943,0.256251
244.2000,1.05003,216.993,0.270796
244.1000,-0.27892,215.677,0.25255
244.0000,0.264043,216.11,0.258564
243.9000,-0.11518,215.935,0.256141
243.8000,0.809928,217.093,0.272191
243.7000,-0.578836,215.925,0.255999
243.6000,0.513532,216.279,0.260906
243.5000,0.287217,215.684,0.252645
243.4000,-0.945853,216.307,0.261299
243.3000,2.39738,216.199,0.259806
243.2000,-0.0591622,216.001,0.257053
243.1000,-0.469011,216.463,0.263467
243.0000,-0.860085,216.244,0.260419
242.9000,1.47156,216.554,0.264724
242.8000,0.834492,216.971,0.270498
242.7000,0.312611,216.162,0.259287
242.6000,-0.238304,217.258,0.274462
242.5000,-0.860206,216.338,0.261724
242.4000,0.79323,216.8,0.26813
242.3000,-1.23804,216.778,0.267832
242.2000,1.23241,216.812,0.268302
242.1000,-0.166454,217.41,0.27656
242.0000,0.191781,215.755,0.253637
241.9000,0.115324,216.395,0.262525
241.8000,1.34731,217.382,0.276184
241.7000,0.267681,216.783,0.267894
241.6000,2.3625,217.112,0.272441
241.5000,1.17777,217.37,0.276012
241.4000,0.743748,216.891,0.269385
241.3000,2.27466,215.738,0.253401
241.2000,0.456704,216.253,0.260545
241.1000,1.12107,216.462,0.263452
241.0000,0.307601,217.404,0.276481
240.9000,0.157825,216,0.257038
240.8000,0.121919,217.946,0.283955
240.7000,2.09051,217.371,0.276028
240.6000,-2.02085,217.019,0.271156
240.5000,-0.268483,217.365,0.275949
240.4000,0.167178,217.953,0.284064
240.3000,0.377007,217.595,0.279126
240.2000,-0.501396,218.612,0.293128
240.1000,-0.727703,218.849,0.296383
240.0000,-0.266116,217.59,0.279047
239.9000,-0.64434,217.756,0.281346
239.8000,-1.26169,219.556,0.306083
239.7000,-1.53116,218.655,0.29372
239.6000,-0.448303,218.804,0.295776
239.5000,0.568493,219.063,0.299323
239.4000,1.84406,219.483,0.305089
239.3000,-0.083025,219.353,0.303303
239.2000,-1.5078,220.082,0.313295
239.1000,-1.62925,219.124,0.300163
239.0000,0.930469,219.173,0.300832
238.9000,1.01199,217.868,0.282893
238.8000,0.576459,219.545,0.305943
238.7000,1.36182,218.444,0.290821
238.6000,-0.023236,219.856,0.310195
238.5000,-1.20284,219.256,0.301982
238.4000,0.742913,219.218,0.301454
238.3000,-0.253665,218.924,0.297426
238.2000,-0.0177399,219.332,0.303023
238.1000,0.577489,219.266,0.302107
238.0000,1.97184,219.932,0.311234
237.9000,-0.257585,219.516,0.30554
237.8000,-2.08964,219.56,0.306145
237.7000,1.08989,220.808,0.323198
237.6000,-0.353911,219.859,0.310242
237.5000,1.27499,219.326,0.30293
237.4000,0.547909,219.837,0.309931
237.3000,0.365739,220.436,0.318126
237.2000,0.96968,220.061,0.313001
237.1000,0.916924,219.604,0.306751
237.0000,-2.40449,220.578,0.32006
236.9000,0.0639365,220.625,0.320709
236.8000,0.253688,220.936,0.324944
236.7000,1.71958,220.248,0.315556
236.6000,0.921409,220.579,0.320075
236.5000,-0.640044,220.034,0.312629
236.4000,-0.294654,220.564,0.319874
236.3000,0.47573,220.918,0.324697
236.2000,-1.42652,220.792,0.322982
236.1000,1.51056,222.192,0.342032
236.0000,1.38684,221.061,0.326658
235.9000,-0.336295,220.731,0.322147
235.8000,-0.0527442,220.315,0.31647
235.7000,1.24913,222.015,0.339633
235.6000,1.02596,221.108,0.327291
235.5000,0.746498,220.59,0.32023
235.4000,-1.14317,222.173,0.341771
235.3000,0.84198,221.724,0.335678
235.2000,2.30575,221.566,0.333521
235.1000,0.553035,221.043,0.326411
235.0000,0.13682,221.516,0.332843
234.9000,0.83247,222.251,0.342831
234.8000,-0.614775,221.987,0.339248
234.7000,1.47981,222.09,0.340648
234.6000,0.324959,222.238,0.342647
234.5000,-0.315579,222.63,0.347961
234.4000,1.45195,222.141,0.34134
234.3000,-1.77454,222.516,0.346426
234.2000,0.308151,222.239,0.342662
234.1000,-0.490818,223.387,0.358199
234.0000,-0.853382,222.214,0.342324
233.9000,0.159645,222.632,0.347992
233.8000,1.43336,222.414,0.345044
233.7000,0.0468968,222.457,0.345627
233.6000,1.48159,222.115,0.340987
233.5000,-1.05128,222.942,0.352195
233.4000,2.14832,223.19,0.355551
233.3000,-1.41318,223.06,0.353789
233.2000,-0.528059,223.149,0.354984
233.1000,-1.23584,224.163,0.368668
233.0000,-2.20949,222.919,0.351873
232.9000,1.60768,224.046,0.367096
232.8000,-1.25721,224.377,0.371552
232.7000,-0.945481,223.193,0.355581
232.6000,-0.313925,224.317,0.370743
232.5000,0.773259,222.811,0.350416
232.4000,0.828877,225.458,0.386071
232.3000,0.136303,224.542,0.373777
232.2000,-0.88698,225.399,0.385281
232.1000,-0.548633,223.75,0.363109
232.0000,-0.00323638,224.054,0.367203
231.9000,0.184229,224.809,0.377357
231.8000,0.551114,225.446,0.385919
231.7000,1.09468,224.641,0.375103
231.6000,-0.313076,225.16,0.382074
231.5000,-0.227604,225.504,0.386693
231.4000,-0.370517,225.886,0.391808
231.3000,-1.74283,224.744,0.376489
231.2000,-0.00797178,225.164,0.382135
231.1000,-0.276626,225.078,0.380979
231.0000,0.556593,225.496,0.386587
230.9000,-2.52768,225.52,0.386906
230.8000,-0.469787,226.09,0.394536
230.7000,-0.514874,225.689,0.389168
230.6000,-0.915637,224.909,0.378712
230.5000,0.542517,225.928,0.392369
230.4000,-0.12345,225.795,0.390594
230.3000,1.23031,226.421,0.398959
230.2000,-1.15325,225.875,0.391656
230.1000,-1.41147,226.684,0.402468
230.0000,-0.55767,225.459,0.386086
229.9000,0.134281,226.167,0.395567
229.8000,-0.620024,226.104,0.394718
229.7000,-0.126154,225.985,0.393127
229.6000,-2.01655,226.301,0.397354
229.5000,0.189181,224.062,0.36731
229.4000,-2.26743,225.453,0.38601
229.3000,-1.80217,225.613,0.388151
229.2000,-0.803525,225.875,0.391656
229.1000,-2.40528,227.33,0.411077
229.0000,0.558385,226.04,0.39387
228.9000,-1.86759,226.191,0.395885
228.8000,-2.1147,227.084,0.407802
228.7000,0.220596,226.488,0.399852
228.6000,-1.76102,226.619,0.401606
228.5000,1.98882,228.381,0.42505
228.4000,-1.461,226.442,0.399246
228.3000,-1.22782,227.311,0.410836
228.2000,0.334333,227.061,0.4075
228.1000,0.509079,226.932,0.405778
228.0000,-0.271919,228.315,0.424178
227.9000,0.0441965,227.723,0.416308
227.8000,-0.898129,227.697,0.415962
227.7000,-0.142593,229.159,0.43536
227.6000,0.022688,227.596,0.414621
227.5000,-0.499448,229.472,0.439494
227.4000,-0.0902718,229.373,0.438177
227.3000,-0.753494,228.957,0.432677
227.2000,0.442066,229.07,0.434176
227.1000,-1.53672,229.478,0.439569
227.0000,-0.95246,229.473,0.439509
226.9000,0.411758,228.473,0.426267
226.8000,-1.78738,229.897,0.445104
226.7000,0.151406,229.681,0.442247
226.6000,0.17948,230.161,0.448584
226.5000,0.217661,229.922,0.445432
226.4000,0.796078,229.736,0.44298
226.3000,0.0606793,230.32,0.450674
226.2000,1.54293,229.642,0.441739
226.1000,0.743841,230.942,0.458858
226.0000,-2.62787,230.75,0.456341
225.9000,0.118441,230.583,0.454135
225.8000,-1.95928,231.143,0.461508
225.7000,-0.941128,230.983,0.459394
225.6000,-1.01278,231.289,0.463412
225.5000,0.95004,232.295,0.476595
225.4000,-3.08711,231.427,0.465226
225.3000,-0.125588,231.903,0.471464
225.2000,-0.654484,233.565,0.49317
225.1000,0.4559,230.882,0.458069
225.0000,-1.62141,230.995,0.459558
224.9000,-1.97807,232.355,0.47738
224.8000,-0.556489,231.344,0.464141
224.7000,-0.875598,232.252,0.476032
224.6000,0.394366,231.574,0.467158
224.5000,-0.656406,231.469,0.465776
224.4000,-1.05457,231.7,0.468807
224.3000,-1.37379,232.874,0.48416
224.2000,-0.337982,233.121,0.487382
224.1000,0.159678,232.383,0.477751
224.0000,1.70119,232.774,0.482858
223.9000,2.56916,233.134,0.48756
223.8000,-3.32047,230.961,0.459111
223.7000,-0.275961,232.202,0.475379
223.6000,0.210005,232.579,0.480313
223.5000,-2.43617,233.019,0.486052
223.4000,-0.955125,233.066,0.486673
223.3000,-0.582739,232.851,0.483864
223.2000,0.118229,233.24,0.488933
223.1000,1.0081,233.538,0.492816
223.0000,-2.5676,233.371,0.490646
222.9000,0.478484,232.961,0.485298
222.8000,-1.13001,232.596,0.480535
222.7000,-0.230421,234.341,0.503261
222.6000,-2.29684,234.474,0.504982
222.5000,-0.466385,234.126,0.500465
222.4000,0.793597,234.929,0.510889
222.3000,2.79958,235.123,0.513399
222.2000,-4.19764,234.536,0.505791
222.1000,0.197796,235.291,0.51557
222.0000,0.107371,233.878,0.497239
221.9000,1.18293,235.678,0.520581
221.8000,-1.14144,234.599,0.506614
221.7000,0.988396,235.42,0.51724
221.6000,-0.291345,235.603,0.519614
221.5000,1.90433,235.243,0.514953
221.4000,0.277631,234.944,0.51108
221.3000,0.772636,235.519,0.51853
221.2000,0.173893,234.487,0.505159
221.1000,-1.35881,235.202,0.514426
221.0000,0.592263,236.443,0.530452
220.9000,-1.22564,235.275,0.515364
220.8000,-2.41336,236.603,0.53251
220.7000,-1.93382,235.798,0.522133
220.6000,0.322755,236.4,0.529896
220.5000,-1.1569,236.251,0.527983
220.4000,1.59562,235.379,0.516713
220.3000,-0.378873,237.437,0.543237
220.2000,-2.92201,237.306,0.541563
220.1000,0.708106,237.077,0.538621
220.0000,0.971056,237.241,0.540718
219.9000,0.542083,236.994,0.537542
219.8000,-0.975428,236.452,0.530568
219.7000,-2.62367,237.084,0.538708
219.6000,-3.68827,237.648,0.545958
219.5000,-3.25729,235.921,0.523713
219.4000,0.00660846,236.844,0.535618
219.3000,1.89652,237.319,0.541723
219.2000,-0.0291027,238.093,0.551654
219.1000,-3.22153,235.964,0.524269
219.0000,-0.652204,238.259,0.553788
218.9000,-0.359286,237.302,0.541505
218.8000,-0.589922,238.478,0.556587
218.7000,1.213,238.961,0.562759
218.6000,-0.125214,238.291,0.554194
218.5000,-2.62632,239.682,0.57197
218.4000,0.927262,237.251,0.54085
218.3000,0.203115,238.366,0.555151
218.2000,-1.75438,239.358,0.567837
218.1000,-1.1836,238.575,0.557834
218.0000,1.99998,240.922,0.587734
217.9000,-0.211188,238.391,0.555471
217.8000,0.468575,239.022,0.563541
217.7000,1.50049,239.168,0.565408
217.6000,-3.94082,239.385,0.568184
217.5000,-0.616094,239.049,0.563889
217.4000,0.0484267,238.71,0.559559
217.3000,1.74647,239.177,0.565524
217.2000,-1.66507,240.785,0.585993
217.1000,-0.16891,239.499,0.569629
217.0000,-1.62354,239.46,0.569138
216.9000,1.957,241.114,0.590178
216.8000,-1.67567,240.857,0.586914
216.7000,0.694401,240.833,0.586612
216.6000,-1.2725,240.298,0.579802
216.5000,-1.76196,241.237,0.591729
216.4000,-0.559065,240.147,0.577886
216.3000,2.40808,241.04,0.589229
216.2000,-0.173288,240.747,0.585519
216.1000,-1.32859,241.067,0.589574
216.0000,0.590746,242.133,0.603073
215.9000,-0.310938,240.759,0.585663
215.8000,-2.82205,241.516,0.595261
215.7000,-1.0281,241.138,0.590479
215.6000,-0.71231,241.505,0.595132
215.5000,2.22862,241.459,0.594543
215.4000,-2.0759,242.088,0.6025
215.3000,-1.19471,241.743,0.598144
215.2000,-2.66316,241.696,0.597542
215.1000,3.12885,242.327,0.605521
215.0000,0.575741,242.194,0.603846
214.9000,0.0460619,242.286,0.605006
214.8000,-1.35792,242.515,0.607896
214.7000,0.983573,241.963,0.600925
214.6000,-0.920544,242.387,0.606279
214.5000,1.16475,241.844,0.59942
214.4000,0.395038,243.045,0.614582
214.3000,-0.59154,242.718,0.610455
214.2000,-0.374991,243.196,0.616481
214.1000,1.4703,242.382,0.606222
214.0000,-0.578336,243.677,0.62254
213.9000,-0.945335,243.734,0.623252
213.8000,-2.31777,241.862,0.599649
213.7000,-0.375053,243.862,0.624861
213.6000,0.644927,243.163,0.616067
213.5000,-1.52152,243.382,0.61882
213.4000,2.49738,244.179,0.628844
213.3000,-0.790873,244.377,0.631318
213.2000,-0.451587,244.216,0.629299
213.1000,-0.616736,244.415,0.631801
213.0000,-0.668518,243.917,0.625544
212.9000,-0.905518,243.87,0.62496
212.8000,-2.27328,244.644,0.63467
212.7000,-1.33532,244.183,0.628887
212.6000,1.8957,245.071,0.640019
212.5000,0.0944542,244.209,0.629214
212.4000,0.653396,245.28,0.642627
212.3000,1.28206,245.666,0.647455
212.2000,-1.10931,244.562,0.633648
212.1000,-0.486573,245.429,0.644496
212.0000,0.213076,245.01,0.639253
211.9000,0.00163232,245.592,0.646535
211.8000,-1.68345,245.724,0.648176
211.7000,-2.10193,245.767,0.648714
211.6000,-0.771066,246.339,0.65585
211.5000,0.757664,246.269,0.654974
211.4000,-0.139593,245.729,0.648247
211.3000,0.558454,246.433,0.657021
211.2000,-0.570385,246.069,0.652488
211.1000,-4.6827,246.877,0.662549
211.0000,0.443996,247.145,0.665873
210.9000,0.734357,247.048,0.664676
210.8000,-1.13811,247.215,0.666746
210.7000,-0.20782,246.92,0.663084
210.6000,-4.73279,246.915,0.663014
210.5000,-1.00987,247.682,0.67254
210.4000,-0.446049,246.813,0.661746
210.3000,2.08758,247.443,0.669574
210.2000,-2.93522,247.906,0.675322
210.1000,-1.68879,248.2,0.678957
210.0000,0.409117,248.007,0.676572
209.9000,-0.739994,247.58,0.671275
209.8000,-0.988607,248.229,0.679322
209.7000,0.950286,248.203,0.678999
209.6000,0.389102,249.189,0.691185
209.5000,-1.31369,248.871,0.687267
209.4000,0.689893,248.766,0.685965
209.3000,-3.47231,248.809,0.686498
209.2000,0.0153373,249.802,0.698742
209.1000,0.936259,249.448,0.694386
209.0000,-0.77091,249.787,0.69856
208.9000,-4.27486,250.114,0.702591
208.8000,0.31183,250.245,0.704194
208.7000,-3.08304,250.446,0.706674
208.6000,-6.88434,249.524,0.695321
208.5000,0.384032,250.084,0.702215
208.4000,-1.71502,250.601,0.708567
208.3000,0.763924,251.203,0.715964
208.2000,-2.16334,250.716,0.709986
208.1000,-1.42084,251.41,0.718491
208.0000,0.0240791,251.546,0.720157
207.9000,-0.597235,250.831,0.711391
207.8000,-0.151584,251.429,0.718727
207.7000,0.027717,251.984,0.725522
207.6000,-0.751012,252.5,0.731821
207.5000,-1.50877,252.622,0.733314
207.4000,-3.43831,251.769,0.722889
207.3000,0.228365,252.934,0.737114
207.2000,-1.53949,252.705,0.734323
207.1000,0.263076,252.385,0.730423
207.0000,-1.8991,252.936,0.737142
206.9000,-0.779779,253.013,0.738081
206.8000,-0.391751,252.818,0.735705
206.7000,-0.39608,253.941,0.749372
206.6000,-1.10311,252.479,0.731572
206.5000,-1.87058,254.258,0.753225
206.4000,-1.66182,254.156,0.751987
206.3000,-2.42017,254.192,0.752427
206.2000,0.991409,254.637,0.757815
206.1000,-0.445108,254.742,0.759092
206.0000,-0.783922,255.231,0.765019
205.9000,0.96046,254.626,0.757692
205.8000,-2.65674,255.408,0.767157
205.7000,0.0651838,255.695,0.770621
205.6000,-0.683037,255.874,0.772784
205.5000,2.14566,255.866,0.772688
205.4000,0.791923,256.299,0.77791
205.3000,-4.03605,255.32,0.766088
205.2000,3.47469,255.405,0.767116
205.1000,-0.462031,256.798,0.78393
205.0000,-0.686776,256.542,0.780846
204.9000,-1.23383,256.98,0.786111
204.8000,2.54525,256.858,0.784652
204.7000,0.972035,257.486,0.792199
204.6000,-1.37614,256.969,0.785988
204.5000,-0.28546,256.957,0.785839
204.4000,0.806761,258.505,0.804413
204.3000,-2.54063,258.3,0.801958
204.2000,0.204579,258.011,0.798495
204.1000,1.66053,258.703,0.806786
204.0000,-2.79908,258.872,0.808806
203.9000,2.89835,258.539,0.80482
203.8000,-0.330545,259.418,0.81533
203.7000,0.169777,260.015,0.822451
203.6000,-0.34128,259.176,0.812435
203.5000,1.53707,259.861,0.820615
203.4000,4.05617,259.863,0.820642
203.3000,-2.45369,259.962,0.821817
203.2000,-0.395488,260.436,0.827456
203.1000,1.7901,261.292,0.837633
203.0000,0.56224,260.161,0.824192
202.9000,0.856836,261.181,0.836316
202.8000,0.0574185,261.672,0.842135
202.7000,0.300518,261.124,0.835643
202.6000,1.91685,262.139,0.847663
202.5000,-0.799059,262.091,0.8471
202.4000,0.24669,261.566,0.840886
202.3000,-0.295016,261.807,0.843732
202.2000,-0.826406,262.805,0.855539
202.1000,3.1533,262.894,0.856595
202.0000,1.72476,262.925,0.856957
201.9000,1.46996,264.024,0.869908
201.8000,4.07611,263.597,0.86488
201.7000,-2.80205,264.832,0.879399
201.6000,1.51621,264.715,0.878029
201.5000,1.19261,264.508,0.875595
201.4000,1.14109,266.127,0.894565
201.3000,3.45914,264.715,0.878029
201.2000,1.86682,265.308,0.884979
201.1000,-1.78877,265.52,0.88746
201.0000,2.65056,266.069,0.893889
200.9000,1.80958,265.693,0.88949
200.8000,1.20374,266.689,0.901127
200.7000,-1.11119,267.655,0.912385
200.6000,1.0009,266.333,0.896974
200.5000,8.04643,267.371,0.909075
200.4000,1.02089,267.317,0.908442
200.3000,2.39082,267.626,0.912042
200.2000,1.94088,267.406,0.909484
200.1000,3.47305,268.556,0.922847
200.0000,2.74731,268.655,0.92399
199.9000,0.461664,267.865,0.914822
199.8000,1.87897,268.823,0.925934
199.7000,3.00271,269.528,0.934106
199.6000,4.09194,269.583,0.934735
199.5000,4.86204,269.02,0.928218
199.4000,3.86792,269.754,0.936712
199.3000,4.38423,270.001,0.939565
199.2000,1.23595,269.184,0.93012
199.1000,4.11403,269.394,0.932546
199.0000,2.23127,269.255,0.930947
198.9000,-1.45234,270.339,0.943462
198.8000,4.4431,270.564,0.946062
198.7000,-0.289273,270.409,0.944272
198.6000,0.363221,270.591,0.946376
198.5000,5.71819,270.49,0.945213
198.4000,3.41704,271.8,0.960284
198.3000,4.87245,271.452,0.956288
198.2000,3.24507,271.21,0.953499
198.1000,2.46349,271.935,0.961832
198.0000,1.15869,271.723,0.959399
197.9000,3.05537,271.982,0.962366
197.8000,2.45987,272.4,0.967161
197.7000,0.848515,272.156,0.964368
197.6000,4.2957,272.635,0.969861
197.5000,4.23419,272.059,0.96325
197.4000,2.48877,272.326,0.966317
197.3000,4.13456,272.949,0.973455
197.2000,5.72462,273.016,0.97422
197.1000,5.64423,272.226,0.965173
197.0000,1.86763,273.782,0.982973
196.9000,3.65282,273.074,0.974881
196.8000,3.74656,272.696,0.970562
196.7000,5.31317,273.878,0.984072
196.6000,3.19235,274.551,0.991744
196.5000,3.50619,274.929,0.996038
196.4000,3.06515,274.209,0.987845
196.3000,-0.456341,274.201,0.987755
196.2000,5.73128,273.86,0.983865
196.1000,3.58952,274.36,0.989563
196.0000,7.11065,274.594,0.992234
195.9000,7.67,274.949,0.99627
195.8000,3.26835,274.284,0.988698
195.7000,1.42091,275.264,0.999851
195.6000,2.0055,275.437,1.00182
195.5000,2.62669,275.077,0.997726
195.4000,6.2322,274.871,0.995381
195.3000,5.59347,276.048,1.00875
195.2000,3.9206,275.528,1.00285
195.1000,1.75912,275.223,0.999388
195.0000,2.0043,274.71,0.99355
194.9000,6.3825,275.224,0.9994
194.8000,1.31528,275.317,1.00046
194.7000,0.308058,275.686,1.00464
194.6000,1.33513,275.852,1.00653
194.5000,4.84304,275.424,1.00167
194.4000,5.20439,275.23,0.999465
194.3000,2.37683,276.223,1.01073
194.2000,-0.0259881,276.109,1.00944
194.1000,1.50232,276.144,1.00984
194.0000,1.50565,276.168,1.01011
193.9000,1.94152,276.004,1.00825
193.8000,4.0748,275.862,1.00664
193.7000,3.71233,276.279,1.01137
193.6000,5.92782,276.008,1.0083
193.5000,1.74876,277.563,1.02588
193.4000,5.30354,277.104,1.0207
193.3000,3.21107,276.867,1.01803
193.2000,4.69931,277.549,1.02573
193.1000,0.549647,276.28,1.01138
193.0000,3.70107,276.995,1.01947
192.9000,8.79636,276.485,1.01371
192.8000,0.818205,276.667,1.01576
192.7000,3.15434,276.984,1.01935
192.6000,6.33535,277.181,1.02157
192.5000,3.57836,277.546,1.02569
192.4000,2.48039,278.134,1.03232
192.3000,3.64567,277.232,1.02215
192.2000,1.28164,277.707,1.02751
192.1000,6.14093,278.113,1.03208
192.0000,3.36796,277.614,1.02646
191.9000,2.25957,277.316,1.0231
191.8000,4.70153,277.293,1.02284
191.7000,0.00600489,275.974,1.00792
191.6000,4.11283,277.168,1.02142
191.5000,1.3659,277.677,1.02718
191.4000,-0.101168,278.644,1.03806
191.3000,1.77385,277.22,1.02201
191.2000,3.37022,277.845,1.02907
191.1000,7.126,278.033,1.03119
191.0000,3.53319,278.433,1.03569
190.9000,5.39149,278.62,1.0378
190.8000,3.25018,278.395,1.03526
190.7000,-3.67242,278.647,1.0381
190.6000,-0.09311,279.018,1.04227
190.5000,8.29409,277.385,1.02388
190.4000,-0.86579,279.178,1.04406
190.3000,4.94928,276.572,1.01468
190.2000,3.16351,278.976,1.0418
190.1000,4.41033,278.881,1.04073
190.0000,2.51406,278.559,1.03711

##### Extended Information
[Comments]
Sample name,ECTC_PROTEIN_928
Comment,PROTEIN
User,TRICIACHESELDINE
Division
Company,Saint Mary's College

[Detailed Information]
Creation date,9/28/2022 4:21 PM

Data array type,Linear data array * 3
Horizontal axis,Wavelength [nm]
Vertical axis(1),CD [mdeg]
Vertical axis(2),HT [V]
Vertical axis(3),Abs
Start,320 nm
End,190 nm
Data interval,0.1 nm
Data points,1301    

[Measurement Information]
Instrument name,J-1500
Model name,J-1500
Serial No.,B051061638

Detector,PM-539
Detector S/N,B051061638
  Lock-in amp.,X mode
  HT volt,Auto

Accessory,PTC-517
Accessory S/N,B026561646
  Temperature,22.95 C
  Control sensor,Holder
  Monitor sensor,Holder

Measurement date,9/28/2022 4:21 PM

Photometric mode,CD, HT, Abs
Measure range,320 - 190 nm
Data pitch,0.1 nm
CD scale,20 mdeg/0.05 dOD
FL scale,20 mdeg/0.05 dOD
D.I.T.,8 msec
Bandwidth,2.00 nm
Start mode,Immediately
Scanning mode,Continuous
Scanning speed,200 nm/min
Baseline correction,None
Shutter control,Auto
No. of cycle,1/1
N2 Flowmeter,Manual

Solvent,NaPO4 buffer

