TITLE,ECTC_PROTEIN&ADDITIVE_928,,
DATA TYPE,,,
ORIGIN,JASCO,,
OWNER,,,
DATE,22/09/28,,
TIME,17:48:34,,
SPECTROMETER/DATA SYSTEM,,,
LOCALE,1033,,
RESOLUTION,,,
DELTAX,-0.1,,
XUNITS,NANOMETERS,,
YUNITS,CD [mdeg],,
Y2UNITS,HT [V],,
Y3UNITS,ABSORBANCE,,
FIRSTX,320,,
LASTX,190,,
NPOINTS,1301,,
FIRSTY,0.59321,,
MAXY,56.26346,,
MINY,-57.28013,,
XYDATA,,,
320,0.593214,207.674,0.139537
319.9,0.739556,208.489,0.151204
319.8,1.45065,208.855,0.156432
319.7,1.7796,208.407,0.150037
319.6,0.474797,207.999,0.144198
319.5,1.30774,208.157,0.146454
319.4,0.468207,208.19,0.146924
319.3,0.456734,207.786,0.141145
319.2,1.5878,208.142,0.146243
319.1,3.01365,208.248,0.147751
319,0.103738,208.689,0.15407
318.9,2.07878,207.859,0.142185
318.8,1.36743,208.033,0.144685
318.7,0.52313,208.476,0.151025
318.6,1.41437,207.933,0.14324
318.5,1.34716,207.452,0.13635
318.4,0.0683052,207.39,0.135455
318.3,2.12105,206.145,0.117529
318.2,-0.598031,208.178,0.146762
318.1,1.85259,208.052,0.144945
318,-0.523657,207.854,0.14212
317.9,1.13019,208.172,0.146665
317.8,0.43037,208.015,0.144425
317.7,1.21064,208.088,0.145464
317.6,1.97442,207.556,0.137846
317.5,2.30232,208.19,0.146924
317.4,0.776134,209.282,0.162526
317.3,1.94685,208.832,0.156109
317.2,0.934726,207.897,0.142737
317.1,2.67563,208.609,0.15292
317,-0.323024,208.325,0.148854
316.9,1.94121,207.84,0.141909
316.8,-1.00355,207.976,0.143857
316.7,1.16015,208.423,0.150264
316.6,1.0432,208.047,0.14488
316.5,1.46752,207.53,0.137472
316.4,1.87504,207.876,0.142429
316.3,0.920722,208.565,0.152289
316.2,3.24672,208.259,0.147913
316.1,1.82542,208.106,0.145724
316,1.48317,207.41,0.135748
315.9,0.179916,208.883,0.156837
315.8,-0.382148,208.352,0.149243
315.7,2.08988,207.646,0.13913
315.6,2.14828,207.824,0.141681
315.5,1.40701,208.111,0.145789
315.4,0.941655,208.122,0.145951
315.3,0.34653,207.565,0.137976
315.2,2.78882,207.995,0.144133
315.1,1.18404,207.89,0.142623
315,2.5804,207.135,0.131792
314.9,1.67349,208.091,0.145513
314.8,-0.0132574,207.911,0.142932
314.7,0.657079,207.978,0.14389
314.6,-0.520551,207.419,0.135878
314.5,0.61083,207.936,0.143289
314.4,1.84705,207.703,0.139943
314.3,1.18366,207.572,0.138074
314.2,3.1198,207.33,0.134592
314.1,-0.0568659,207.088,0.131124
314,-0.0196797,206.941,0.129006
313.9,0.715373,207.712,0.140073
313.8,0.24797,206.946,0.129071
313.7,0.289809,208.048,0.144896
313.6,0.838917,207.522,0.137358
313.5,0.00581911,207.615,0.138692
313.4,1.86172,208.046,0.144864
313.3,1.3497,208.103,0.145675
313.2,2.64825,208.071,0.145221
313.1,0.652916,207.993,0.144101
313,0.461065,207.183,0.132476
312.9,-0.721611,207.144,0.131922
312.8,1.91204,207.318,0.13443
312.7,0.871007,208.115,0.145853
312.6,3.03998,207.454,0.136382
312.5,0.842193,208.052,0.144945
312.4,-0.0835682,208.546,0.152013
312.3,0.833172,207.532,0.137488
312.2,0.0753659,207.646,0.13913
312.1,0.986448,207.73,0.140333
312,-0.00873857,208.173,0.146681
311.9,0.258271,208.04,0.144783
311.8,1.29575,207.297,0.13412
311.7,0.243532,207.765,0.140837
311.6,1.25847,207.237,0.133258
311.5,0.746782,207.619,0.13874
311.4,0.779177,207.363,0.135064
311.3,1.32367,207.479,0.13674
311.2,2.07654,207.876,0.142429
311.1,3.14642,208.002,0.144231
311,3.08899,207.876,0.142429
310.9,0.46155,207.022,0.130163
310.8,0.282965,207.987,0.14402
310.7,1.82546,208.15,0.146356
310.6,1.05492,207.147,0.131971
310.5,1.19307,207.019,0.13013
310.4,1.31177,207.887,0.142591
310.3,-0.160174,207.56,0.137895
310.2,1.42958,207.985,0.143987
310.1,0.336609,208.445,0.150572
310,0.793658,207.862,0.142234
309.9,-0.385295,208.096,0.145577
309.8,-0.722596,207.444,0.136236
309.7,0.808337,207.709,0.14004
309.6,-0.214545,206.968,0.129397
309.5,-0.518777,207.221,0.13303
309.4,0.0396943,208.907,0.157177
309.3,0.52443,207.865,0.142266
309.2,1.50632,208.697,0.154183
309.1,0.912905,208.416,0.150167
309,1.82914,207.213,0.132916
308.9,1.71598,207.577,0.138139
308.8,1.07314,206.756,0.126348
308.7,2.13122,205.937,0.114535
308.6,0.988657,207.279,0.13386
308.5,-0.594562,207.486,0.136838
308.4,2.24698,206.571,0.123672
308.3,-0.346757,208.139,0.146194
308.2,0.707587,206.99,0.129707
308.1,1.10592,207.36,0.135032
308,-0.293085,207.646,0.13913
307.9,0.00629588,208.414,0.150134
307.8,1.00838,207.868,0.142315
307.7,1.45688,206.679,0.125239
307.6,2.11119,207.486,0.136838
307.5,2.25185,206.712,0.125712
307.4,1.04442,207.408,0.135715
307.3,0.204264,206.695,0.125467
307.2,-0.54879,207.553,0.137797
307.1,2.73455,207.734,0.140398
307,1.37905,206.635,0.124602
306.9,1.23391,206.946,0.129071
306.8,0.77709,208.092,0.145529
306.7,0.827053,209.429,0.164625
306.6,0.47003,208.048,0.144896
306.5,0.395306,208.392,0.14981
306.4,0.942841,207.056,0.130652
306.3,1.52218,208.116,0.14587
306.2,1.75353,207.294,0.134072
306.1,2.33534,207.315,0.134381
306,0.154201,207.775,0.140983
305.9,1.27158,206.732,0.125989
305.8,2.01168,208.344,0.149129
305.7,-0.261725,207.306,0.134251
305.6,1.51763,207.161,0.132167
305.5,0.397663,207.399,0.135585
305.4,1.51161,207.777,0.141015
305.3,1.02521,207.476,0.136691
305.2,1.41654,207.973,0.143825
305.1,0.799615,205.312,0.10549
305,1.41142,207.805,0.141405
304.9,1.39342,207.164,0.132216
304.8,0.252649,207.187,0.132541
304.7,1.37388,207.681,0.139634
304.6,2.19808,206.613,0.124276
304.5,0.678586,207.633,0.138952
304.4,1.35066,206.984,0.129625
304.3,1.34658,206.524,0.123003
304.2,0.502981,208.207,0.147167
304.1,2.06528,207.927,0.143159
304,0.434303,207.755,0.14069
303.9,1.24682,207.873,0.14238
303.8,0.834678,206.624,0.124439
303.7,1.40278,207.508,0.137147
303.6,-1.33011,207.408,0.135715
303.5,2.05297,207.7,0.139911
303.4,1.61764,206.923,0.128745
303.3,0.0682515,207.765,0.140837
303.2,0.944024,206.069,0.116433
303.1,2.28374,207.8,0.14134
303,0.420678,208.442,0.150539
302.9,0.722081,207.537,0.13757
302.8,-0.583908,208.28,0.148221
302.7,0.39446,207.067,0.130815
302.6,2.25457,208.047,0.14488
302.5,1.99778,206.611,0.124259
302.4,1.62639,207.763,0.140804
302.3,1.21033,207.686,0.139699
302.2,1.84759,208.006,0.144296
302.1,2.05261,206.366,0.120716
302,1.44113,207.49,0.136886
301.9,0.812064,206.988,0.129674
301.8,0.470516,207.75,0.140625
301.7,1.78001,207.142,0.13189
301.6,2.44157,206.027,0.115828
301.5,0.555571,206.694,0.125451
301.4,0.639883,206.616,0.124325
301.3,1.34395,207.953,0.143533
301.2,1.23394,206.905,0.128484
301.1,-0.347054,208.871,0.156659
301,0.43843,206.983,0.129609
300.9,0.54647,206.971,0.12943
300.8,0.341955,207.098,0.131255
300.7,1.18167,207.339,0.134723
300.6,-1.45679,206.703,0.125581
300.5,0.063285,207.331,0.134609
300.4,0.9974,207.647,0.139147
300.3,0.065591,207.213,0.132916
300.2,1.4213,206.396,0.121157
300.1,0.0439098,207.026,0.130228
300,0.582398,207.631,0.138919
299.9,1.24203,208.005,0.144279
299.8,1.53017,207.226,0.133095
299.7,2.38219,206.695,0.125467
299.6,0.603649,208.369,0.149486
299.5,-0.345125,208.475,0.151009
299.4,1.38034,206.869,0.127963
299.3,1.18618,207.129,0.131711
299.2,1.1343,206.568,0.123639
299.1,1.76947,206.537,0.123182
299,2.18905,206.485,0.122431
298.9,1.66207,207.69,0.139764
298.8,2.58062,209.557,0.166448
298.7,1.15136,206.049,0.116155
298.6,0.34948,206.98,0.12956
298.5,0.655111,207.928,0.143175
298.4,0.118511,208.893,0.156982
298.3,2.11019,205.828,0.112964
298.2,0.685064,206.32,0.120063
298.1,-0.393017,206.054,0.116221
298,-0.413963,206.427,0.121598
297.9,1.59302,207.519,0.137309
297.8,1.15823,207.733,0.140382
297.7,1.91078,206.341,0.120357
297.6,0.0171217,207.292,0.134056
297.5,1.63501,206.091,0.11676
297.4,0.301288,206.809,0.127098
297.3,0.373382,206.466,0.12217
297.2,1.43362,206.317,0.120013
297.1,1.7438,207.083,0.131043
297,2.15298,207.096,0.131238
296.9,1.11349,207.237,0.133258
296.8,1.1425,206.923,0.128745
296.7,0.844135,207.487,0.136854
296.6,1.38233,206.596,0.124031
296.5,2.54902,205.661,0.11054
296.4,1.4806,207.699,0.139894
296.3,1.3176,207.06,0.130717
296.2,-0.554922,207.084,0.131059
296.1,2.63143,206.24,0.118902
296,1.14471,206.49,0.122513
295.9,0.0944296,207.103,0.131336
295.8,0.416486,207.054,0.130636
295.7,-0.809884,207.311,0.134316
295.6,1.49669,206.874,0.128044
295.5,0.0314345,206.571,0.123672
295.4,-0.622081,206.299,0.119752
295.3,2.42989,206.483,0.122415
295.2,1.09637,207.376,0.13526
295.1,1.19642,206.894,0.128321
295,1.188,206.49,0.122513
294.9,0.503476,206.41,0.121353
294.8,1.67566,206.357,0.120585
294.7,1.04927,206.687,0.125353
294.6,2.24313,207.005,0.129919
294.5,0.740473,205.649,0.110376
294.4,0.126386,206.904,0.128468
294.3,-0.0428782,206.432,0.12168
294.2,0.610303,206.446,0.121876
294.1,2.27597,207.159,0.132134
294,2.5695,206.606,0.124178
293.9,1.97635,206.167,0.117856
293.8,0.955334,206.668,0.125075
293.7,-0.440435,206.955,0.129202
293.6,2.74656,206.588,0.123917
293.5,1.11654,206.797,0.126935
293.4,1.84047,207.076,0.130945
293.3,0.907732,206.605,0.124162
293.2,1.59097,206.304,0.119834
293.1,-1.32569,207.079,0.130994
293,2.11613,207.189,0.132574
292.9,-0.547943,207.584,0.138236
292.8,1.22296,206.761,0.126413
292.7,2.03081,207.485,0.136822
292.6,-0.519451,206.447,0.121892
292.5,1.30238,206.477,0.122317
292.4,0.937254,205.908,0.11411
292.3,0.299931,206.696,0.125483
292.2,0.632895,207.298,0.134137
292.1,0.00217108,206.132,0.117349
292,-0.397117,206.529,0.123068
291.9,2.0404,206.102,0.116907
291.8,0.317144,208.375,0.149567
291.7,2.44483,206.766,0.126479
291.6,2.6183,207.031,0.130293
291.5,0.0364751,205.808,0.112669
291.4,0.836899,206.872,0.128011
291.3,1.15927,206.491,0.122529
291.2,1.89784,206.54,0.123231
291.1,1.179,206.977,0.129527
291,2.72127,207.194,0.132639
290.9,1.48422,207.792,0.141227
290.8,0.0744705,207.279,0.13386
290.7,-0.912998,207.12,0.13158
290.6,0.504431,206.885,0.128191
290.5,-0.0482172,205.806,0.112636
290.4,3.1203,206.028,0.115844
290.3,1.1926,206.55,0.123378
290.2,-0.0446543,206.895,0.128337
290.1,1.68162,207.134,0.131776
290,1.52494,206.199,0.118314
289.9,-0.311148,206.793,0.12687
289.8,2.93803,204.78,0.0977876
289.7,0.963844,206.946,0.129071
289.6,1.56473,207.726,0.140284
289.5,1.92919,205.97,0.11501
289.4,1.10445,207.103,0.131336
289.3,1.69941,206.436,0.121729
289.2,0.701388,207.066,0.130799
289.1,1.82241,207.01,0.13
289,0.263279,206.94,0.128989
288.9,1.59939,207.844,0.141974
288.8,0.449896,206.09,0.116744
288.7,1.75126,207.193,0.132623
288.6,0.5921,207.573,0.13809
288.5,1.38295,207.397,0.135553
288.4,1.18988,205.877,0.113668
288.3,1.09607,206.592,0.123982
288.2,1.01227,207.283,0.133925
288.1,1.31029,207.22,0.133014
288,0.188467,207.79,0.141194
287.9,0.856888,207.631,0.138919
287.8,0.865655,206.07,0.11645
287.7,1.01783,207.043,0.130473
287.6,-0.698683,206.937,0.128941
287.5,-0.0105074,206.914,0.128615
287.4,0.792357,205.919,0.114273
287.3,1.49472,206.276,0.119425
287.2,0.209876,206.681,0.125255
287.1,-0.568153,207.342,0.134771
287,0.114229,207.862,0.142234
286.9,1.91005,207.137,0.131825
286.8,0.542006,207.207,0.132835
286.7,0.400086,207.504,0.137098
286.6,1.73438,207.649,0.139179
286.5,0.963251,206.847,0.127653
286.4,0.351776,207.598,0.138448
286.3,0.186621,206.387,0.121027
286.2,2.38932,206.559,0.123509
286.1,0.630994,204.823,0.0984124
286,1.14879,206.984,0.129625
285.9,1.49208,207.153,0.132053
285.8,1.09193,207.692,0.139797
285.7,-0.241214,207.122,0.131613
285.6,1.14681,207.36,0.135032
285.5,-0.371773,205.391,0.106639
285.4,-0.867242,207.19,0.13259
285.3,0.41601,206.304,0.119834
285.2,-0.248582,207.582,0.13822
285.1,0.211439,206.519,0.122921
285,1.06029,208.436,0.150442
284.9,1.67319,206.252,0.119082
284.8,0.86426,208.386,0.149729
284.7,0.413473,207.407,0.135699
284.6,1.61322,206.489,0.122496
284.5,1.42808,207.624,0.138821
284.4,-0.0224813,207.348,0.134853
284.3,0.648167,206.951,0.129152
284.2,0.58234,205.932,0.114453
284.1,0.611413,205.603,0.109704
284,0.405055,207.482,0.136773
283.9,1.39916,207.755,0.14069
283.8,1.41971,208.114,0.145837
283.7,0.321098,207.09,0.131141
283.6,0.750834,206.747,0.126217
283.5,0.464546,206.938,0.128957
283.4,-0.794619,207.321,0.134462
283.3,-1.25317,207.752,0.140658
283.2,1.27578,206.481,0.122382
283.1,-0.894209,206.58,0.123803
283,-0.392611,206.644,0.124733
282.9,0.392773,205.839,0.113111
282.8,1.47082,207.363,0.135064
282.7,1.19525,207.133,0.131759
282.6,0.877124,207.904,0.142835
282.5,1.93538,209.227,0.161735
282.4,1.51667,207.307,0.134267
282.3,1.34609,207.333,0.134641
282.2,0.0492334,207.631,0.138919
282.1,1.77929,206.811,0.127131
282,2.21183,207.718,0.140171
281.9,1.05746,207.278,0.133844
281.8,0.32139,206.991,0.129723
281.7,1.91436,206.448,0.121909
281.6,0.667947,207.994,0.144117
281.5,-0.837295,207.047,0.130521
281.4,-0.151681,207.284,0.133941
281.3,1.7654,207.169,0.132281
281.2,-0.433417,207.068,0.130831
281.1,-0.81581,206.838,0.127522
281,0.00991958,207.459,0.136447
280.9,0.381108,207.229,0.133144
280.8,0.658243,206.812,0.127147
280.7,1.95335,207.172,0.132329
280.6,0.228335,207.538,0.137586
280.5,1.91466,207.43,0.136024
280.4,-2.11148,206.853,0.127734
280.3,2.10163,207.109,0.131417
280.2,1.00978,208.078,0.145318
280.1,-0.182245,206.281,0.119491
280,0.959558,206.916,0.128647
279.9,2.81909,206.797,0.126935
279.8,0.705989,208.575,0.152434
279.7,0.0649569,208.065,0.145139
279.6,0.0119707,207.306,0.134251
279.5,-0.368416,207.26,0.133583
279.4,0.78676,205.673,0.11072
279.3,1.50423,208.305,0.148578
279.2,0.240613,206.858,0.127816
279.1,1.16724,206.851,0.127702
279,-0.39607,206.323,0.120095
278.9,0.737958,207.44,0.136171
278.8,1.51263,207.419,0.135878
278.7,-0.925957,207.684,0.139683
278.6,0.586352,207.324,0.134511
278.5,1.18463,208.234,0.147557
278.4,0.815494,207.448,0.136285
278.3,-0.613061,208.103,0.145675
278.2,0.160518,207.956,0.143581
278.1,-1.14546,207.367,0.13513
278,0.929155,208.044,0.144831
277.9,-0.836943,207.799,0.141324
277.8,-0.163205,207.672,0.139504
277.7,1.47263,206.503,0.122692
277.6,-0.311092,207.096,0.131238
277.5,0.118043,207.587,0.138285
277.4,0.429575,208.609,0.15292
277.3,0.365518,207.601,0.13848
277.2,1.53554,207.911,0.142932
277.1,0.820293,206.615,0.124308
277,0.710259,207.499,0.137017
276.9,0.595002,207.874,0.142396
276.8,2.19361,209.556,0.166432
276.7,-0.0163999,207.551,0.137765
276.6,1.03833,208.143,0.146259
276.5,1.25377,208.245,0.147719
276.4,0.138553,207.648,0.139163
276.3,0.14693,207.578,0.138155
276.2,2.69277,208.679,0.153924
276.1,1.68476,207.755,0.14069
276,-0.00085279,207.598,0.138448
275.9,-1.28248,208.214,0.147265
275.8,2.07973,208.506,0.151447
275.7,1.42834,208.258,0.147897
275.6,0.614052,207.767,0.140869
275.5,1.51216,208.218,0.14733
275.4,2.65347,206.559,0.123509
275.3,1.66905,208.934,0.157565
275.2,0.68857,206.943,0.129039
275.1,0.844689,206.905,0.128484
275,1.585,207.633,0.138952
274.9,-0.955807,208.207,0.147167
274.8,1.67417,207.219,0.132997
274.7,1.14106,206.906,0.1285
274.6,-0.242224,207.126,0.131662
274.5,0.23044,207.449,0.136301
274.4,0.623126,206.386,0.12101
274.3,-0.163327,208.148,0.146324
274.2,-1.03212,207.508,0.137147
274.1,-1.25747,207.414,0.135797
274,1.16969,207.526,0.137407
273.9,-0.191438,207.628,0.13887
273.8,0.575449,207.301,0.134186
273.7,0.98815,207.934,0.143257
273.6,1.87117,207.954,0.143549
273.5,-0.0901443,207.397,0.135553
273.4,-0.665735,207.55,0.137748
273.3,1.47423,208.087,0.145448
273.2,-0.529741,207.507,0.13713
273.1,-0.708537,207.655,0.13926
273,0.691051,207.918,0.143029
272.9,-1.08564,207.796,0.141275
272.8,1.08415,207.516,0.137261
272.7,0.760515,206.694,0.125451
272.6,0.235937,207.619,0.13874
272.5,1.02783,206.624,0.124439
272.4,-2.15591,205.976,0.115092
272.3,2.32342,207.722,0.140219
272.2,-0.976005,207.68,0.139618
272.1,1.59228,208.401,0.14994
272,-0.286201,207.349,0.134869
271.9,0.322295,209.267,0.162316
271.8,1.06842,208.201,0.147086
271.7,0.455276,207.571,0.138057
271.6,1.50085,208.796,0.155591
271.5,0.121925,208.243,0.147686
271.4,0.486083,207.495,0.136968
271.3,-0.184241,208.492,0.151252
271.2,-0.456296,206.931,0.128859
271.1,-0.603016,207.936,0.143289
271,1.15266,207.741,0.140495
270.9,1.59967,207.223,0.133062
270.8,-0.0218455,207.67,0.139472
270.7,-0.0169216,207.33,0.134592
270.6,-0.559095,207.615,0.138692
270.5,-0.345525,207.844,0.141974
270.4,1.23359,207.269,0.133713
270.3,0.58088,207.892,0.142656
270.2,0.955474,207.185,0.132509
270.1,2.64781,207.66,0.139325
270,1.27202,207.071,0.13088
269.9,0.828811,207.324,0.134511
269.8,0.796515,209.87,0.170898
269.7,-0.0159902,207.895,0.142705
269.6,0.414848,208.832,0.156109
269.5,1.10013,208.645,0.153438
269.4,0.612609,208.243,0.147686
269.3,1.84597,208.663,0.153698
269.2,0.0426515,208.415,0.15015
269.1,2.5187,207.26,0.133583
269,1.98837,208.072,0.145237
268.9,0.625368,208.049,0.144912
268.8,0.0026397,208.763,0.155122
268.7,-0.234462,208.192,0.146956
268.6,0.49039,208.404,0.149988
268.5,-0.812672,208.73,0.154652
268.4,-1.08751,208.362,0.149388
268.3,-1.02281,208.932,0.157532
268.2,0.792341,207.807,0.141438
268.1,0.590349,207.25,0.133453
268,-1.04451,209.017,0.158745
267.9,-0.204008,207.827,0.14173
267.8,1.28198,207.623,0.138805
267.7,0.502084,207.887,0.142591
267.6,0.375949,209.002,0.158535
267.5,-0.79333,208.487,0.151171
267.4,-1.59797,208.923,0.157403
267.3,-1.07175,207.754,0.140674
267.2,-1.01615,208.653,0.153552
267.1,-0.0633571,208.821,0.155947
267,0.599856,208.616,0.153017
266.9,0.601556,208.938,0.157613
266.8,-1.01187,208.24,0.147638
266.7,0.239915,207.925,0.143127
266.6,-0.0589959,207.81,0.141486
266.5,2.05835,210.431,0.178865
266.4,1.14269,208.299,0.148481
266.3,0.611155,208.663,0.153698
266.2,0.00532909,207.619,0.13874
266.1,1.00643,208.797,0.155607
266,1.04481,206.716,0.125761
265.9,-0.73137,208.07,0.145204
265.8,0.339536,208.399,0.149923
265.7,0.253399,208.365,0.149437
265.6,0.0267263,208.632,0.153244
265.5,0.386272,210.176,0.175246
265.4,-0.641342,208.439,0.150491
265.3,1.5614,208.185,0.146859
265.2,0.804456,208.759,0.155057
265.1,-0.55979,209.455,0.164996
265,1.90327,209.234,0.161848
264.9,-0.438475,209.987,0.172557
264.8,0.479291,209.425,0.16456
264.7,0.2786,208.141,0.146226
264.6,1.33183,209.249,0.162058
264.5,-0.0543451,208.43,0.150361
264.4,-0.832772,208.943,0.157694
264.3,-0.80595,208.78,0.155365
264.2,0.467544,208.337,0.149032
264.1,0.730896,208.499,0.151349
264,0.16819,209.111,0.160087
263.9,0.0551351,209.162,0.160814
263.8,-0.269378,209.913,0.17151
263.7,0.0397004,209.261,0.162219
263.6,-0.46461,209.671,0.168061
263.5,1.19742,209.545,0.166271
263.4,0.454012,209.878,0.171011
263.3,1.48024,208.623,0.153114
263.2,-0.250965,209.649,0.167755
263.1,0.757059,208.913,0.157257
263,1.24198,209.492,0.165513
262.9,0.0261067,209.672,0.168077
262.8,-0.48543,209.548,0.166319
262.7,1.96446,209.692,0.168367
262.6,0.530106,210.176,0.175246
262.5,-0.0139285,210.242,0.176179
262.4,0.333828,209.61,0.16719
262.3,0.214967,208.726,0.154588
262.2,0.730954,210.098,0.174135
262.1,0.390636,209.78,0.169609
262,0.096699,209.576,0.166707
261.9,0.61372,209.681,0.168206
261.8,-1.4139,209.382,0.163947
261.7,1.30168,209.079,0.159634
261.6,2.08719,210.639,0.181822
261.5,-0.809281,209.736,0.168996
261.4,-1.32252,209.877,0.170995
261.3,0.458202,210.096,0.174103
261.2,1.28092,209.767,0.169431
261.1,-0.00125053,209.8,0.169899
261,-0.000639176,209.717,0.168722
260.9,-0.685171,210.336,0.177514
260.8,1.23741,210.156,0.174956
260.7,1.20176,209.973,0.172364
260.6,0.826861,209.325,0.16314
260.5,0.615125,209.633,0.167529
260.4,0.720685,210.204,0.175648
260.3,-1.63456,211.11,0.188482
260.2,-0.192456,210.266,0.176517
260.1,1.22906,210.548,0.180521
260,0.953197,209.858,0.170721
259.9,0.830522,210.799,0.184087
259.8,-0.485044,210.551,0.180569
259.7,0.10845,209.608,0.167174
259.6,0.458023,210.106,0.174248
259.5,-1.0614,210.354,0.177772
259.4,-0.680717,210.369,0.177981
259.3,-0.614861,210.636,0.181774
259.2,-0.32357,210.027,0.173121
259.1,1.69592,210.413,0.178608
259,-0.573164,210.594,0.181179
258.9,2.00016,211.089,0.188194
258.8,-0.656853,210.618,0.181517
258.7,1.37624,211.001,0.186943
258.6,0.506294,210.165,0.175085
258.5,0.187036,210.613,0.181453
258.4,1.15553,210.255,0.176372
258.3,0.476234,210.477,0.179524
258.2,0.540406,211.357,0.191976
258.1,1.00586,210.919,0.185788
258,0.961662,210.715,0.182898
257.9,0.436667,211.059,0.187761
257.8,4.01871,211.722,0.197131
257.7,-0.276655,211.436,0.193098
257.6,0.397996,210.625,0.181613
257.5,0.591863,211.109,0.188467
257.4,0.997169,211.033,0.187392
257.3,0.0792816,211.007,0.187023
257.2,-0.748121,211.583,0.195179
257.1,1.48584,211.396,0.192537
257,0.509384,210.757,0.183492
256.9,0.188671,210.783,0.183862
256.8,0.159798,211.334,0.191656
256.7,0.0976473,211.24,0.190326
256.6,-0.318901,210.978,0.186622
256.5,-1.75012,211.033,0.187392
256.4,-0.358043,210.336,0.177514
256.3,0.477554,210.541,0.180424
256.2,1.14042,210.534,0.180328
256.1,-0.576148,210.66,0.182111
256,2.0903,211.19,0.189621
255.9,0.0703047,211.428,0.192986
255.8,1.39039,211.01,0.187071
255.7,2.08753,212.091,0.202342
255.6,0.845684,210.888,0.185338
255.5,2.33125,211.757,0.197627
255.4,0.808219,211.914,0.199849
255.3,-0.700642,211.999,0.201048
255.2,0.585999,212.186,0.203684
255.1,0.760874,211.851,0.198954
255,0.634947,211.73,0.197243
254.9,0.985446,211.972,0.200665
254.8,1.87684,211.893,0.199546
254.7,0.281841,211.603,0.195451
254.6,1.48869,211.842,0.198826
254.5,-0.246739,211.735,0.197323
254.4,0.399495,211.391,0.192457
254.3,0.770256,211.637,0.195931
254.2,1.1854,211.539,0.194555
254.1,1.10801,211.666,0.196347
254,0.552176,213.093,0.216435
253.9,-0.0462134,211.632,0.195867
253.8,0.180114,211.846,0.19889
253.7,1.57245,211.984,0.20084
253.6,-0.282069,212.161,0.203332
253.5,0.430477,212.715,0.211133
253.4,0.215601,211.791,0.198107
253.3,0.528852,212.148,0.203141
253.2,0.492828,212.493,0.208008
253.1,-0.969545,212.492,0.207992
253,-1.82231,212.017,0.201304
252.9,0.885408,212.296,0.205232
252.8,-0.150783,211.759,0.197659
252.7,-0.536164,211.863,0.19913
252.6,1.65197,212.235,0.20437
252.5,0.619289,212.432,0.207147
252.4,-0.0337115,211.895,0.199578
252.3,1.33964,212.358,0.20611
252.2,-0.539434,211.623,0.195739
252.1,-0.459745,212.408,0.206812
252,0.892936,213.818,0.226605
251.9,-0.141753,212.356,0.206078
251.8,0.141603,212.663,0.2104
251.7,0.645566,212.046,0.201703
251.6,0.650932,212.066,0.201991
251.5,-0.752271,213.395,0.220681
251.4,1.07987,213.069,0.216101
251.3,-0.980938,213.766,0.225875
251.2,1.49911,212.08,0.202183
251.1,2.40343,212.627,0.20989
251,0.235672,213.306,0.219426
250.9,1.18516,212.621,0.20981
250.8,0.0317034,213.282,0.219092
250.7,0.797683,213.129,0.216945
250.6,0.339749,213.238,0.218472
250.5,1.36149,212.32,0.205567
250.4,-0.046149,212.621,0.20981
250.3,0.530563,213.874,0.227398
250.2,-0.733015,213.232,0.218392
250.1,0.338877,212.302,0.205312
250,-0.322696,213.17,0.217517
249.9,-0.0710387,212.933,0.214191
249.8,0.664408,213.131,0.216976
249.7,0.468947,213.419,0.221015
249.6,-0.422281,213.72,0.22524
249.5,-1.06004,213.928,0.228144
249.4,1.4804,214.058,0.229967
249.3,-0.47794,214.942,0.242311
249.2,-0.758757,214.363,0.234229
249.1,-0.147124,213.572,0.22316
249,0.397213,213.726,0.225319
248.9,-0.852584,213.87,0.227335
248.8,-0.31957,212.929,0.214144
248.7,0.103954,213.639,0.224097
248.6,1.19467,213.124,0.216881
248.5,0.823212,213.212,0.218106
248.4,-0.248779,214.002,0.22919
248.3,0.127544,213.016,0.215353
248.2,-1.69941,213.389,0.220602
248.1,-0.74232,213.718,0.225208
248,-2.02067,213.963,0.228635
247.9,0.256944,213.559,0.222985
247.8,-0.835028,214.053,0.229904
247.7,-0.809076,214.367,0.234292
247.6,-0.966444,213.724,0.225288
247.5,-0.396067,214.264,0.232851
247.4,-0.7724,214.375,0.234403
247.3,-1.37395,213.544,0.222763
247.2,0.239655,214.458,0.235559
247.1,0.297309,214.775,0.239988
247,0.0479823,215.39,0.248562
246.9,-0.467578,214.858,0.241142
246.8,0.323883,215.887,0.255464
246.7,-1.77602,213.853,0.227097
246.6,0.56392,214.276,0.233009
246.5,0.594546,214.28,0.233073
246.4,-0.614411,214.294,0.233263
246.3,-2.00737,215.664,0.252361
246.2,-0.938057,214.496,0.236097
246.1,-2.35313,214.151,0.231267
246,-2.03362,214.485,0.235939
245.9,-0.305084,214.048,0.229824
245.8,0.520763,214.876,0.241395
245.7,-1.00406,215.705,0.252944
245.6,-0.456364,216.025,0.257384
245.5,-2.6119,214.28,0.233073
245.4,-0.375914,214.704,0.238992
245.3,1.24352,214.26,0.232788
245.2,-1.87739,215.083,0.244286
245.1,-0.485487,215.045,0.243749
245,-0.479405,215.494,0.249997
244.9,-2.19271,214.946,0.242375
244.8,-2.12641,214.751,0.239656
244.7,-0.860681,216.306,0.261284
244.6,-1.86918,215.686,0.252676
244.5,-2.84743,216.705,0.266812
244.4,0.148352,214.635,0.238027
244.3,-1.04853,216.254,0.26056
244.2,-1.69126,215.531,0.250517
244.1,-1.69335,215.19,0.24577
244,-3.68187,215.047,0.24378
243.9,-1.20554,216.606,0.265446
243.8,-2.02185,215.668,0.252424
243.7,-3.81579,215.803,0.254299
243.6,-2.98309,215.26,0.246748
243.5,-3.07685,216.329,0.261598
243.4,-0.863879,215.043,0.243717
243.3,-1.29918,216.354,0.261944
243.2,0.140984,215.826,0.254614
243.1,-3.15559,215.982,0.256786
243,-0.447607,217.144,0.272896
242.9,-2.79047,216.743,0.267345
242.8,-1.93435,216.385,0.262384
242.7,-2.71526,216.105,0.258501
242.6,-3.28801,216.201,0.259822
242.5,-3.00133,217.141,0.272849
242.4,-4.66596,217.813,0.282127
242.3,-3.8519,217.736,0.281065
242.2,-3.54696,216.852,0.268851
242.1,-3.36944,217.334,0.275511
242,-3.46122,217.816,0.282174
241.9,-0.644027,216.892,0.2694
241.8,-2.62315,217.413,0.276607
241.7,-4.9379,217.893,0.283237
241.6,-2.24279,217.623,0.279501
241.5,-3.34387,217.104,0.272331
241.4,-3.76878,217.807,0.282049
241.3,-1.66854,217.499,0.277796
241.2,-4.14138,218.475,0.291242
241.1,-4.37513,218.024,0.285033
241,-6.35701,218.186,0.287265
240.9,-4.38643,217.686,0.280377
240.8,-4.22132,217.917,0.283565
240.7,-5.04048,218.614,0.293159
240.6,-4.61966,219.227,0.301578
240.5,-4.47294,218.555,0.292349
240.4,-6.4884,218.751,0.295044
240.3,-7.29314,218.785,0.295511
240.2,-5.60543,219.278,0.302277
240.1,-4.33492,217.633,0.279642
240,-6.13235,220.854,0.323831
239.9,-6.01014,219.659,0.307496
239.8,-5.49291,220.031,0.312598
239.7,-6.35835,219.666,0.307589
239.6,-7.11495,219.69,0.30793
239.5,-7.60649,219.026,0.298826
239.4,-6.31743,218.759,0.295153
239.3,-6.5052,219.56,0.306145
239.2,-7.83914,221.009,0.325948
239.1,-6.99333,219.91,0.310939
239,-6.51478,220.66,0.321189
238.9,-6.43366,220.05,0.312846
238.8,-7.52996,220.558,0.319797
238.7,-10.0034,221.146,0.327815
238.6,-7.37545,220.735,0.322209
238.5,-7.92876,220.618,0.320617
238.4,-7.80866,220.987,0.325639
238.3,-10.662,221.263,0.329405
238.2,-8.4287,222.231,0.342555
238.1,-10.3652,220.87,0.324048
238,-11.7613,221.942,0.338633
237.9,-8.25528,221.92,0.338341
237.8,-8.45469,222.406,0.344936
237.7,-10.4152,222.17,0.341725
237.6,-10.2648,222.13,0.341187
237.5,-10.0485,222.666,0.348452
237.4,-10.0832,222.846,0.350892
237.3,-10.4108,222.837,0.350769
237.2,-11.9256,222.886,0.351428
237.1,-12.0693,223.783,0.363552
237,-10.3619,223.004,0.353023
236.9,-12.556,223.339,0.357556
236.8,-12.9247,223.927,0.365493
236.7,-12.809,223.594,0.360999
236.6,-12.7139,224.015,0.366684
236.5,-12.8094,223.641,0.361641
236.4,-11.1394,224.036,0.366959
236.3,-12.0533,224.095,0.367752
236.2,-14.1329,225.553,0.387346
236.1,-12.5168,224.488,0.373046
236,-14.7017,225.052,0.380629
235.9,-14.6937,225.781,0.390397
235.8,-12.993,225.565,0.387513
235.7,-16.007,226.209,0.396127
235.6,-14.9122,225.811,0.390806
235.5,-14.3579,225.662,0.388804
235.4,-13.4205,225.979,0.393051
235.3,-16.8108,226.417,0.398913
235.2,-15.9581,226.158,0.395446
235.1,-16.219,226.721,0.402967
235,-16.6858,226.701,0.402695
234.9,-17.0944,226.141,0.395218
234.8,-15.8236,227.251,0.410036
234.7,-17.2725,228.219,0.422901
234.6,-16.0072,226.555,0.400744
234.5,-18.7613,227.376,0.411696
234.4,-20.7851,227.126,0.408361
234.3,-17.6617,227.997,0.419952
234.2,-18.3119,227.833,0.417769
234.1,-18.2191,227.517,0.413566
234,-19.3465,229.036,0.433727
233.9,-21.0756,227.828,0.417709
233.8,-20.148,228.586,0.427769
233.7,-20.4746,229.017,0.433472
233.6,-19.3938,228.95,0.432587
233.5,-20.8123,229.539,0.440377
233.4,-19.9797,228.984,0.433037
233.3,-20.4709,229.817,0.444042
233.2,-22.5401,229.584,0.440976
233.1,-21.7691,229.209,0.43602
233,-24.2489,230.589,0.454224
232.9,-23.6096,230.47,0.452659
232.8,-24.3881,230.328,0.450779
232.7,-21.4761,230.33,0.450809
232.6,-22.3928,230.924,0.45862
232.5,-23.7826,230.574,0.454016
232.4,-23.9133,231.486,0.465999
232.3,-24.1877,231.676,0.468495
232.2,-23.8032,231.264,0.463085
232.1,-26.4687,232.111,0.474193
232,-24.7867,231.964,0.472265
231.9,-27.697,232.109,0.474164
231.8,-23.5864,232.441,0.478506
231.7,-27.5905,232.701,0.481911
231.6,-25.2409,233.691,0.494807
231.5,-26.469,233.605,0.493686
231.4,-28.0169,233.088,0.486954
231.3,-26.734,233.252,0.489096
231.2,-28.8167,233.674,0.494586
231.1,-32.5419,234.451,0.504688
231,-29.0397,233.586,0.49345
230.9,-27.9816,235.153,0.513795
230.8,-28.7643,234.187,0.50126
230.7,-29.6942,234.317,0.502952
230.6,-29.8389,234.525,0.505644
230.5,-29.3332,234.714,0.508098
230.4,-29.6033,235.242,0.514939
230.3,-29.6322,234.88,0.510258
230.2,-29.8454,235.268,0.515276
230.1,-35.3896,235.89,0.523318
230,-31.1129,235.816,0.522367
229.9,-30.9597,235.849,0.522791
229.8,-30.8334,235.998,0.524708
229.7,-32.0068,235.422,0.51727
229.6,-33.3842,236.243,0.52788
229.5,-32.7274,236.301,0.528626
229.4,-31.906,236.691,0.533648
229.3,-34.5294,236.497,0.531153
229.2,-34.8294,236.57,0.532087
229.1,-33.2419,237.545,0.544634
229,-35.4001,238.01,0.550594
228.9,-35.8494,238.192,0.552931
228.8,-36.6006,237.312,0.541636
228.7,-36.3973,237.91,0.549315
228.6,-37.5322,238.397,0.555558
228.5,-37.6223,238.49,0.556747
228.4,-36.2736,239.195,0.565755
228.3,-37.7012,238.803,0.560747
228.2,-36.4068,239.289,0.566955
228.1,-39.5241,239.018,0.563498
228,-38.7432,240.064,0.576833
227.9,-38.005,239.927,0.575087
227.8,-39.3005,240.908,0.587561
227.7,-39.5244,241.309,0.592648
227.6,-38.9919,240.627,0.583994
227.5,-40.6041,240.832,0.586598
227.4,-39.7896,241.236,0.591715
227.3,-38.712,241.383,0.593582
227.2,-42.1579,242.364,0.605993
227.1,-41.585,242.404,0.606494
227,-38.1072,242.454,0.607123
226.9,-40.0222,242.32,0.605435
226.8,-44.048,242.552,0.608368
226.7,-42.6129,241.788,0.598703
226.6,-41.3231,242.659,0.609712
226.5,-42.5348,243.159,0.61601
226.4,-42.1453,243.528,0.620659
226.3,-39.8004,243.586,0.621386
226.2,-43.7466,243.722,0.623095
226.1,-43.9315,244.085,0.627664
226,-43.6086,244.611,0.634258
225.9,-40.7962,245.194,0.64155
225.8,-42.4924,245.242,0.642159
225.7,-43.851,245.069,0.639991
225.6,-45.1103,244.8,0.636629
225.5,-44.5577,245.25,0.642258
225.4,-45.791,245.955,0.651061
225.3,-44.4733,245.873,0.650043
225.2,-45.6966,245.535,0.645813
225.1,-44.0506,246.358,0.656089
225,-44.3217,246.437,0.657063
224.9,-46.1498,245.524,0.645685
224.8,-47.552,247.35,0.66842
224.7,-44.5007,247.277,0.66752
224.6,-45.4518,246.867,0.662422
224.5,-46.6766,247.52,0.67053
224.4,-47.282,247.461,0.669799
224.3,-45.3295,247.514,0.67046
224.2,-45.5528,248.533,0.68308
224.1,-43.1839,248.424,0.681734
224,-46.7729,248.008,0.676585
223.9,-44.8031,248.27,0.679827
223.8,-47.5919,248.729,0.685503
223.7,-46.6508,249.139,0.690569
223.6,-49.5735,249.558,0.69574
223.5,-45.8584,249.389,0.693659
223.4,-43.1294,249.534,0.695447
223.3,-45.8759,249.106,0.690164
223.2,-45.3568,249.615,0.696439
223.1,-49.2275,250.627,0.708887
223,-47.9288,250.367,0.705699
222.9,-49.4496,251.098,0.714672
222.8,-45.5367,250.948,0.712837
222.7,-48.0376,251.381,0.718144
222.6,-47.5257,252.088,0.726797
222.5,-49.2235,251.533,0.720004
222.4,-47.3137,252.226,0.728486
222.3,-49.5908,251.643,0.721349
222.2,-47.6778,252.098,0.726921
222.1,-49.6305,253.084,0.73895
222,-50.6356,252.498,0.731807
221.9,-46.9843,253.582,0.745006
221.8,-45.6804,253.193,0.740276
221.7,-47.0589,252.569,0.732664
221.6,-49.1824,253.313,0.741738
221.5,-50.0254,254.198,0.752496
221.4,-50.4673,255.058,0.762921
221.3,-49.0783,254.142,0.751822
221.2,-46.4648,254.375,0.754641
221.1,-49.8196,255.199,0.764621
221,-49.1061,255.024,0.76251
220.9,-46.0585,255.763,0.771443
220.8,-48.3048,255.651,0.770087
220.7,-46.9917,255.52,0.768513
220.6,-50.2086,256.599,0.781528
220.5,-47.3142,257.11,0.787678
220.4,-49.0494,256.555,0.780996
220.3,-50.2446,257.073,0.787229
220.2,-49.9828,256.732,0.783125
220.1,-48.3037,257.629,0.793914
220,-49.5305,257.314,0.79013
219.9,-50.004,258.096,0.799514
219.8,-50.0831,258.367,0.802758
219.7,-51.3538,258.305,0.802025
219.6,-50.2877,258.165,0.800342
219.5,-51.0346,258.464,0.803925
219.4,-48.197,259.059,0.811041
219.3,-44.2522,259.574,0.817196
219.2,-46.4162,259.814,0.820047
219.1,-48.9255,259.772,0.819548
219,-46.6106,259.922,0.821344
218.9,-47.7498,260.275,0.825541
218.8,-49.6573,260.221,0.824907
218.7,-47.7807,260.002,0.822289
218.6,-49.1595,260.37,0.826674
218.5,-49.0832,260.849,0.832373
218.4,-46.2729,260.765,0.831377
218.3,-49.1094,261.543,0.840603
218.2,-48.114,261.398,0.838884
218.1,-48.2317,261.8,0.843652
218,-50.428,262.73,0.854655
217.9,-46.5921,263.985,0.869455
217.8,-48.5754,262.527,0.852259
217.7,-47.5836,263.008,0.857933
217.6,-46.151,262.574,0.852808
217.5,-50.016,264.007,0.869708
217.4,-44.403,264.949,0.880768
217.3,-44.6355,264.622,0.876939
217.2,-46.4954,264.397,0.87429
217.1,-45.1816,265.098,0.882522
217,-48.7488,264.805,0.87908
216.9,-49.4168,265.948,0.892472
216.8,-45.7071,265.742,0.89006
216.7,-50.3273,265.659,0.889092
216.6,-42.7435,266.181,0.8952
216.5,-48.7185,266.009,0.893187
216.4,-48.837,266.597,0.900056
216.3,-48.3355,266.705,0.901312
216.2,-49.2187,267.019,0.904971
216.1,-46.3395,267.135,0.906331
216,-51.0249,267.748,0.913465
215.9,-48.6049,267.472,0.910249
215.8,-47.2391,268.334,0.92027
215.7,-48.713,268.119,0.917771
215.6,-46.4711,268.505,0.922255
215.5,-48.8889,268.666,0.924121
215.4,-50.4568,268.088,0.917415
215.3,-44.2151,269.268,0.931091
215.2,-47.7936,269.695,0.936031
215.1,-48.9546,269.916,0.938584
215,-51.1831,269.545,0.934302
214.9,-50.6367,270.344,0.943527
214.8,-49.3587,271.102,0.952261
214.7,-47.5418,270.584,0.946297
214.6,-48.1392,271.731,0.959491
214.5,-44.4267,271.214,0.953552
214.4,-44.4572,272.147,0.964264
214.3,-46.8304,272.042,0.963055
214.2,-47.9975,272.86,0.97243
214.1,-47.8635,272.988,0.973896
214,-47.4228,272.789,0.971626
213.9,-50.3286,274.003,0.985494
213.8,-45.8962,274.174,0.987445
213.7,-49.0377,274.612,0.992441
213.6,-52.3503,273.737,0.982455
213.5,-50.2143,274.267,0.988504
213.4,-44.0925,276.21,1.01059
213.3,-50.3096,274.904,0.995755
213.2,-45.4271,275.648,1.00421
213.1,-46.6846,276.129,1.00966
213,-50.2827,276.388,1.0126
212.9,-47.1206,276.824,1.01754
212.8,-51.392,276.466,1.01349
212.7,-48.448,277.089,1.02054
212.6,-49.8441,277.59,1.02619
212.5,-49.562,278.108,1.03203
212.4,-46.8357,278.186,1.03291
212.3,-50.5909,278.722,1.03894
212.2,-48.2875,279.99,1.05317
212.1,-47.2165,279.114,1.04335
212,-51.2026,280.089,1.05428
211.9,-50.4322,280.171,1.05521
211.8,-46.9835,281.424,1.06921
211.7,-53.6677,281.299,1.06781
211.6,-48.3249,281.678,1.07204
211.5,-47.7591,282.582,1.08211
211.4,-49.767,282.794,1.08446
211.3,-47.7094,283.299,1.09006
211.2,-47.504,284.038,1.09826
211.1,-43.6186,284.096,1.0989
211,-47.6865,284.298,1.10113
210.9,-50.4688,284.792,1.10659
210.8,-46.7694,284.326,1.10145
210.7,-53.1658,285.722,1.11685
210.6,-49.1734,285.532,1.11476
210.5,-51.8736,285.87,1.11848
210.4,-49.9479,286.583,1.12633
210.3,-54.0678,287.103,1.13204
210.2,-48.0042,287.339,1.13463
210.1,-51.0193,287.823,1.13993
210,-47.4074,288.277,1.1449
209.9,-52.0752,289.362,1.15674
209.8,-50.5162,290.022,1.16393
209.7,-49.2185,290.865,1.17309
209.6,-51.8995,290.623,1.17046
209.5,-51.0931,291.195,1.17667
209.4,-45.9257,291.755,1.18273
209.3,-51.5679,292.802,1.19405
209.2,-57.2801,293.81,1.20492
209.1,-54.1737,293.578,1.20242
209,-51.0569,294.067,1.20769
208.9,-47.5275,294.749,1.21502
208.8,-52.7526,295.172,1.21955
208.7,-49.9716,295.778,1.22605
208.6,-49.0476,296.073,1.2292
208.5,-49.0925,296.645,1.23531
208.4,-52.9203,297.588,1.24536
208.3,-55.1711,297.474,1.24416
208.2,-55.353,298.047,1.25025
208.1,-54.5561,299.551,1.26622
208,-47.7228,300.286,1.27399
207.9,-52.2948,301.924,1.29126
207.8,-51.734,301.379,1.28553
207.7,-52.3037,302.398,1.29624
207.6,-50.9658,303.354,1.30628
207.5,-53.543,303.175,1.3044
207.4,-42.7455,303.932,1.31233
207.3,-50.0023,304.652,1.31986
207.2,-48.8109,305.248,1.32608
207.1,-44.8952,305.979,1.3337
207,-47.0519,306.528,1.3394
206.9,-49.7564,307.146,1.34582
206.8,-48.7051,308.215,1.35689
206.7,-48.1409,308.72,1.36211
206.6,-45.5542,309.782,1.37306
206.5,-48.2615,310.169,1.37705
206.4,-45.4009,311.216,1.3878
206.3,-45.7444,311.877,1.39457
206.2,-44.7031,312.888,1.40491
206.1,-42.2156,313.336,1.40949
206,-42.7813,314.136,1.41764
205.9,-49.9285,314.478,1.42112
205.8,-38.4364,316.001,1.43658
205.7,-31.1735,316.482,1.44144
205.6,-37.4688,317.348,1.4502
205.5,-41.2585,319.041,1.46725
205.4,-38.6995,319.125,1.46809
205.3,-39.61,320.659,1.48348
205.2,-37.0523,321.441,1.49129
205.1,-34.3994,323.423,1.51103
205,-32.2534,323.869,1.51546
204.9,-38.0609,324.149,1.51824
204.8,-39.1311,325.245,1.52909
204.7,-32.8975,325.965,1.53621
204.6,-28.0418,327.101,1.5474
204.5,-37.4647,328.646,1.56258
204.4,-23.2298,328.931,1.56536
204.3,-28.5308,330.006,1.57588
204.2,-25.7506,331.635,1.59177
204.1,-23.0405,332.037,1.59568
204,-25.8853,333.842,1.61318
203.9,-23.5452,334.843,1.62285
203.8,-25.2637,336.904,1.64269
203.7,-15.1398,337.144,1.64499
203.6,-16.4764,338.188,1.65499
203.5,-15.635,340.062,1.67289
203.4,-23.4029,341.365,1.68528
203.3,-21.7099,341.909,1.69044
203.2,-10.4309,343.428,1.70483
203.1,-21.1671,344.021,1.71042
203,-16.1124,345.302,1.72249
202.9,-4.73885,345.683,1.72607
202.8,-13.4458,348.049,1.74824
202.7,-17.2507,348.089,1.74861
202.6,-21.313,349.972,1.76616
202.5,-10.7791,351.295,1.77845
202.4,-6.90092,352.845,1.7928
202.3,-9.08876,353.425,1.79815
202.2,-3.86026,355.849,1.82044
202.1,-4.28046,356.275,1.82435
202,0.389371,358.675,1.84627
201.9,-7.89639,360.054,1.85882
201.8,-0.662402,360.911,1.8666
201.7,1.60953,362.427,1.88032
201.6,6.52302,364.297,1.89717
201.5,12.3237,365.574,1.90863
201.4,3.70999,367.471,1.9256
201.3,6.3568,368.679,1.93637
201.2,0.056411,370.382,1.9515
201.1,11.0963,371.465,1.9611
201,14.8484,372.37,1.9691
200.9,7.10653,374.208,1.98529
200.8,13.7742,376.102,2.00191
200.7,11.0233,377.416,2.0134
200.6,10.6101,378.646,2.02412
200.5,5.00908,380.487,2.04012
200.4,16.5421,382.138,2.05441
200.3,20.199,383.756,2.06836
200.2,8.29602,385.365,2.08219
200.1,16.8984,387.588,2.10121
200,28.3274,389.008,2.11331
199.9,16.8973,390.928,2.12962
199.8,30.0646,392.116,2.13968
199.7,25.2222,394.634,2.16091
199.6,25.3051,395.208,2.16573
199.5,18.8023,397.858,2.18793
199.4,24.9628,398.064,2.18964
199.3,24.4035,400.419,2.20926
199.2,29.3231,401.131,2.21516
199.1,21.5498,403.807,2.2373
199,28.078,404.904,2.24633
198.9,40.1279,406.477,2.25925
198.8,31.9407,408.981,2.27974
198.7,40.0588,410.719,2.2939
198.6,30.4461,412.729,2.31021
198.5,41.656,414.337,2.32321
198.4,41.5521,417.007,2.3447
198.3,35.8434,418.826,2.35927
198.2,23.2859,419.43,2.3641
198.1,39.6591,421.367,2.37955
198,30.6564,422.876,2.39153
197.9,39.8242,425.527,2.41251
197.8,41.1999,427.026,2.42432
197.7,38.9538,428.428,2.43534
197.6,42.0237,430.077,2.44826
197.5,34.6404,431.639,2.46046
197.4,35.0699,433.39,2.47409
197.3,49.0534,436.434,2.49767
197.2,41.8979,437.934,2.50925
197.1,36.8428,439.49,2.52121
197,33.0624,441.72,2.5383
196.9,39.707,443.318,2.55051
196.8,42.652,445.088,2.56398
196.7,33.9293,446.906,2.57776
196.6,31.1354,449.274,2.59566
196.5,41.2076,450.702,2.60641
196.4,39.9393,452.68,2.62125
196.3,46.7325,455.188,2.64
196.2,27.5245,457.589,2.65786
196.1,50.4826,459.02,2.66847
196,35.8232,461.098,2.68382
195.9,39.0444,462.28,2.69253
195.8,52.4809,465.119,2.71337
195.7,37.8456,467.74,2.73252
195.6,36.0255,468.625,2.73896
195.5,40.7368,469.624,2.74621
195.4,43.9377,472.572,2.76757
195.3,52.0411,473.978,2.77771
195.2,45.0123,474.432,2.78098
195.1,47.2235,476.483,2.79572
195,40.3421,477.953,2.80625
194.9,38.5872,479.516,2.81742
194.8,51.654,480.975,2.82781
194.7,34.4939,482.706,2.84012
194.6,38.8753,484.455,2.85251
194.5,45.5709,484.816,2.85506
194.4,39.1137,486.984,2.87036
194.3,56.2635,488.853,2.8835
194.2,40.8307,489.84,2.89042
194.1,41.8255,492.275,2.90745
194,44.6549,493.87,2.91857
193.9,30.0374,495.976,2.9332
193.8,36.9146,498.158,2.94829
193.7,41.2065,499.416,2.95698
193.6,29.4385,501.135,2.96881
193.5,38.92,501.544,2.97163
193.4,42.7069,503.407,2.9844
193.3,35.6773,504.615,2.99266
193.2,50.1157,505.64,2.99966
193.1,20.91,508.178,3.01694
193,38.8087,509.088,3.02312
192.9,49.9947,510.803,3.03473
192.8,32.9894,511.98,3.04268
192.7,17.7933,513.129,3.05043
192.6,39.6922,515.474,3.0662
192.5,30.9079,516.826,3.07527
192.4,33.9807,518.989,3.08973
192.3,27.0769,520.48,3.09966
192.2,30.9728,521.771,3.10825
192.1,32.8143,523.736,3.12128
192,29.67,524.331,3.12522
191.9,26.8364,525.908,3.13563
191.8,46.6603,526.908,3.14223
191.7,22.83,528.142,3.15035
191.6,50.7705,529.773,3.16106
191.5,39.5233,531.343,3.17134
191.4,21.11,533.818,3.1875
191.3,32.652,534.995,3.19516
191.2,21.2309,536.951,3.20786
191.1,17.3268,539.915,3.22703
191,47.0826,541.531,3.23745
190.9,44.0292,543.302,3.24884
190.8,25.8918,545.88,3.26535
190.7,25.4632,548.183,3.28004
190.6,31.1603,550.211,3.29294
190.5,31.6238,551.245,3.29951
190.4,10.0394,553.275,3.31236
190.3,26.2325,555.243,3.32478
190.2,25.4005,556.434,3.33227
190.1,28.9501,558.023,3.34226
190,32.5643,559.407,3.35093
,,,
##### Extended Information,,,
[Comments],,,
Sample name,ECTC_PROTEIN&ADDITIVE_928,,
Comment,PROTEIN&ADDITIVE,,
User,TRICIACHESELDINE,,
Division,,,
Company,Saint Mary's College,,
,,,
[Detailed Information],,,
Creation date,9/28/2022 16:48,,
,,,
Data array type,Linear data array * 3,,
Horizontal axis,Wavelength [nm],,
Vertical axis(1),CD [mdeg],,
Vertical axis(2),HT [V],,
Vertical axis(3),Abs,,
Start,320 nm,,
End,190 nm,,
Data interval,0.1 nm,,
Data points,1301,,
,,,
[Measurement Information],,,
Instrument name,J-1500,,
Model name,J-1500,,
Serial No.,B051061638,,
,,,
Detector,PM-539,,
Detector S/N,B051061638,,
  Lock-in amp.,X mode,,
  HT volt,Auto,,
,,,
Accessory,PTC-517,,
Accessory S/N,B026561646,,
  Temperature,22.89 C,,
  Control sensor,Holder,,
  Monitor sensor,Holder,,
,,,
Measurement date,9/28/2022 16:48,,
,,,
CD Overload detect,1046,,
Photometric mode,CD, HT, Abs
Measure range,320 - 190 nm,,
Data pitch,0.1 nm,,
CD scale,20 mdeg/0.05 dOD,,
FL scale,20 mdeg/0.05 dOD,,
D.I.T.,8 msec,,
Bandwidth,2.00 nm,,
Start mode,Immediately,,
Scanning mode,Continuous,,
Scanning speed,200 nm/min,,
Baseline correction,None,,
Shutter control,Auto,,
No. of cycle,1-Jan,,
N2 Flowmeter,Manual,,
,,,
Solvent,NaPO4 buffer,,
