TITLE,class
DATA TYPE,
ORIGIN,JASCO
OWNER,
DATE,21/09/30
TIME,15:05:18
SPECTROMETER/DATA SYSTEM,
LOCALE,1033
RESOLUTION,
DELTAX,-0.1
XUNITS,NANOMETERS
YUNITS,CD [mdeg]
Y2UNITS,HT [V]
Y3UNITS,ABSORBANCE
FIRSTX,  290.0000
LASTX,  190.0000
NPOINTS,    1001
FIRSTY,     1.21912
MAXY,    12.03826
MINY,    -3.24413
XYDATA
290.0000,1.21912,253.813,0.747815
289.9000,0.412229,253.706,0.746515
289.8000,1.98116,253.291,0.741474
289.7000,1.17788,253.738,0.746907
289.6000,1.62101,253.706,0.746518
289.5000,1.64046,253.637,0.745685
289.4000,0.268858,253.514,0.744183
289.3000,1.47464,253.558,0.744714
289.2000,1.64686,253.493,0.743931
289.1000,1.02129,253.44,0.743288
289.0000,0.82894,253.52,0.744254
288.9000,1.2935,253.398,0.742777
288.8000,1.82172,253.722,0.746715
288.7000,1.38115,253.498,0.743988
288.6000,1.40068,253.392,0.742699
288.5000,1.66655,253.344,0.742118
288.4000,1.19348,253.357,0.74227
288.3000,1.22572,253.544,0.744552
288.2000,0.784017,253.561,0.744757
288.1000,1.09734,253.607,0.745309
288.0000,1.78104,253.476,0.743724
287.9000,1.92485,253.355,0.742249
287.8000,1.47918,253.385,0.742616
287.7000,0.93684,253.323,0.741853
287.6000,1.82282,253.429,0.743145
287.5000,1.61377,253.45,0.743408
287.4000,0.774965,253.415,0.742978
287.3000,1.84995,253.516,0.744211
287.2000,1.07838,253.397,0.742755
287.1000,1.99786,253.192,0.740263
287.0000,1.79745,253.434,0.743213
286.9000,1.37876,253.338,0.74204
286.8000,1.4908,253.597,0.74519
286.7000,1.23296,253.517,0.744216
286.6000,0.421775,253.554,0.744671
286.5000,2.00056,253.327,0.741906
286.4000,2.17961,253.181,0.740124
286.3000,2.06515,253.511,0.744141
286.2000,1.86571,253.861,0.7484
286.1000,1.07884,253.588,0.745087
286.0000,1.33124,253.238,0.740826
285.9000,1.47398,253.503,0.744044
285.8000,1.13013,253.386,0.742626
285.7000,1.51627,253.482,0.743791
285.6000,1.77819,253.217,0.740569
285.5000,1.55491,253.06,0.738652
285.4000,1.9192,253.445,0.743348
285.3000,2.60808,253.193,0.740271
285.2000,1.44007,252.988,0.737779
285.1000,2.16128,253.321,0.741833
285.0000,1.78337,253.119,0.739378
284.9000,1.33095,253.161,0.739889
284.8000,1.37998,253.277,0.741302
284.7000,1.19914,253.142,0.739658
284.6000,1.27854,253.08,0.738905
284.5000,0.743234,252.922,0.736972
284.4000,0.813014,253.382,0.742577
284.3000,1.57872,252.931,0.737086
284.2000,1.3271,252.905,0.736766
284.1000,1.00867,253.137,0.739595
284.0000,1.12076,253.106,0.739212
283.9000,2.2723,253.058,0.738632
283.8000,0.886537,253.284,0.74138
283.7000,1.65977,252.828,0.735833
283.6000,1.6067,252.963,0.737469
283.5000,0.234972,253.04,0.738415
283.4000,0.896417,252.968,0.737531
283.3000,0.816229,252.81,0.735603
283.2000,1.02853,253.424,0.743082
283.1000,1.5091,252.938,0.737164
283.0000,2.2754,252.954,0.737367
282.9000,1.41864,252.802,0.735507
282.8000,1.12166,252.768,0.735102
282.7000,0.833887,253.265,0.741157
282.6000,1.0768,252.995,0.737869
282.5000,1.87275,253.012,0.738075
282.4000,0.708551,252.961,0.737451
282.3000,0.837188,253.189,0.740231
282.2000,1.64639,253.055,0.738592
282.1000,1.54603,252.878,0.736441
282.0000,1.01387,252.663,0.733816
281.9000,1.75383,253.044,0.738465
281.8000,0.942225,252.876,0.73641
281.7000,1.21179,253.084,0.738944
281.6000,1.74679,253.042,0.738439
281.5000,1.00942,252.628,0.733385
281.4000,1.85331,252.913,0.736867
281.3000,0.831305,252.891,0.736594
281.2000,1.35051,252.914,0.736881
281.1000,1.21306,252.796,0.735435
281.0000,2.23941,252.727,0.73459
280.9000,0.91809,252.889,0.736576
280.8000,1.28551,252.927,0.737031
280.7000,1.48779,252.618,0.733263
280.6000,2.06544,252.658,0.733753
280.5000,2.43422,252.892,0.736612
280.4000,1.18317,252.822,0.735755
280.3000,0.642406,252.669,0.733889
280.2000,1.23052,252.476,0.731533
280.1000,0.994681,252.844,0.736026
280.0000,1.31315,252.595,0.732984
279.9000,0.518178,252.696,0.734213
279.8000,1.3954,252.659,0.733766
279.7000,1.98324,252.729,0.734622
279.6000,0.788104,252.857,0.736181
279.5000,1.35519,253.052,0.738558
279.4000,0.246616,252.522,0.732096
279.3000,1.19447,252.73,0.734628
279.2000,1.68495,252.494,0.731748
279.1000,1.29026,252.484,0.731628
279.0000,0.807953,252.64,0.733533
278.9000,0.784995,252.673,0.733933
278.8000,1.81392,252.811,0.735615
278.7000,1.1332,252.625,0.733356
278.6000,1.17494,252.786,0.735322
278.5000,1.05457,252.614,0.733222
278.4000,1.47018,252.631,0.73343
278.3000,1.14297,252.39,0.730481
278.2000,0.847941,252.851,0.736103
278.1000,0.841083,252.743,0.734794
278.0000,1.18247,252.719,0.734492
277.9000,1.34886,252.469,0.731448
277.8000,1.24822,252.45,0.731213
277.7000,0.633819,252.685,0.734079
277.6000,0.855221,252.759,0.734985
277.5000,1.43094,252.372,0.730265
277.4000,1.23318,252.422,0.730874
277.3000,0.324059,252.368,0.730215
277.2000,0.90317,252.593,0.732957
277.1000,0.928834,252.514,0.731999
277.0000,1.54691,252.416,0.730803
276.9000,1.18136,252.291,0.729272
276.8000,0.676097,252.377,0.730326
276.7000,1.14367,252.776,0.735196
276.6000,1.69821,252.453,0.731251
276.5000,0.887509,252.49,0.731698
276.4000,0.93692,252.123,0.727226
276.3000,1.52645,252.128,0.727285
276.2000,1.73117,252.435,0.731034
276.1000,1.22591,252.461,0.731355
276.0000,0.891901,252.198,0.728136
275.9000,1.59199,252.192,0.72806
275.8000,0.522529,252.283,0.729182
275.7000,1.26959,252.544,0.732363
275.6000,0.0749863,252.233,0.728566
275.5000,1.14759,252.304,0.729438
275.4000,1.53111,252.311,0.729518
275.3000,1.15896,252.399,0.730588
275.2000,0.884807,252.419,0.73084
275.1000,1.2159,252.156,0.727621
275.0000,1.18688,252.143,0.727461
274.9000,1.43305,252.48,0.731583
274.8000,1.268,252.492,0.731727
274.7000,0.442989,252.041,0.726222
274.6000,1.33861,252.178,0.727895
274.5000,1.4387,252.383,0.730401
274.4000,1.68118,252.381,0.730371
274.3000,1.47131,252.473,0.7315
274.2000,1.04018,251.857,0.723967
274.1000,1.34511,252.31,0.729506
274.0000,1.25821,252,0.72572
273.9000,1.23974,252.098,0.726914
273.8000,0.388091,251.975,0.725416
273.7000,0.999182,252.183,0.727952
273.6000,0.0819072,252,0.725712
273.5000,2.08929,252.121,0.727194
273.4000,1.07424,252.275,0.729077
273.3000,0.782885,252.239,0.728638
273.2000,1.32928,252.101,0.726947
273.1000,1.19996,252.241,0.728666
273.0000,0.350316,252.419,0.730842
272.9000,1.74419,252.204,0.728216
272.8000,0.798534,251.976,0.725421
272.7000,1.41646,252.287,0.729221
272.6000,0.892011,252.475,0.731519
272.5000,0.745477,252.254,0.728827
272.4000,0.967859,252.418,0.730825
272.3000,1.12475,252.035,0.726146
272.2000,0.665546,252.121,0.727197
272.1000,1.27479,252.352,0.730021
272.0000,1.34012,252.11,0.727061
271.9000,1.45362,252.181,0.727928
271.8000,0.867594,251.967,0.725313
271.7000,0.341396,251.994,0.725639
271.6000,1.31757,252.241,0.728667
271.5000,0.672369,252.057,0.726415
271.4000,0.80318,252.117,0.727143
271.3000,1.14708,251.907,0.724576
271.2000,0.557678,251.746,0.722617
271.1000,0.840944,252.342,0.729891
271.0000,1.27997,251.945,0.725045
270.9000,0.916835,252.085,0.726754
270.8000,0.473995,252.05,0.726332
270.7000,0.783289,252.047,0.726287
270.6000,1.31133,252.226,0.728482
270.5000,1.29088,251.992,0.72562
270.4000,1.39431,252.501,0.731834
270.3000,0.78952,251.947,0.725066
270.2000,1.22045,251.846,0.723837
270.1000,0.723562,251.817,0.723482
270.0000,0.73814,252.39,0.730478
269.9000,1.19536,251.894,0.724416
269.8000,0.833756,251.84,0.723762
269.7000,0.517012,252.176,0.727868
269.6000,0.534966,252.122,0.727204
269.5000,0.724708,251.769,0.722892
269.4000,1.79259,252.323,0.72966
269.3000,1.59192,252.01,0.725841
269.2000,1.5983,251.853,0.723924
269.1000,1.46544,252.026,0.72603
269.0000,1.37075,251.902,0.724522
268.9000,0.453548,252.101,0.726956
268.8000,1.10555,252.122,0.727213
268.7000,2.00821,252.285,0.729206
268.6000,1.13826,252.495,0.731761
268.5000,0.683995,252.364,0.730169
268.4000,1.2262,252.017,0.725928
268.3000,0.818586,252.376,0.730312
268.2000,1.50329,251.981,0.725489
268.1000,0.857927,252.615,0.733233
268.0000,0.975433,252.102,0.726968
267.9000,0.792716,252.157,0.727633
267.8000,0.847506,252.122,0.727207
267.7000,0.572283,251.999,0.725703
267.6000,0.212118,252.125,0.727243
267.5000,0.554176,252.126,0.727254
267.4000,0.596963,252.321,0.729635
267.3000,1.14517,252.279,0.729129
267.2000,0.373171,252.023,0.726
267.1000,0.989867,252.149,0.727541
267.0000,1.4037,252.215,0.728349
266.9000,1.004,252.102,0.726967
266.8000,0.138337,252.067,0.72654
266.7000,0.733472,252.376,0.730311
266.6000,0.637838,252.289,0.729251
266.5000,0.914298,252.536,0.732269
266.4000,1.29874,252.409,0.730716
266.3000,1.34336,252.368,0.730216
266.2000,0.529198,252.35,0.729994
266.1000,0.744145,252.454,0.731259
266.0000,1.93465,252.59,0.732923
265.9000,0.802324,252.524,0.732115
265.8000,0.334465,252.39,0.730481
265.7000,0.980078,252.41,0.730727
265.6000,1.11801,252.511,0.731962
265.5000,0.716251,252.471,0.731472
265.4000,0.573741,252.309,0.729492
265.3000,0.706359,252.112,0.727088
265.2000,0.821528,252.454,0.73126
265.1000,1.00634,252.557,0.732524
265.0000,1.00003,252.26,0.728892
264.9000,0.696984,252.22,0.728409
264.8000,1.30395,252.661,0.733786
264.7000,0.851324,252.857,0.736176
264.6000,0.68099,252.688,0.73412
264.5000,1.00563,252.655,0.733717
264.4000,1.20142,252.628,0.733393
264.3000,0.578323,252.971,0.737569
264.2000,-0.0380811,252.44,0.731099
264.1000,1.0518,252.74,0.734749
264.0000,0.452888,252.471,0.731469
263.9000,1.22084,252.621,0.7333
263.8000,0.746714,252.833,0.735889
263.7000,0.443117,252.776,0.735192
263.6000,0.938896,252.91,0.736832
263.5000,1.48374,252.699,0.734254
263.4000,1.4499,252.382,0.73039
263.3000,1.12111,253.03,0.738285
263.2000,0.840928,252.788,0.735342
263.1000,1.08911,252.409,0.730712
263.0000,1.06887,252.917,0.736915
262.9000,0.294184,252.582,0.732829
262.8000,0.584064,253.278,0.741316
262.7000,1.41849,252.777,0.735205
262.6000,0.816317,253.27,0.741212
262.5000,1.00511,253.267,0.74118
262.4000,0.460551,252.795,0.735426
262.3000,0.795985,253.104,0.739191
262.2000,0.599817,252.881,0.736469
262.1000,0.999395,253.28,0.741332
262.0000,1.39531,253.051,0.738552
261.9000,1.24418,252.75,0.73488
261.8000,0.260813,253.199,0.740355
261.7000,0.0884311,252.927,0.737035
261.6000,0.681957,253.192,0.740259
261.5000,0.74116,253.086,0.738972
261.4000,-0.275713,253.311,0.741715
261.3000,0.0404527,253.476,0.743717
261.2000,1.33054,253.081,0.738917
261.1000,0.359314,253.002,0.737949
261.0000,0.0732716,253.502,0.744036
260.9000,1.12067,253.145,0.739692
260.8000,0.910284,253.006,0.737998
260.7000,0.707485,253.505,0.744068
260.6000,0.5851,253.214,0.740534
260.5000,-0.119527,253.44,0.743285
260.4000,0.659079,253.473,0.743686
260.3000,0.58107,253.419,0.743023
260.2000,1.34576,253.16,0.739871
260.1000,0.779608,253.641,0.745733
260.0000,0.645888,253.412,0.742942
259.9000,-0.490757,253.212,0.740513
259.8000,0.5826,253.561,0.74475
259.7000,1.27378,253.668,0.746062
259.6000,1.14847,253.716,0.746644
259.5000,0.573914,253.896,0.748831
259.4000,1.20866,253.936,0.749315
259.3000,0.230905,253.719,0.746675
259.2000,0.799841,253.727,0.746774
259.1000,1.42194,253.753,0.74709
259.0000,0.67057,253.944,0.749406
258.9000,0.43404,253.923,0.749162
258.8000,1.03617,253.628,0.745575
258.7000,1.12579,253.877,0.748599
258.6000,0.0996652,253.922,0.749143
258.5000,0.720863,253.832,0.748046
258.4000,0.319972,254.033,0.750487
258.3000,0.679587,253.871,0.748528
258.2000,1.16749,253.816,0.747851
258.1000,0.581652,254.001,0.750099
258.0000,1.0926,254.002,0.750121
257.9000,0.745965,254.064,0.750869
257.8000,0.961566,254.132,0.751698
257.7000,0.665499,253.847,0.748233
257.6000,1.08967,253.996,0.750048
257.5000,0.738555,254.246,0.753075
257.4000,0.946126,253.825,0.747964
257.3000,1.09164,254.078,0.751034
257.2000,1.29036,254.11,0.751428
257.1000,0.823295,254.165,0.752097
257.0000,0.983221,254.037,0.75054
256.9000,1.00278,254.14,0.751795
256.8000,0.617154,254.182,0.752306
256.7000,1.18484,254.269,0.753353
256.6000,1.25039,254.18,0.752273
256.5000,1.01756,254.315,0.753919
256.4000,0.281922,254.339,0.754201
256.3000,1.04143,254.453,0.755585
256.2000,0.852514,254.534,0.756574
256.1000,1.44614,254.644,0.757908
256.0000,0.83018,254.675,0.758286
255.9000,2.11376,254.812,0.75994
255.8000,1.03433,254.588,0.757232
255.7000,0.266662,254.553,0.756806
255.6000,0.330041,254.938,0.761467
255.5000,1.63932,254.83,0.760158
255.4000,1.19606,254.884,0.760819
255.3000,0.905717,254.716,0.758774
255.2000,1.01441,254.732,0.758974
255.1000,0.407391,254.714,0.758756
255.0000,1.21435,254.729,0.758939
254.9000,0.463085,254.621,0.757633
254.8000,0.961492,254.847,0.760363
254.7000,0.940677,254.77,0.759432
254.6000,0.236225,254.702,0.758615
254.5000,1.13126,254.735,0.759006
254.4000,0.341492,254.859,0.760514
254.3000,1.62584,255.075,0.763128
254.2000,0.525146,255.11,0.763549
254.1000,1.66139,254.978,0.761951
254.0000,1.20808,255.009,0.762331
253.9000,0.990096,254.982,0.761996
253.8000,0.846441,254.949,0.761596
253.7000,0.270948,255.028,0.762552
253.6000,1.03641,255.178,0.764367
253.5000,0.118048,254.917,0.761211
253.4000,1.0032,255.073,0.763103
253.3000,1.46079,254.906,0.761077
253.2000,0.573259,255.146,0.763989
253.1000,1.18624,255.04,0.762706
253.0000,0.732762,255.066,0.763015
252.9000,0.418062,255.163,0.764194
252.8000,0.226514,254.959,0.761723
252.7000,0.845128,255.115,0.763607
252.6000,0.788471,255.175,0.764338
252.5000,0.927454,255.19,0.764514
252.4000,0.740784,255.333,0.766253
252.3000,1.32091,255.232,0.765028
252.2000,1.37374,255.429,0.767407
252.1000,0.842548,255.498,0.768245
252.0000,0.305344,255.075,0.763125
251.9000,1.19636,255.408,0.76716
251.8000,1.62988,255.214,0.764808
251.7000,0.663722,255.438,0.767521
251.6000,0.68552,255.487,0.768107
251.5000,0.829541,255.374,0.766738
251.4000,1.41161,255.466,0.767851
251.3000,0.734294,255.287,0.765687
251.2000,1.08721,255.504,0.768315
251.1000,0.814427,255.549,0.768865
251.0000,1.63183,255.518,0.768484
250.9000,1.50518,255.636,0.769908
250.8000,1.67678,255.668,0.770301
250.7000,0.871442,255.766,0.771486
250.6000,0.215689,255.627,0.769806
250.5000,0.65831,255.451,0.767677
250.4000,0.838494,255.44,0.767537
250.3000,1.53632,255.587,0.769322
250.2000,1.12473,255.821,0.772148
250.1000,1.10979,255.626,0.769795
250.0000,0.363754,255.697,0.770645
249.9000,0.780927,255.67,0.770323
249.8000,1.03925,255.445,0.767597
249.7000,1.94514,255.668,0.770299
249.6000,1.30568,255.68,0.77044
249.5000,1.94857,255.665,0.770261
249.4000,1.19368,255.287,0.765693
249.3000,0.520968,255.632,0.769862
249.2000,0.421678,255.549,0.768863
249.1000,1.11418,255.745,0.771227
249.0000,0.605399,255.395,0.767001
248.9000,0.4461,255.356,0.766524
248.8000,0.46633,255.21,0.764763
248.7000,1.61629,255.602,0.769502
248.6000,0.464316,255.51,0.768384
248.5000,0.631672,255.148,0.764005
248.4000,0.944848,255.794,0.771814
248.3000,0.371128,255.555,0.768936
248.2000,0.892515,255.236,0.765077
248.1000,1.00419,255.339,0.766319
248.0000,1.00764,255.422,0.767321
247.9000,0.649816,255.122,0.763695
247.8000,0.974751,255.195,0.764574
247.7000,0.578786,255.454,0.767712
247.6000,0.410021,255.218,0.764854
247.5000,0.515378,255.209,0.764743
247.4000,1.48068,255.603,0.769509
247.3000,1.03146,255.855,0.772554
247.2000,0.454871,255.618,0.769699
247.1000,0.882718,255.773,0.771567
247.0000,0.729127,255.609,0.769585
246.9000,1.16242,255.926,0.773413
246.8000,0.213181,255.986,0.774138
246.7000,0.102164,255.771,0.771537
246.6000,1.17512,256.03,0.77467
246.5000,0.684316,255.66,0.770203
246.4000,1.25628,255.883,0.772899
246.3000,0.940382,255.96,0.77382
246.2000,0.647817,256.056,0.774979
246.1000,0.989203,256.018,0.774523
246.0000,0.525967,255.783,0.771691
245.9000,1.1844,256.056,0.774981
245.8000,0.408883,255.955,0.773764
245.7000,0.990413,255.998,0.774279
245.6000,0.644024,256.045,0.774847
245.5000,0.883721,255.993,0.774226
245.4000,1.54387,256.018,0.774518
245.3000,1.15069,256.018,0.774518
245.2000,0.58622,255.925,0.773402
245.1000,0.644912,256.089,0.775377
245.0000,0.952509,256.269,0.777556
244.9000,0.448618,255.974,0.773987
244.8000,0.636405,256.046,0.774868
244.7000,0.838468,256.018,0.774527
244.6000,0.820338,255.943,0.773614
244.5000,1.20479,255.899,0.773093
244.4000,1.37926,256.288,0.777777
244.3000,1.40516,256.099,0.775497
244.2000,0.655368,256.275,0.777628
244.1000,1.05182,256.275,0.777624
244.0000,0.717199,256.094,0.775442
243.9000,0.771596,255.924,0.773395
243.8000,0.537346,255.833,0.772292
243.7000,0.149431,256.452,0.77976
243.6000,0.0771758,256.179,0.776461
243.5000,1.0067,256.246,0.77728
243.4000,1.58639,256.185,0.776537
243.3000,1.52034,256.023,0.77458
243.2000,1.05863,256.43,0.779487
243.1000,0.882263,256.284,0.777733
243.0000,1.42688,256.154,0.776167
242.9000,0.826163,256.057,0.774997
242.8000,0.0232344,256.418,0.77935
242.7000,0.463864,256.594,0.781473
242.6000,1.05069,256.314,0.778094
242.5000,1.33545,256.309,0.778033
242.4000,1.41352,256.362,0.778668
242.3000,0.193046,256.443,0.779647
242.2000,1.15648,256.674,0.782438
242.1000,0.856156,256.428,0.779465
242.0000,1.36787,256.602,0.781565
241.9000,0.309858,256.848,0.784523
241.8000,0.817209,256.968,0.785966
241.7000,1.21886,256.511,0.780469
241.6000,0.620498,256.679,0.782492
241.5000,0.790158,257.062,0.787098
241.4000,0.315367,257.22,0.789003
241.3000,0.0893873,256.645,0.782079
241.2000,0.104695,256.893,0.785072
241.1000,-0.0665382,256.972,0.786023
241.0000,0.114067,257.009,0.786464
240.9000,0.156174,256.664,0.782314
240.8000,0.329093,256.843,0.784465
240.7000,0.246,257.064,0.787127
240.6000,0.736053,257.005,0.786413
240.5000,0.308543,256.889,0.785018
240.4000,0.394963,257.194,0.788686
240.3000,0.454663,256.969,0.785983
240.2000,0.956851,257.484,0.792174
240.1000,0.5013,257.012,0.786494
240.0000,0.144941,257.119,0.787786
239.9000,0.376405,257.017,0.786555
239.8000,0.712373,257.255,0.789418
239.7000,1.00019,257.224,0.789047
239.6000,0.877778,257.057,0.787037
239.5000,1.09196,257.337,0.790407
239.4000,-0.176535,257.505,0.792421
239.3000,-0.0844189,257.669,0.794398
239.2000,0.804301,257.686,0.794601
239.1000,0.780113,257.859,0.796669
239.0000,1.08598,257.558,0.793058
238.9000,0.575714,257.784,0.795771
238.8000,0.0672341,257.791,0.795861
238.7000,0.892462,257.782,0.795751
238.6000,0.345413,258.105,0.79963
238.5000,0.0935455,258.234,0.801175
238.4000,1.15438,258.065,0.799142
238.3000,0.829342,258.057,0.79905
238.2000,0.887276,258.096,0.799517
238.1000,0.337504,258.421,0.803407
238.0000,0.1943,258.456,0.803832
237.9000,0.904132,258.082,0.799343
237.8000,-0.263468,258.528,0.804693
237.7000,-0.351884,258.651,0.806166
237.6000,0.413233,258.42,0.803393
237.5000,0.114449,258.586,0.805386
237.4000,-0.371537,258.662,0.80629
237.3000,0.0977122,258.587,0.805398
237.2000,-0.199947,258.788,0.807801
237.1000,0.986318,259.012,0.81048
237.0000,-0.066049,258.853,0.808585
236.9000,-0.515167,258.914,0.809312
236.8000,-0.237272,258.833,0.808345
236.7000,0.313092,259.237,0.813164
236.6000,0.756343,259.035,0.810752
236.5000,-0.070832,259.009,0.81044
236.4000,0.627871,259.297,0.813881
236.3000,-0.862606,259.296,0.813869
236.2000,0.630335,259.268,0.813543
236.1000,0.218391,259.311,0.814047
236.0000,0.553044,259.33,0.814283
235.9000,-0.249563,259.527,0.816632
235.8000,0.557763,259.603,0.817539
235.7000,0.883051,259.371,0.814771
235.6000,0.300573,259.488,0.816162
235.5000,-0.742212,259.652,0.818123
235.4000,0.149909,259.613,0.81766
235.3000,0.236619,259.749,0.819276
235.2000,-0.0116949,260.158,0.82415
235.1000,-0.227663,259.91,0.821195
235.0000,-0.291453,260.217,0.824855
234.9000,0.0520447,260.356,0.826511
234.8000,0.159527,260.19,0.824528
234.7000,0.232249,260.101,0.823471
234.6000,-1.02195,260.345,0.826376
234.5000,-0.354941,260.617,0.829615
234.4000,-0.861109,260.524,0.828505
234.3000,-0.0990407,260.827,0.832108
234.2000,-0.194242,260.532,0.828608
234.1000,-0.80689,260.839,0.832258
234.0000,-0.228549,260.661,0.830142
233.9000,-0.920895,260.942,0.83348
233.8000,-0.607006,260.869,0.832612
233.7000,-0.409478,261.066,0.834951
233.6000,0.323322,261.032,0.834545
233.5000,-0.225425,261.253,0.837164
233.4000,-0.561539,261.132,0.835737
233.3000,-0.808623,261.662,0.842015
233.2000,-0.589548,261.395,0.838851
233.1000,-0.0872557,261.341,0.838215
233.0000,-0.714721,261.432,0.839298
232.9000,0.00770169,261.788,0.843513
232.8000,-1.07076,262.134,0.847614
232.7000,-0.794744,261.795,0.843599
232.6000,0.00486392,261.87,0.844478
232.5000,-0.399329,261.685,0.842287
232.4000,0.219224,261.548,0.840673
232.3000,-0.150319,261.639,0.841752
232.2000,-0.308933,262.179,0.848143
232.1000,-0.275149,261.751,0.84307
232.0000,-1.86012,262.062,0.846754
231.9000,-0.71715,262.299,0.849557
231.8000,-0.300943,262.332,0.84995
231.7000,-1.14008,262.257,0.849058
231.6000,-0.321636,262.779,0.855229
231.5000,-0.537346,262.854,0.856123
231.4000,-1.05376,262.885,0.856485
231.3000,-1.03437,262.489,0.85181
231.2000,-0.433635,262.794,0.855412
231.1000,-0.83316,262.86,0.856192
231.0000,-2.02966,262.718,0.854512
230.9000,-0.701233,262.792,0.855384
230.8000,-1.59377,263.026,0.858146
230.7000,-1.1061,263.112,0.859163
230.6000,-1.30648,263.027,0.858166
230.5000,-0.207603,263.123,0.859293
230.4000,-0.122351,262.829,0.855824
230.3000,-0.776328,263.157,0.859694
230.2000,-0.798892,263.173,0.859888
230.1000,-1.70406,262.812,0.855628
230.0000,-1.6927,262.828,0.85581
229.9000,-0.73002,262.874,0.856361
229.8000,-0.89164,262.922,0.856928
229.7000,-1.93089,262.772,0.855146
229.6000,-1.70242,262.933,0.857054
229.5000,-1.21533,263.227,0.860524
229.4000,-1.53244,263.071,0.85868
229.3000,-1.47427,263.337,0.861822
229.2000,-1.36721,263.669,0.865727
229.1000,-0.982816,263.549,0.864321
229.0000,-1.84482,263.798,0.867243
228.9000,-1.69714,264.111,0.870934
228.8000,-0.904627,264.234,0.872374
228.7000,-1.83166,264.449,0.874908
228.6000,-1.54332,264.378,0.874064
228.5000,-1.67199,264.422,0.874582
228.4000,-2.25708,264.882,0.879982
228.3000,-1.8349,264.319,0.873379
228.2000,-2.44827,264.542,0.875996
228.1000,-1.28882,264.963,0.880937
228.0000,-1.13965,265.391,0.885957
227.9000,-2.40346,265.109,0.882645
227.8000,-1.23607,265.487,0.887077
227.7000,-1.12871,265.439,0.886511
227.6000,-2.10001,265.654,0.889037
227.5000,-0.466834,265.84,0.891215
227.4000,-1.39852,265.66,0.889103
227.3000,-0.891986,265.789,0.890609
227.2000,-1.50053,265.765,0.890335
227.1000,-1.48399,265.546,0.887772
227.0000,-2.61422,265.83,0.891096
226.9000,-1.98106,265.587,0.888247
226.8000,-1.00412,265.783,0.890547
226.7000,-1.54698,265.915,0.892084
226.6000,-1.59436,266.201,0.895434
226.5000,-1.16603,266.087,0.894096
226.4000,-2.18281,266.313,0.896737
226.3000,-2.21377,266.61,0.900203
226.2000,-2.59356,266.729,0.90159
226.1000,-1.99069,266.312,0.896731
226.0000,-1.90332,266.537,0.899355
225.9000,-2.89798,266.756,0.901913
225.8000,-2.64014,266.671,0.900918
225.7000,-1.63335,266.952,0.904195
225.6000,-1.92511,267.084,0.905736
225.5000,-0.839011,267.165,0.906675
225.4000,-0.850114,267.159,0.90661
225.3000,-2.52489,267.356,0.908906
225.2000,-1.67989,267.387,0.90926
225.1000,-2.04135,267.349,0.908817
225.0000,-1.81645,267.631,0.912098
224.9000,-2.03172,267.769,0.9137
224.8000,-3.09174,267.603,0.911777
224.7000,-2.7688,267.793,0.913988
224.6000,-2.49269,267.919,0.91545
224.5000,-2.24486,268.391,0.920928
224.4000,-1.43748,268.197,0.918675
224.3000,-1.55887,268.313,0.920022
224.2000,-2.93055,268.173,0.9184
224.1000,-2.9975,268.028,0.916712
224.0000,-3.04805,268.317,0.920066
223.9000,-1.47937,268.581,0.923131
223.8000,-2.88487,268.302,0.919894
223.7000,-1.93853,268.361,0.920582
223.6000,-1.92874,268.694,0.924439
223.5000,-1.78721,268.566,0.922955
223.4000,-2.75068,268.628,0.923684
223.3000,-2.58816,269.013,0.928143
223.2000,-1.81486,269.144,0.929656
223.1000,-1.84543,268.996,0.927945
223.0000,-1.5048,269.249,0.930877
222.9000,-2.23553,269.239,0.930758
222.8000,-2.03188,269.208,0.930398
222.7000,-2.21662,269.583,0.934733
222.6000,-2.3427,269.418,0.932827
222.5000,-2.61181,269.504,0.93382
222.4000,-1.92679,269.528,0.9341
222.3000,-1.6705,269.608,0.935025
222.2000,-2.11008,269.839,0.937701
222.1000,-1.50097,269.827,0.937559
222.0000,-2.31544,269.84,0.937707
221.9000,-2.06176,270.06,0.94025
221.8000,-2.1176,270.233,0.942244
221.7000,-1.7431,269.927,0.938712
221.6000,-2.32243,270.054,0.940174
221.5000,-1.67335,270.018,0.93976
221.4000,-1.38915,270.406,0.944243
221.3000,-2.55123,270.207,0.941939
221.2000,-2.44875,270.557,0.945977
221.1000,-1.38162,270.334,0.943411
221.0000,-0.727795,270.525,0.945614
220.9000,-1.81103,270.627,0.946792
220.8000,-1.98752,270.615,0.946652
220.7000,-1.17735,270.846,0.949305
220.6000,-2.86555,270.668,0.947265
220.5000,-1.12616,270.681,0.947412
220.4000,-2.22755,270.927,0.950238
220.3000,-1.26875,271.074,0.951939
220.2000,-1.5541,271.251,0.953971
220.1000,-3.15972,271.312,0.954679
220.0000,-1.94737,271.16,0.952927
219.9000,-1.7269,271.463,0.956414
219.8000,-2.55668,271.823,0.960543
219.7000,-1.87129,271.645,0.958506
219.6000,-2.90117,271.486,0.956671
219.5000,-1.87962,271.61,0.958096
219.4000,-1.6161,271.434,0.956078
219.3000,-2.19451,271.784,0.960095
219.2000,-1.56707,271.978,0.962331
219.1000,-1.84913,272.019,0.962801
219.0000,-2.13794,271.665,0.958734
218.9000,-2.45683,272.128,0.964041
218.8000,-1.74593,272.01,0.96269
218.7000,-2.24199,272.122,0.963982
218.6000,-2.98737,272.277,0.965761
218.5000,-3.15357,272.196,0.964822
218.4000,-1.99401,272.102,0.963745
218.3000,-2.54312,272.02,0.962802
218.2000,-1.66711,272.233,0.965248
218.1000,-1.97767,272.559,0.968993
218.0000,-1.64993,272.576,0.969187
217.9000,-2.37492,272.869,0.972533
217.8000,-2.3535,272.432,0.967533
217.7000,-2.46956,272.77,0.971402
217.6000,-2.17335,272.995,0.973984
217.5000,-2.18877,273.054,0.974657
217.4000,-2.3906,273.22,0.976555
217.3000,-2.77228,273.091,0.975079
217.2000,-1.73205,273.42,0.978837
217.1000,-2.19375,273.36,0.978159
217.0000,-2.28355,273.36,0.978157
216.9000,-1.82701,273.623,0.981159
216.8000,-2.20177,273.498,0.979731
216.7000,-2.14311,273.556,0.980398
216.6000,-1.59672,273.395,0.978553
216.5000,-2.11075,273.632,0.981265
216.4000,-1.92638,273.774,0.982887
216.3000,-1.71404,274.065,0.986199
216.2000,-2.07668,274.129,0.986936
216.1000,-1.45808,274.045,0.985973
216.0000,-2.40906,273.923,0.984578
215.9000,-2.58534,273.823,0.983443
215.8000,-1.76668,274.321,0.989116
215.7000,-2.06611,274.449,0.990576
215.6000,-1.47938,274.24,0.988199
215.5000,-1.76374,274.393,0.989941
215.4000,-1.33884,274.57,0.991961
215.3000,-1.59401,274.492,0.991071
215.2000,-2.41359,274.505,0.991217
215.1000,-2.52233,274.833,0.994953
215.0000,-1.75026,274.998,0.996825
214.9000,-2.14129,274.909,0.995814
214.8000,-2.07794,274.739,0.993882
214.7000,-2.36737,274.971,0.996517
214.6000,-2.17814,275.169,0.998768
214.5000,-1.30977,274.953,0.996317
214.4000,-1.5977,275.38,1.00117
214.3000,-1.47859,275.33,1.0006
214.2000,-2.86339,275.332,1.00062
214.1000,-2.81431,275.37,1.00106
214.0000,-2.07275,275.498,1.00251
213.9000,-1.82565,275.385,1.00122
213.8000,-2.29713,275.506,1.0026
213.7000,-1.68733,275.612,1.00381
213.6000,-1.48469,275.611,1.00379
213.5000,-2.10816,275.554,1.00315
213.4000,-2.48636,275.781,1.00572
213.3000,-1.58163,276.044,1.00871
213.2000,-0.929001,275.71,1.00492
213.1000,-2.74932,275.776,1.00567
213.0000,-1.6078,275.88,1.00685
212.9000,-1.33112,276.048,1.00875
212.8000,-1.67776,276.206,1.01054
212.7000,-2.38721,276.143,1.00983
212.6000,-1.22022,276.281,1.01139
212.5000,-1.45733,276.666,1.01574
212.4000,-0.993356,276.681,1.01591
212.3000,-1.39323,276.731,1.01648
212.2000,-0.928061,276.585,1.01483
212.1000,-1.94665,276.77,1.01692
212.0000,-1.87422,276.665,1.01574
211.9000,-3.14059,277.081,1.02045
211.8000,-0.950706,277.257,1.02243
211.7000,-1.9579,277.242,1.02226
211.6000,-1.44267,277.43,1.02439
211.5000,-1.86878,277.428,1.02436
211.4000,-1.62303,277.72,1.02766
211.3000,-1.56683,277.595,1.02625
211.2000,-2.39427,277.502,1.0252
211.1000,-1.82759,277.387,1.02389
211.0000,-2.03356,277.72,1.02766
210.9000,-2.32854,277.946,1.0302
210.8000,-2.02662,277.909,1.02979
210.7000,-1.89511,277.855,1.02918
210.6000,-2.11849,277.929,1.03001
210.5000,-1.59377,278.238,1.03349
210.4000,-1.40591,278.483,1.03625
210.3000,-1.95456,278.71,1.0388
210.2000,-1.62553,278.472,1.03613
210.1000,-2.32023,278.726,1.03899
210.0000,-1.73959,278.689,1.03857
209.9000,-1.46677,278.789,1.0397
209.8000,-2.41381,278.916,1.04112
209.7000,-1.80857,279.061,1.04275
209.6000,-1.76804,279.261,1.04499
209.5000,-2.1212,279.272,1.04512
209.4000,-0.965354,279.406,1.04663
209.3000,-3.18051,279.762,1.05061
209.2000,-1.88823,279.777,1.05079
209.1000,-1.94832,279.554,1.04828
209.0000,-0.797485,279.983,1.0531
208.9000,-1.3767,280.269,1.0563
208.8000,-2.00328,280.073,1.0541
208.7000,-1.25378,280.02,1.05351
208.6000,-1.48457,279.983,1.0531
208.5000,-1.36597,280.13,1.05474
208.4000,-1.36763,280.793,1.06216
208.3000,-0.80761,280.66,1.06067
208.2000,-2.06253,280.811,1.06236
208.1000,-1.94905,280.519,1.0591
208.0000,-0.748066,280.811,1.06236
207.9000,-1.63894,281.316,1.068
207.8000,-1.43023,280.999,1.06446
207.7000,-1.15263,281.842,1.07387
207.6000,-2.56936,281.5,1.07005
207.5000,-1.13643,282.118,1.07694
207.4000,-2.76317,281.908,1.0746
207.3000,-3.24413,282.124,1.07701
207.2000,-2.78552,282.137,1.07716
207.1000,-2.57885,282.286,1.07881
207.0000,-2.39518,282.504,1.08124
206.9000,-0.949277,282.715,1.08358
206.8000,-1.59918,282.444,1.08057
206.7000,-1.65943,282.825,1.0848
206.6000,-2.06998,282.868,1.08528
206.5000,-0.91349,282.996,1.08671
206.4000,-1.13068,283.154,1.08846
206.3000,-0.749748,283.259,1.08962
206.2000,-0.156645,283.484,1.09212
206.1000,-1.55607,283.808,1.09571
206.0000,-1.11715,283.908,1.09681
205.9000,-1.92258,284.075,1.09867
205.8000,-1.23139,284.038,1.09826
205.7000,0.486517,284.245,1.10055
205.6000,-0.588021,284.579,1.10424
205.5000,-0.0809181,284.435,1.10264
205.4000,0.329966,284.727,1.10588
205.3000,0.542077,284.864,1.10739
205.2000,-1.04099,285.416,1.11349
205.1000,-1.03218,285.927,1.11911
205.0000,-0.0297995,285.696,1.11657
204.9000,0.0495128,286.066,1.12064
204.8000,0.39025,286.06,1.12057
204.7000,-0.772832,286.422,1.12455
204.6000,-0.0780691,286.357,1.12384
204.5000,-0.0968896,286.344,1.1237
204.4000,-0.675292,286.804,1.12876
204.3000,0.404363,286.594,1.12645
204.2000,1.16442,287.021,1.13114
204.1000,0.252143,287.329,1.13451
204.0000,0.729234,287.357,1.13482
203.9000,-0.244933,287.611,1.1376
203.8000,0.163065,287.831,1.14001
203.7000,-0.219241,288.095,1.14291
203.6000,0.952646,288.365,1.14586
203.5000,1.90927,288.609,1.14852
203.4000,1.06977,288.97,1.15247
203.3000,-0.36251,288.942,1.15216
203.2000,0.71478,288.899,1.1517
203.1000,0.745656,289.225,1.15525
203.0000,0.762824,289.237,1.15537
202.9000,1.52885,289.557,1.15887
202.8000,0.665916,289.814,1.16166
202.7000,0.874574,289.982,1.16349
202.6000,0.898366,290.014,1.16384
202.5000,1.28449,290.3,1.16695
202.4000,1.98736,290.907,1.17354
202.3000,1.7786,290.851,1.17294
202.2000,0.55709,291.012,1.17468
202.1000,2.671,291.214,1.17688
202.0000,2.18481,291.606,1.18113
201.9000,1.86771,291.954,1.18489
201.8000,2.24636,291.827,1.18352
201.7000,2.40892,292.437,1.19012
201.6000,2.89835,292.847,1.19454
201.5000,3.05666,292.794,1.19397
201.4000,2.23181,292.872,1.19481
201.3000,3.06748,293.327,1.19971
201.2000,1.54934,293.619,1.20287
201.1000,2.42233,293.871,1.20558
201.0000,2.42254,293.675,1.20347
200.9000,3.199,293.953,1.20646
200.8000,3.46181,294.486,1.21218
200.7000,3.07627,294.564,1.21303
200.6000,4.3309,294.75,1.21502
200.5000,3.55787,295.309,1.22101
200.4000,4.57041,295.521,1.22329
200.3000,4.94218,295.496,1.22303
200.2000,2.84505,295.763,1.22589
200.1000,3.15588,296.25,1.23109
200.0000,3.64756,296.561,1.23442
199.9000,4.31953,296.473,1.23347
199.8000,5.06289,296.848,1.23748
199.7000,4.65558,297.53,1.24475
199.6000,5.11782,297.277,1.24206
199.5000,4.99438,297.73,1.24688
199.4000,4.62637,298.003,1.24978
199.3000,5.45176,298.12,1.25103
199.2000,5.87709,297.83,1.24795
199.1000,6.67128,298.559,1.25569
199.0000,4.77117,298.616,1.2563
198.9000,5.703,299.064,1.26105
198.8000,6.92762,299.158,1.26205
198.7000,5.10417,299.57,1.26641
198.6000,5.15138,299.718,1.26799
198.5000,6.91415,299.885,1.26975
198.4000,6.58176,300.334,1.2745
198.3000,6.18621,300.477,1.27601
198.2000,5.99927,300.833,1.27977
198.1000,6.67501,300.844,1.27988
198.0000,6.98677,301.009,1.28163
197.9000,4.95263,301.262,1.2843
197.8000,5.88498,301.909,1.29111
197.7000,6.56201,302.049,1.29258
197.6000,5.47625,302.536,1.2977
197.5000,5.5513,302.195,1.29411
197.4000,8.49941,302.754,1.29998
197.3000,7.71121,303.109,1.30372
197.2000,7.03592,303.546,1.30829
197.1000,9.31052,303.885,1.31185
197.0000,8.59553,303.869,1.31168
196.9000,8.50308,304.23,1.31546
196.8000,7.07912,304.446,1.3177
196.7000,7.64945,304.747,1.32085
196.6000,9.00801,304.689,1.32025
196.5000,7.79944,305.431,1.32799
196.4000,8.04535,305.964,1.33354
196.3000,7.1227,306.142,1.33538
196.2000,7.96137,306.096,1.33491
196.1000,8.18409,306.69,1.34108
196.0000,8.92341,306.836,1.3426
195.9000,8.72172,307.717,1.35174
195.8000,9.17415,308.015,1.35482
195.7000,8.45199,308.257,1.35733
195.6000,8.49129,308.694,1.36184
195.5000,7.76255,308.975,1.36474
195.4000,9.52612,309.198,1.36704
195.3000,8.1675,309.673,1.37194
195.2000,8.8288,309.689,1.3721
195.1000,10.1527,310.131,1.37665
195.0000,6.8856,310.828,1.38382
194.9000,7.75155,310.941,1.38498
194.8000,8.70604,311.181,1.38744
194.7000,9.11581,311.283,1.38849
194.6000,7.14261,311.987,1.39571
194.5000,9.41587,312.607,1.40205
194.4000,8.98182,312.772,1.40373
194.3000,9.24829,313.487,1.41103
194.2000,9.10861,313.999,1.41625
194.1000,10.1354,314.378,1.42011
194.0000,10.664,315.308,1.42955
193.9000,8.9421,315.94,1.43596
193.8000,9.87811,316.325,1.43986
193.7000,8.16884,317.159,1.4483
193.6000,10.3565,318.123,1.45802
193.5000,8.69455,318.23,1.45909
193.4000,7.72204,318.845,1.46527
193.3000,8.94683,319.283,1.46968
193.2000,10.4755,320.579,1.48268
193.1000,9.78404,320.751,1.48439
193.0000,9.88203,321.529,1.49216
192.9000,9.96005,322.427,1.50112
192.8000,9.62124,323.085,1.50767
192.7000,8.38625,324.077,1.51752
192.6000,8.2077,324.918,1.52586
192.5000,9.53371,325.779,1.53437
192.4000,9.45329,326.648,1.54294
192.3000,9.00045,327.194,1.54832
192.2000,10.3251,327.845,1.55471
192.1000,8.95892,328.935,1.56541
192.0000,9.39145,329.502,1.57096
191.9000,9.0213,330.42,1.57993
191.8000,8.71043,330.924,1.58484
191.7000,8.40233,332.45,1.59969
191.6000,10.3927,333.222,1.60717
191.5000,12.0383,334.396,1.61853
191.4000,10.5704,335.395,1.62817
191.3000,11.4869,336.607,1.63983
191.2000,8.41518,337.928,1.6525
191.1000,8.66811,339.781,1.67021
191.0000,8.49523,341.311,1.68477
190.9000,6.69596,343.492,1.70543
190.8000,9.53978,345.32,1.72266
190.7000,10.4319,346.884,1.73734
190.6000,10.0864,348.205,1.7497
190.5000,9.46443,349.402,1.76087
190.4000,9.16261,350.757,1.77346
190.3000,9.35225,352.043,1.78538
190.2000,8.84295,353.205,1.79612
190.1000,10.8514,354.28,1.80603
190.0000,9.53035,355.561,1.8178

##### Extended Information
[Comments]
Sample name,class
Comment
User
Division
Company,Saint Mary's College

[Detailed Information]
Creation date,9/30/2021 2:05 PM

Data array type,Linear data array * 3
Horizontal axis,Wavelength [nm]
Vertical axis(1),CD [mdeg]
Vertical axis(2),HT [V]
Vertical axis(3),Abs
Start,290 nm
End,190 nm
Data interval,0.1 nm
Data points,1001    

[Measurement Information]
Instrument name,J-1500
Model name,J-1500
Serial number,B051061638


