TITLE,class
DATA TYPE,
ORIGIN,JASCO
OWNER,
DATE,21/09/30
TIME,14:36:29
SPECTROMETER/DATA SYSTEM,
LOCALE,1033
RESOLUTION,
DELTAX,-0.1
XUNITS,NANOMETERS
YUNITS,CD [mdeg]
Y2UNITS,HT [V]
Y3UNITS,ABSORBANCE
FIRSTX,  290.0000
LASTX,  190.0000
NPOINTS,    1001
FIRSTY,     1.64361
MAXY,     4.14390
MINY,    -0.53555
XYDATA
290.0000,1.64361,253.33,0.741946
289.9000,1.16932,253.265,0.741148
289.8000,1.05635,253.324,0.741872
289.7000,1.60583,253.339,0.742052
289.6000,1.32186,253.24,0.740848
289.5000,1.73844,253.225,0.740669
289.4000,1.19895,253.114,0.739315
289.3000,1.27641,253.037,0.738372
289.2000,1.08744,253.358,0.74228
289.1000,1.5095,253.365,0.74237
289.0000,0.896317,253.439,0.743268
288.9000,1.91925,253.117,0.739351
288.8000,1.08644,253.188,0.740212
288.7000,1.90533,253.066,0.738725
288.6000,1.33955,253.157,0.739841
288.5000,1.45979,253.053,0.738571
288.4000,1.58421,253.233,0.740765
288.3000,0.99036,253.247,0.740931
288.2000,1.61582,253.068,0.738753
288.1000,2.14761,253.334,0.741988
288.0000,1.64175,253.147,0.739712
287.9000,1.8333,253.064,0.738701
287.8000,1.43209,253.181,0.740135
287.7000,1.97146,253.178,0.740089
287.6000,1.90471,253.015,0.738109
287.5000,1.59793,253.061,0.738671
287.4000,1.42525,253.029,0.738272
287.3000,1.34938,252.995,0.737867
287.2000,1.57973,253.075,0.738839
287.1000,1.65047,253.02,0.738167
287.0000,1.25054,252.969,0.737543
286.9000,1.73004,253.11,0.739261
286.8000,1.26289,252.943,0.737225
286.7000,1.81328,252.878,0.736441
286.6000,1.76679,252.787,0.735333
286.5000,1.18899,252.956,0.737387
286.4000,1.32488,252.88,0.736458
286.3000,1.57487,252.902,0.73673
286.2000,0.835431,252.678,0.733992
286.1000,1.2413,253.061,0.73867
286.0000,0.886549,253.25,0.740965
285.9000,1.91158,253.075,0.738838
285.8000,0.855936,252.868,0.736316
285.7000,1.02073,253.016,0.738125
285.6000,2.03698,252.887,0.736545
285.5000,1.61106,252.738,0.734727
285.4000,1.72982,252.909,0.736814
285.3000,1.33888,252.767,0.735087
285.2000,1.97416,252.969,0.737541
285.1000,1.95755,253.046,0.738482
285.0000,1.78453,252.726,0.73458
284.9000,1.02897,252.788,0.735344
284.8000,0.919844,252.766,0.735067
284.7000,1.97596,252.771,0.735137
284.6000,2.36003,252.845,0.736031
284.5000,1.75191,252.536,0.732267
284.4000,1.62171,252.795,0.735425
284.3000,1.4293,252.812,0.735629
284.2000,1.7657,252.785,0.735302
284.1000,2.17587,252.515,0.732007
284.0000,1.97571,252.806,0.735556
283.9000,1.40978,252.698,0.734244
283.8000,1.52959,252.717,0.734473
283.7000,1.5053,252.631,0.73342
283.6000,1.44732,252.567,0.732641
283.5000,1.89538,252.587,0.732884
283.4000,1.38121,252.614,0.733221
283.3000,1.28112,252.397,0.73057
283.2000,1.33313,252.296,0.72933
283.1000,1.57783,252.551,0.732447
283.0000,1.38666,252.371,0.730256
282.9000,0.621425,252.476,0.73153
282.8000,1.55962,252.755,0.734932
282.7000,1.92262,252.531,0.732203
282.6000,1.06395,252.318,0.729604
282.5000,2.12168,252.483,0.731623
282.4000,1.79516,252.544,0.732368
282.3000,1.99893,252.515,0.732007
282.2000,1.467,252.64,0.733531
282.1000,1.08853,252.446,0.731169
282.0000,1.88225,252.394,0.73053
281.9000,2.05416,252.419,0.730843
281.8000,1.80571,252.137,0.727395
281.7000,1.44679,252.354,0.730038
281.6000,1.30126,252.378,0.730334
281.5000,0.859827,252.38,0.730365
281.4000,1.4632,252.344,0.729923
281.3000,0.838816,252.116,0.727139
281.2000,1.56257,252.505,0.731887
281.1000,2.33298,252.455,0.731272
281.0000,1.33826,252.526,0.732143
280.9000,0.901629,252.168,0.727765
280.8000,1.81716,252.255,0.728839
280.7000,1.28393,252.455,0.73128
280.6000,0.956767,252.334,0.7298
280.5000,1.43869,252.319,0.729616
280.4000,1.01189,252.197,0.728121
280.3000,1.55536,252.233,0.728571
280.2000,1.9651,252.515,0.732009
280.1000,1.57384,252.275,0.729084
280.0000,1.64134,252.233,0.728564
279.9000,1.84713,252.261,0.728912
279.8000,1.44881,252.129,0.727294
279.7000,0.789387,252.173,0.727836
279.6000,1.46837,252.289,0.729255
279.5000,2.07769,252.441,0.731102
279.4000,0.813735,252.293,0.729293
279.3000,0.743826,252.196,0.728108
279.2000,1.52498,252.334,0.729798
279.1000,0.914261,252.214,0.728331
279.0000,0.963848,252.153,0.727593
278.9000,1.47286,252.237,0.728615
278.8000,1.52076,252.067,0.726538
278.7000,1.25651,252.275,0.72908
278.6000,0.489802,252.208,0.728254
278.5000,1.64585,252.225,0.728473
278.4000,1.04085,252.249,0.728759
278.3000,1.01828,252.127,0.727273
278.2000,1.05137,252.176,0.727869
278.1000,1.76564,252.28,0.729142
278.0000,0.636796,252.21,0.728278
277.9000,1.1882,252.157,0.727638
277.8000,1.44611,252.154,0.727606
277.7000,0.729388,251.794,0.723193
277.6000,0.838503,252.318,0.729599
277.5000,1.4472,252.26,0.728891
277.4000,1.17309,252.171,0.727802
277.3000,0.439774,252.272,0.72904
277.2000,1.66104,252.167,0.727758
277.1000,1.97581,252.134,0.727352
277.0000,1.51117,252.006,0.725789
276.9000,0.847118,252.226,0.728484
276.8000,0.807676,251.87,0.72413
276.7000,0.728342,251.676,0.721755
276.6000,0.748122,251.61,0.720945
276.5000,1.0199,252.052,0.726349
276.4000,0.766389,251.712,0.722201
276.3000,0.776498,251.731,0.722425
276.2000,0.427637,251.834,0.723684
276.1000,0.951889,251.418,0.718592
276.0000,0.819206,251.956,0.725182
275.9000,1.26606,251.821,0.723524
275.8000,0.820122,251.981,0.725482
275.7000,1.75479,251.611,0.720953
275.6000,0.918241,251.807,0.723362
275.5000,0.955431,251.815,0.723457
275.4000,0.1764,251.875,0.724184
275.3000,1.33062,251.839,0.723746
275.2000,1.64358,252.048,0.726301
275.1000,0.704782,252.095,0.726877
275.0000,1.40167,252.078,0.726672
274.9000,1.53361,252.023,0.725996
274.8000,1.21266,252.319,0.72962
274.7000,1.33197,251.97,0.725351
274.6000,1.33334,251.951,0.725116
274.5000,1.1046,251.836,0.723708
274.4000,1.40967,251.833,0.723674
274.3000,0.959954,251.743,0.722578
274.2000,0.970441,251.991,0.725608
274.1000,1.12155,251.53,0.71997
274.0000,0.703263,251.609,0.720933
273.9000,1.138,251.855,0.723944
273.8000,1.25336,251.667,0.721647
273.7000,1.94719,251.695,0.721987
273.6000,1.15768,251.583,0.720618
273.5000,1.01225,251.628,0.721162
273.4000,0.709931,251.768,0.722882
273.3000,1.25055,251.665,0.721624
273.2000,1.27482,251.409,0.718482
273.1000,0.686006,251.804,0.723324
273.0000,1.1757,251.879,0.724235
272.9000,0.995097,251.621,0.721083
272.8000,1.0602,251.871,0.724145
272.7000,0.85581,251.754,0.722705
272.6000,0.417016,251.535,0.720024
272.5000,0.511135,251.593,0.720742
272.4000,0.759493,251.413,0.718531
272.3000,1.11743,251.867,0.724093
272.2000,0.958173,251.573,0.720492
272.1000,0.853791,251.702,0.722077
272.0000,0.111105,251.916,0.724686
271.9000,0.920366,251.917,0.724708
271.8000,0.77643,251.674,0.721734
271.7000,1.78456,251.843,0.7238
271.6000,1.89783,251.703,0.722084
271.5000,0.983229,251.753,0.722695
271.4000,1.26878,251.531,0.71998
271.3000,1.29471,251.635,0.721249
271.2000,1.40253,251.844,0.723814
271.1000,1.52423,251.48,0.719359
271.0000,1.15041,251.508,0.719701
270.9000,0.526671,251.79,0.723145
270.8000,0.163071,251.475,0.719292
270.7000,1.23715,251.417,0.718578
270.6000,1.15694,251.597,0.720792
270.5000,0.347467,251.597,0.720787
270.4000,0.914674,251.709,0.722153
270.3000,0.277048,251.554,0.720259
270.2000,0.627198,251.638,0.721292
270.1000,1.42117,251.944,0.725032
270.0000,1.41894,251.84,0.723759
269.9000,0.644356,251.867,0.724087
269.8000,1.09531,251.716,0.722247
269.7000,1.10897,251.63,0.721195
269.6000,0.896076,252.043,0.726245
269.5000,0.699085,251.927,0.724828
269.4000,1.55789,251.849,0.723867
269.3000,0.838956,251.606,0.720899
269.2000,0.542294,251.985,0.725536
269.1000,0.635468,251.861,0.724024
269.0000,0.924054,251.853,0.723917
268.9000,1.52705,252.012,0.725865
268.8000,0.931521,251.616,0.721016
268.7000,0.515819,251.823,0.723556
268.6000,1.33517,251.711,0.722186
268.5000,0.945451,251.787,0.72311
268.4000,1.24544,251.944,0.725031
268.3000,0.853708,252.035,0.726141
268.2000,1.51541,251.771,0.722922
268.1000,1.40359,251.625,0.721129
268.0000,0.932695,251.733,0.722455
267.9000,1.03479,252.092,0.72684
267.8000,1.09728,251.781,0.723042
267.7000,1.20618,251.769,0.722898
267.6000,0.880861,251.602,0.720849
267.5000,0.978963,251.752,0.722689
267.4000,0.545664,251.734,0.722463
267.3000,1.33137,251.746,0.722611
267.2000,0.315315,251.652,0.721462
267.1000,0.97841,251.893,0.724409
267.0000,0.0901454,251.758,0.722761
266.9000,1.54669,251.864,0.724058
266.8000,0.678929,251.978,0.725443
266.7000,1.222,252.101,0.726948
266.6000,0.673674,252.363,0.730154
266.5000,1.04227,251.799,0.723265
266.4000,1.12865,251.908,0.72459
266.3000,1.37291,252.019,0.725948
266.2000,0.738774,252.149,0.72754
266.1000,1.61085,252.147,0.72751
266.0000,0.256769,252.119,0.727174
265.9000,1.64331,251.922,0.724765
265.8000,0.714282,252.164,0.727716
265.7000,1.63027,251.976,0.725425
265.6000,0.997274,251.948,0.725078
265.5000,1.21805,252.127,0.727265
265.4000,0.486702,252.398,0.730586
265.3000,0.972138,252.002,0.725743
265.2000,1.11992,252.222,0.728435
265.1000,0.797334,252.302,0.729413
265.0000,1.54806,252.241,0.728666
264.9000,0.983256,251.934,0.724912
264.8000,0.997351,252.5,0.731829
264.7000,1.14751,252.302,0.729406
264.6000,1.41431,252.174,0.727843
264.5000,0.686271,252.679,0.734006
264.4000,0.850845,252.094,0.726868
264.3000,1.12325,252.089,0.726811
264.2000,1.42365,252.227,0.728488
264.1000,1.55303,252.422,0.730874
264.0000,0.653204,252.293,0.729299
263.9000,0.787719,252.402,0.730628
263.8000,0.68051,252.303,0.729421
263.7000,0.260293,252.412,0.730747
263.6000,1.28779,252.427,0.730938
263.5000,1.23529,252.292,0.729281
263.4000,1.63642,252.24,0.728645
263.3000,1.81295,252.491,0.731713
263.2000,0.872769,252.165,0.727734
263.1000,0.776559,252.251,0.728788
263.0000,0.833692,252.32,0.729625
262.9000,1.07702,252.4,0.730603
262.8000,1.31415,252.391,0.730494
262.7000,1.15863,252.575,0.73274
262.6000,0.737968,252.563,0.732592
262.5000,1.11062,252.52,0.73207
262.4000,1.27372,252.65,0.733657
262.3000,1.37523,252.718,0.734485
262.2000,1.4074,252.636,0.733481
262.1000,0.958623,252.712,0.734417
262.0000,0.991657,252.828,0.735825
261.9000,1.07253,252.473,0.731502
261.8000,0.697599,252.81,0.735613
261.7000,0.844799,252.74,0.734753
261.6000,0.694827,253.132,0.739538
261.5000,0.62344,252.992,0.737832
261.4000,1.03721,252.789,0.735351
261.3000,0.415717,252.598,0.733022
261.2000,1.18037,252.886,0.736538
261.1000,0.654168,252.841,0.735989
261.0000,0.656601,252.639,0.733522
260.9000,0.97558,252.981,0.737689
260.8000,0.4939,252.855,0.736162
260.7000,0.805061,252.709,0.73438
260.6000,1.84769,252.708,0.734367
260.5000,0.419051,252.778,0.73522
260.4000,0.517313,252.999,0.737911
260.3000,0.703174,252.975,0.737618
260.2000,0.442652,252.839,0.735964
260.1000,0.637292,253.046,0.738491
260.0000,0.782302,253.319,0.741809
259.9000,0.939915,253.304,0.741623
259.8000,0.789308,253.346,0.742135
259.7000,1.13116,253.241,0.740855
259.6000,0.685202,253.276,0.741291
259.5000,1.22703,253.221,0.740616
259.4000,0.682168,253.209,0.740473
259.3000,1.31187,253.347,0.742154
259.2000,1.08767,253.459,0.74351
259.1000,1.06043,253.373,0.742465
259.0000,1.12315,253.624,0.745518
258.9000,1.13438,253.445,0.743348
258.8000,1.33752,253.576,0.74494
258.7000,1.3235,253.308,0.741672
258.6000,0.901205,253.258,0.741065
258.5000,-0.146941,253.708,0.746538
258.4000,0.692489,253.71,0.746563
258.3000,1.16823,253.837,0.748105
258.2000,1.05045,253.337,0.742032
258.1000,1.21495,253.487,0.743851
258.0000,0.929235,254.05,0.750703
257.9000,1.22218,253.692,0.746343
257.8000,0.499185,253.791,0.747554
257.7000,0.613283,254.201,0.752538
257.6000,1.16976,253.927,0.749202
257.5000,0.573005,254.17,0.752152
257.4000,1.18208,253.71,0.746567
257.3000,1.67527,253.759,0.747168
257.2000,1.34372,254.046,0.750651
257.1000,1.31817,253.573,0.744898
257.0000,1.19985,253.601,0.745243
256.9000,1.11176,253.899,0.748866
256.8000,0.998128,254.083,0.751097
256.7000,1.027,254.126,0.751625
256.6000,0.994986,254.216,0.752713
256.5000,0.967856,253.829,0.748008
256.4000,0.580034,254.083,0.751105
256.3000,1.31342,253.895,0.748818
256.2000,1.57025,254.285,0.75355
256.1000,1.78856,254.056,0.750767
256.0000,0.694084,254.081,0.75108
255.9000,1.31585,254.117,0.751509
255.8000,0.70573,254.378,0.754682
255.7000,1.12438,254.336,0.754175
255.6000,1.31609,254.031,0.750474
255.5000,0.467478,254.378,0.754683
255.4000,1.07813,254.18,0.752276
255.3000,1.28093,254.143,0.751831
255.2000,1.50078,254.217,0.752721
255.1000,1.3637,254.824,0.760091
255.0000,0.271538,254.537,0.756603
254.9000,1.56676,254.445,0.755497
254.8000,-0.312541,254.38,0.7547
254.7000,1.33546,254.519,0.756388
254.6000,0.661567,254.399,0.75493
254.5000,1.30118,254.639,0.757844
254.4000,0.737743,254.43,0.755308
254.3000,0.756158,254.442,0.755455
254.2000,1.69919,254.414,0.755119
254.1000,1.42317,254.324,0.754028
254.0000,1.83383,254.723,0.758869
253.9000,0.812106,254.465,0.75574
253.8000,0.665679,254.583,0.757162
253.7000,1.5546,254.662,0.758124
253.6000,1.26869,254.629,0.757725
253.5000,1.19204,254.549,0.756756
253.4000,0.50969,254.499,0.756148
253.3000,0.89396,254.425,0.755256
253.2000,0.173592,254.702,0.758607
253.1000,1.21668,255.16,0.764158
253.0000,0.661269,254.601,0.757384
252.9000,1.17259,254.597,0.757332
252.8000,0.750335,254.604,0.757424
252.7000,1.51872,254.693,0.758502
252.6000,1.35817,254.249,0.753111
252.5000,0.935184,254.692,0.758488
252.4000,-0.103866,254.408,0.755045
252.3000,0.249916,254.492,0.756063
252.2000,1.106,255.053,0.762864
252.1000,0.944087,254.849,0.760396
252.0000,1.19099,254.961,0.761749
251.9000,0.806392,254.844,0.760326
251.8000,0.50317,255.085,0.763245
251.7000,1.99487,254.841,0.760288
251.6000,1.26144,255.263,0.765406
251.5000,0.485725,255.325,0.766148
251.4000,1.01579,255.038,0.762677
251.3000,1.16796,254.785,0.75961
251.2000,1.03321,254.874,0.760695
251.1000,1.5693,255.052,0.762846
251.0000,1.3307,254.855,0.76046
250.9000,1.50315,255.396,0.767015
250.8000,0.534769,255.373,0.76673
250.7000,1.49567,255.315,0.766032
250.6000,0.674061,255.02,0.762461
250.5000,0.996704,255.189,0.764502
250.4000,0.335428,255.045,0.762766
250.3000,1.1805,255.517,0.768471
250.2000,0.964529,255.148,0.764015
250.1000,1.0452,255.074,0.763119
250.0000,1.06971,255.32,0.766096
249.9000,1.04985,255.221,0.76489
249.8000,0.407799,255.121,0.763685
249.7000,0.410613,254.938,0.761463
249.6000,0.305096,255.224,0.764931
249.5000,0.175178,255.274,0.765529
249.4000,0.949731,255.423,0.767343
249.3000,1.15039,255.408,0.767159
249.2000,0.547786,255.012,0.76236
249.1000,0.742642,255.138,0.763894
249.0000,-0.0535608,255.294,0.76578
248.9000,1.39936,255.144,0.763959
248.8000,0.477814,254.774,0.75948
248.7000,0.871503,255.304,0.765903
248.6000,1.01848,255.087,0.76327
248.5000,0.975659,254.952,0.761639
248.4000,0.914705,255.076,0.763139
248.3000,1.86578,254.931,0.761377
248.2000,1.05017,255.171,0.764286
248.1000,0.692385,254.901,0.761018
248.0000,1.2162,255.178,0.764367
247.9000,1.04572,254.731,0.758964
247.8000,1.51797,254.759,0.759297
247.7000,1.00274,254.783,0.759596
247.6000,0.800582,254.93,0.761371
247.5000,1.15993,255.194,0.764567
247.4000,1.26496,255.376,0.766771
247.3000,0.747648,255.112,0.763571
247.2000,0.633298,255.364,0.766619
247.1000,0.50207,255.453,0.767694
247.0000,1.22088,255.322,0.766114
246.9000,1.16317,255.514,0.768443
246.8000,0.754489,255.519,0.768496
246.7000,0.943132,255.332,0.766237
246.6000,1.71583,255.064,0.762994
246.5000,0.772485,255.163,0.764193
246.4000,0.798337,255.55,0.768872
246.3000,0.323829,255.526,0.768585
246.2000,0.664783,255.42,0.767305
246.1000,0.524243,255.548,0.768842
246.0000,1.37179,255.303,0.76588
245.9000,1.24087,255.65,0.770086
245.8000,1.36691,255.708,0.770782
245.7000,0.773459,255.359,0.766564
245.6000,1.23423,255.889,0.772961
245.5000,0.89295,255.695,0.770622
245.4000,1.21752,255.582,0.769261
245.3000,0.71546,255.388,0.766911
245.2000,1.20753,255.561,0.769001
245.1000,0.299156,255.526,0.768586
245.0000,0.520878,255.4,0.767064
244.9000,0.766387,255.518,0.768487
244.8000,0.737808,255.106,0.763498
244.7000,-0.00797358,255.457,0.767742
244.6000,1.19863,255.568,0.769087
244.5000,0.701024,255.554,0.768915
244.4000,0.875881,255.571,0.769126
244.3000,1.32551,255.556,0.768948
244.2000,0.7977,255.394,0.766981
244.1000,1.44213,255.712,0.770835
244.0000,1.15201,255.731,0.771054
243.9000,0.958401,255.762,0.771439
243.8000,1.47116,255.534,0.768679
243.7000,1.74355,255.945,0.773644
243.6000,0.656741,255.887,0.772944
243.5000,0.205496,256.064,0.775077
243.4000,0.959503,255.719,0.77091
243.3000,0.446399,255.988,0.774158
243.2000,0.559313,255.833,0.772292
243.1000,0.554994,255.878,0.77284
243.0000,1.14854,255.833,0.772288
242.9000,1.6415,255.809,0.771996
242.8000,1.60983,255.659,0.770184
242.7000,1.15296,255.901,0.773113
242.6000,1.71627,256.019,0.77454
242.5000,0.704378,255.947,0.773669
242.4000,1.49161,255.898,0.773075
242.3000,0.721013,256.18,0.776481
242.2000,0.762462,256.186,0.776547
242.1000,0.827136,255.944,0.773636
242.0000,1.51543,255.955,0.773764
241.9000,0.401667,256.197,0.776686
241.8000,1.06939,255.905,0.77316
241.7000,0.939461,256.157,0.776201
241.6000,0.868034,256.198,0.776691
241.5000,1.93957,256.39,0.779007
241.4000,1.97676,256.142,0.776016
241.3000,1.14554,256.443,0.779652
241.2000,1.26299,256.154,0.776165
241.1000,0.967407,256.537,0.780777
241.0000,1.0037,256.329,0.77828
240.9000,1.31676,256.447,0.779701
240.8000,1.68038,256.456,0.779808
240.7000,1.65708,256.384,0.778932
240.6000,0.647262,256.532,0.780724
240.5000,1.51882,256.486,0.780172
240.4000,1.28582,256.453,0.779768
240.3000,1.33294,256.372,0.778796
240.2000,1.02095,256.679,0.782488
240.1000,0.850743,256.616,0.781734
240.0000,0.909495,256.869,0.784775
239.9000,1.5936,257.033,0.786747
239.8000,0.544978,256.953,0.785795
239.7000,1.84005,256.738,0.7832
239.6000,0.501029,256.75,0.783341
239.5000,0.885058,256.927,0.785472
239.4000,1.40081,257.067,0.787157
239.3000,1.12318,256.949,0.785739
239.2000,2.04587,257.147,0.788121
239.1000,1.68332,256.926,0.785461
239.0000,0.472255,257.262,0.789503
238.9000,0.215059,257.208,0.788852
238.8000,1.14287,257.28,0.789721
238.7000,0.761378,257.265,0.789536
238.6000,0.694495,257.517,0.792566
238.5000,0.853429,257.735,0.795189
238.4000,0.929378,257.541,0.792852
238.3000,1.4601,257.667,0.794375
238.2000,1.31087,257.845,0.796507
238.1000,1.03543,258.064,0.79913
238.0000,1.28503,257.764,0.795532
237.9000,1.02026,257.781,0.795738
237.8000,1.13072,257.701,0.794781
237.7000,1.10556,258.048,0.798944
237.6000,1.4252,257.804,0.796013
237.5000,0.878297,257.795,0.795903
237.4000,0.584879,258.111,0.799696
237.3000,0.845611,257.985,0.79818
237.2000,1.54979,258.135,0.799982
237.1000,0.456892,258.262,0.801507
237.0000,1.66754,258.225,0.801068
236.9000,1.33752,258.1,0.799563
236.8000,1.63021,258.735,0.807163
236.7000,0.6515,258.501,0.804366
236.6000,0.284375,258.725,0.807045
236.5000,0.842399,258.314,0.802127
236.4000,1.71489,258.568,0.805168
236.3000,1.64507,258.687,0.806598
236.2000,0.97986,258.635,0.805968
236.1000,0.703015,258.832,0.808329
236.0000,1.23978,258.719,0.806982
235.9000,0.355958,258.659,0.806258
235.8000,1.44761,258.888,0.808997
235.7000,1.44241,258.814,0.808107
235.6000,1.42148,258.714,0.806921
235.5000,1.07827,258.999,0.81032
235.4000,1.01332,258.934,0.809549
235.3000,1.19482,259.126,0.811845
235.2000,1.0818,259.109,0.811643
235.1000,1.10487,259.57,0.817142
235.0000,1.38433,259.501,0.816324
234.9000,1.26981,259.57,0.817146
234.8000,1.77656,259.285,0.813748
234.7000,1.98956,259.571,0.817155
234.6000,1.21376,259.564,0.817071
234.5000,-0.22831,259.513,0.816468
234.4000,0.490869,259.819,0.820117
234.3000,1.53498,259.658,0.818187
234.2000,0.674809,259.5,0.816305
234.1000,1.28294,259.427,0.815438
234.0000,1.93847,259.857,0.820564
233.9000,1.60911,260.013,0.822424
233.8000,1.09899,260.067,0.823065
233.7000,0.97965,260.321,0.826089
233.6000,2.06359,260.344,0.826372
233.5000,0.295919,260.074,0.823148
233.4000,1.53408,260.316,0.826034
233.3000,1.53317,260.506,0.828289
233.2000,0.660544,260.588,0.829272
233.1000,1.02417,260.509,0.828326
233.0000,0.729543,260.637,0.829852
232.9000,1.24474,260.707,0.830682
232.8000,1.19135,260.663,0.830157
232.7000,1.20239,260.778,0.831524
232.6000,1.31531,260.991,0.834054
232.5000,1.1235,260.774,0.831476
232.4000,1.65223,260.986,0.834002
232.3000,0.0538303,260.961,0.833705
232.2000,1.25839,261.103,0.83539
232.1000,1.08524,261.162,0.836085
232.0000,2.23591,261.228,0.836873
231.9000,0.888505,261.347,0.838281
231.8000,1.59068,261.417,0.839114
231.7000,0.772296,261.443,0.839426
231.6000,1.37384,261.467,0.839706
231.5000,1.37032,261.451,0.839522
231.4000,0.983924,261.603,0.841325
231.3000,0.899463,261.527,0.840423
231.2000,1.39561,261.569,0.840915
231.1000,1.14174,261.653,0.841916
231.0000,0.975268,261.677,0.842191
230.9000,1.05323,261.696,0.842419
230.8000,0.661586,261.742,0.842965
230.7000,1.18068,261.749,0.843049
230.6000,2.53506,261.867,0.844445
230.5000,1.76836,261.842,0.844157
230.4000,1.17913,261.695,0.842414
230.3000,2.32927,261.768,0.84327
230.2000,1.27657,261.854,0.844292
230.1000,1.45426,261.889,0.844709
230.0000,1.11609,261.83,0.844007
229.9000,1.2251,261.817,0.84386
229.8000,2.17805,261.606,0.841351
229.7000,0.578186,261.99,0.845902
229.6000,1.2827,261.83,0.844007
229.5000,1.96273,261.274,0.837414
229.4000,1.1869,261.695,0.842408
229.3000,1.74786,261.867,0.844444
229.2000,1.64675,262.174,0.848082
229.1000,0.482248,262.154,0.847849
229.0000,1.65759,262.609,0.853223
228.9000,0.860624,262.756,0.85496
228.8000,2.30607,262.681,0.854076
228.7000,1.2194,263.063,0.858586
228.6000,1.26908,262.924,0.85695
228.5000,1.51265,263.191,0.860097
228.4000,1.70997,263.205,0.860266
228.3000,1.09822,263.369,0.8622
228.2000,1.10317,263.561,0.864457
228.1000,1.76893,263.367,0.862175
228.0000,0.972287,263.344,0.861905
227.9000,0.651571,263.761,0.866818
227.8000,1.06156,263.712,0.866239
227.7000,1.01014,263.811,0.867401
227.6000,1.24062,263.98,0.869387
227.5000,1.16907,263.863,0.868015
227.4000,1.22651,264.276,0.87287
227.3000,1.05228,264.088,0.870661
227.2000,0.9209,264.243,0.872481
227.1000,1.5697,264.25,0.872564
227.0000,0.850109,264.299,0.873147
226.9000,0.460756,264.485,0.875329
226.8000,1.58171,264.625,0.876974
226.7000,2.0196,264.787,0.87887
226.6000,1.51252,264.527,0.875815
226.5000,0.0410334,264.686,0.877682
226.4000,0.886877,264.691,0.877743
226.3000,1.26883,264.888,0.880055
226.2000,1.49881,265.004,0.881424
226.1000,1.36245,264.958,0.880878
226.0000,1.03021,264.984,0.881184
225.9000,2.0104,264.88,0.879963
225.8000,1.68977,265.359,0.885574
225.7000,1.80539,265.297,0.884856
225.6000,1.1105,265.68,0.889335
225.5000,2.29268,265.503,0.887269
225.4000,1.68051,265.576,0.888117
225.3000,1.19281,265.688,0.889432
225.2000,1.66838,265.741,0.89005
225.1000,1.7508,265.631,0.888767
225.0000,1.45516,265.82,0.890973
224.9000,1.15455,266.057,0.893752
224.8000,1.66879,266.218,0.895634
224.7000,1.63458,265.864,0.891493
224.6000,0.926466,266.026,0.893384
224.5000,1.49711,266.232,0.895797
224.4000,0.419346,266.145,0.894771
224.3000,1.55035,266.488,0.898779
224.2000,1.33248,266.348,0.897145
224.1000,1.40614,266.327,0.896903
224.0000,2.045,266.476,0.898638
223.9000,0.656937,266.618,0.900299
223.8000,0.908144,266.596,0.900037
223.7000,1.67554,266.865,0.903174
223.6000,1.34119,266.701,0.901264
223.5000,1.16584,267.015,0.904923
223.4000,1.80931,266.902,0.903614
223.3000,1.0372,267.153,0.906532
223.2000,2.46957,266.868,0.903216
223.1000,2.29448,267.095,0.905856
223.0000,1.35507,267.313,0.908395
222.9000,2.34691,267.174,0.906775
222.8000,1.76996,267.486,0.910411
222.7000,1.06145,267.51,0.910695
222.6000,1.12192,267.597,0.911704
222.5000,1.18745,267.823,0.914333
222.4000,1.5531,267.596,0.911689
222.3000,1.03273,267.689,0.912775
222.2000,1.3191,267.863,0.9148
222.1000,1.75036,267.738,0.913342
222.0000,1.78147,267.988,0.916252
221.9000,2.10601,268.106,0.917622
221.8000,1.75514,268.002,0.916413
221.7000,1.1183,268.155,0.918195
221.6000,1.76962,268.184,0.918528
221.5000,1.59837,268.278,0.919624
221.4000,1.58653,268.288,0.919736
221.3000,1.33611,268.208,0.91881
221.2000,1.74896,268.381,0.920817
221.1000,2.44279,268.446,0.921566
221.0000,1.95362,268.761,0.925217
220.9000,1.16399,268.622,0.923604
220.8000,1.38084,268.56,0.92289
220.7000,0.759409,268.374,0.920728
220.6000,2.1551,268.722,0.924771
220.5000,1.17629,269.06,0.928689
220.4000,0.969121,269.079,0.9289
220.3000,1.02945,269.087,0.928997
220.2000,1.22668,269.039,0.928445
220.1000,1.61516,269.239,0.930762
220.0000,2.13426,269.254,0.930929
219.9000,1.56155,269.371,0.932287
219.8000,1.73701,269.331,0.931826
219.7000,2.3852,269.374,0.932323
219.6000,1.77499,269.428,0.93294
219.5000,1.6089,269.538,0.934215
219.4000,2.00307,269.481,0.933561
219.3000,2.58664,269.512,0.93391
219.2000,1.56991,269.541,0.934252
219.1000,1.28203,269.515,0.93395
219.0000,1.31156,269.686,0.935925
218.9000,1.20519,269.67,0.935742
218.8000,1.37047,269.842,0.937732
218.7000,1.44398,269.685,0.935912
218.6000,2.21583,269.899,0.938392
218.5000,1.10189,269.769,0.936886
218.4000,1.32814,269.808,0.937335
218.3000,1.13644,270.011,0.939685
218.2000,2.40086,270.034,0.939949
218.1000,1.67594,270.241,0.942333
218.0000,1.40539,270.328,0.94334
217.9000,1.90615,270.206,0.941934
217.8000,1.66199,270.486,0.945165
217.7000,0.45821,270.496,0.945281
217.6000,1.92836,270.566,0.946088
217.5000,2.04211,270.714,0.947784
217.4000,2.18087,270.644,0.946988
217.3000,1.94048,270.777,0.948512
217.2000,2.59352,271.039,0.951535
217.1000,1.84767,270.965,0.950685
217.0000,1.14242,270.964,0.950674
216.9000,1.27618,271.01,0.951197
216.8000,1.8774,271.412,0.955821
216.7000,1.0544,271.283,0.954341
216.6000,1.66716,271.478,0.956582
216.5000,0.974021,271.446,0.956212
216.4000,1.00288,271.423,0.955949
216.3000,1.57491,271.197,0.953354
216.2000,2.08133,271.269,0.954177
216.1000,1.17565,271.582,0.957778
216.0000,1.4004,271.468,0.956471
215.9000,2.57748,271.787,0.960135
215.8000,1.78817,271.959,0.962109
215.7000,2.00873,271.544,0.957337
215.6000,1.80757,271.572,0.957657
215.5000,2.03603,272.159,0.964397
215.4000,3.22635,271.73,0.959481
215.3000,2.19401,271.607,0.958062
215.2000,0.918167,272.236,0.965285
215.1000,1.72367,272.049,0.963145
215.0000,2.12286,272.169,0.964521
214.9000,1.69868,272.095,0.963668
214.8000,1.45988,272.285,0.965851
214.7000,2.2956,272.172,0.964546
214.6000,1.75811,272.19,0.96476
214.5000,1.47772,272.271,0.965687
214.4000,2.42483,272.297,0.965979
214.3000,1.52289,272.805,0.971808
214.2000,1.19729,272.321,0.966261
214.1000,1.72635,272.318,0.966221
214.0000,1.54427,272.561,0.969014
213.9000,2.12334,272.848,0.972301
213.8000,2.43641,272.566,0.969064
213.7000,2.29115,272.429,0.967501
213.6000,2.28427,272.713,0.970746
213.5000,2.09849,272.884,0.972712
213.4000,2.38741,272.714,0.97076
213.3000,1.58315,273.055,0.974663
213.2000,1.28045,272.941,0.973364
213.1000,2.41344,273.079,0.974936
213.0000,1.66606,272.868,0.972525
212.9000,1.85434,273.273,0.977163
212.8000,1.49778,273.301,0.977481
212.7000,2.37389,273.154,0.975801
212.6000,2.28235,273.078,0.974924
212.5000,1.97168,273.288,0.977325
212.4000,1.26512,273.315,0.977642
212.3000,2.80097,273.491,0.979649
212.2000,2.85605,273.541,0.980219
212.1000,1.40883,273.47,0.979405
212.0000,2.49665,273.9,0.984318
211.9000,2.09952,273.717,0.982236
211.8000,2.30613,273.808,0.98327
211.7000,1.63546,273.955,0.984953
211.6000,2.53639,273.747,0.982575
211.5000,2.82536,273.959,0.984991
211.4000,0.747333,274.05,0.986035
211.3000,0.558737,274.368,0.989656
211.2000,1.9245,274.182,0.98754
211.1000,1.10336,274.243,0.988228
211.0000,1.90827,274.428,0.990337
210.9000,2.5548,274.235,0.988141
210.8000,1.7551,274.389,0.989892
210.7000,1.36895,274.686,0.993276
210.6000,1.45803,274.663,0.993017
210.5000,2.14822,274.426,0.990322
210.4000,2.1789,274.592,0.992206
210.3000,2.02056,274.985,0.996679
210.2000,1.24235,274.911,0.995841
210.1000,2.41028,274.71,0.993554
210.0000,2.55171,274.88,0.995489
209.9000,1.33902,275.375,1.00111
209.8000,2.46001,275.14,0.998439
209.7000,1.6723,275.638,1.0041
209.6000,2.52356,275.86,1.00662
209.5000,2.07298,275.552,1.00312
209.4000,0.708657,275.391,1.00129
209.3000,2.79689,275.77,1.0056
209.2000,2.21368,276.031,1.00856
209.1000,3.13196,275.953,1.00768
209.0000,1.29039,275.987,1.00805
208.9000,3.17429,275.928,1.00739
208.8000,2.26764,276.025,1.00849
208.7000,1.25744,276.031,1.00856
208.6000,2.33039,276.376,1.01246
208.5000,2.08493,276.172,1.01015
208.4000,2.02707,276.448,1.01328
208.3000,3.08675,276.645,1.01551
208.2000,2.20306,276.397,1.0127
208.1000,2.12993,276.631,1.01536
208.0000,2.79433,276.698,1.01611
207.9000,1.70775,276.918,1.0186
207.8000,2.29845,277.287,1.02277
207.7000,1.41767,277.167,1.02142
207.6000,3.38421,277.255,1.0224
207.5000,2.10499,277.149,1.0212
207.4000,1.51762,277.396,1.024
207.3000,1.76382,277.469,1.02483
207.2000,2.81579,277.547,1.0257
207.1000,2.00413,277.725,1.02772
207.0000,3.33693,277.771,1.02823
206.9000,2.16617,277.81,1.02867
206.8000,2.48123,278.219,1.03328
206.7000,2.29351,277.791,1.02846
206.6000,2.59751,278.001,1.03082
206.5000,1.81867,278.027,1.03112
206.4000,1.81358,277.942,1.03015
206.3000,1.87887,278.487,1.0363
206.2000,1.54948,278.38,1.03509
206.1000,2.08665,278.508,1.03653
206.0000,2.18985,278.728,1.03901
205.9000,1.90164,278.555,1.03707
205.8000,1.83886,278.864,1.04054
205.7000,1.97629,278.979,1.04183
205.6000,3.09324,278.946,1.04146
205.5000,0.9608,279.236,1.04471
205.4000,2.07404,279.068,1.04283
205.3000,2.7385,279.146,1.04371
205.2000,2.07133,279.591,1.0487
205.1000,1.88652,279.648,1.04934
205.0000,2.32064,279.555,1.0483
204.9000,1.47042,280.16,1.05507
204.8000,2.48724,279.825,1.05133
204.7000,2.61666,280.161,1.05509
204.6000,2.06597,280.274,1.05635
204.5000,1.28422,280.468,1.05852
204.4000,2.02973,280.346,1.05716
204.3000,2.65032,280.797,1.0622
204.2000,2.21699,280.925,1.06363
204.1000,2.37028,280.857,1.06288
204.0000,2.117,281.007,1.06455
203.9000,1.78995,281.254,1.06731
203.8000,3.21521,281.4,1.06894
203.7000,3.03181,281.564,1.07077
203.6000,1.82215,281.908,1.0746
203.5000,2.10005,282.07,1.07641
203.4000,2.31074,282.193,1.07777
203.3000,2.74469,282.091,1.07664
203.2000,1.58752,282.148,1.07727
203.1000,1.90933,282.299,1.07896
203.0000,1.78447,282.362,1.07965
202.9000,2.13756,282.641,1.08275
202.8000,1.693,282.768,1.08417
202.7000,1.99283,282.657,1.08294
202.6000,1.27952,282.768,1.08417
202.5000,2.57739,283.036,1.08714
202.4000,0.846602,283.311,1.0902
202.3000,1.18334,283.505,1.09235
202.2000,2.59583,283.635,1.09379
202.1000,1.53088,283.778,1.09537
202.0000,3.59721,284.113,1.09908
201.9000,2.34498,284.403,1.1023
201.8000,2.3465,284.385,1.10209
201.7000,3.03847,284.639,1.1049
201.6000,1.7994,284.776,1.10642
201.5000,1.20103,284.899,1.10778
201.4000,2.32174,284.913,1.10793
201.3000,1.90038,285.085,1.10982
201.2000,2.43207,285.074,1.10971
201.1000,1.35913,285.4,1.1133
201.0000,1.81717,285.834,1.11809
200.9000,2.75367,285.661,1.11618
200.8000,1.61045,285.997,1.11988
200.7000,2.5334,285.863,1.11841
200.6000,2.98449,286.104,1.12106
200.5000,2.41628,286.138,1.12144
200.4000,2.47904,286.528,1.12572
200.3000,1.56942,286.671,1.12729
200.2000,3.81217,286.884,1.12963
200.1000,2.27814,287.079,1.13177
200.0000,1.94302,287.297,1.13417
199.9000,2.03047,287.264,1.1338
199.8000,3.28633,287.604,1.13753
199.7000,1.97915,287.667,1.13822
199.6000,1.11586,287.746,1.13908
199.5000,1.68751,288.086,1.1428
199.4000,2.73889,288.211,1.14417
199.3000,1.88725,287.997,1.14183
199.2000,3.18919,288.147,1.14347
199.1000,2.67453,288.419,1.14645
199.0000,1.81076,288.388,1.14611
198.9000,2.24365,288.697,1.14948
198.8000,2.77316,288.868,1.15136
198.7000,2.22101,288.646,1.14893
198.6000,1.95539,289.247,1.15548
198.5000,1.53909,289.273,1.15577
198.4000,1.33897,289.344,1.15655
198.3000,1.85976,289.556,1.15885
198.2000,2.15095,289.638,1.15975
198.1000,2.59249,290.011,1.16381
198.0000,1.98883,290.131,1.16511
197.9000,1.47229,290.391,1.16795
197.8000,1.75689,290.273,1.16666
197.7000,1.89835,290.561,1.16979
197.6000,2.56231,290.44,1.16847
197.5000,2.03565,291.095,1.17559
197.4000,1.86474,291.11,1.17575
197.3000,2.34797,291.293,1.17774
197.2000,2.04153,291.116,1.17581
197.1000,2.54184,291.34,1.17824
197.0000,2.7756,291.893,1.18423
196.9000,2.34795,291.693,1.18207
196.8000,0.758284,292.089,1.18635
196.7000,2.6256,292.431,1.19005
196.6000,2.97972,292.471,1.19048
196.5000,2.42382,292.797,1.194
196.4000,1.69431,293.152,1.19783
196.3000,1.38732,293.03,1.19651
196.2000,0.688381,293.416,1.20068
196.1000,1.52121,293.813,1.20496
196.0000,0.724608,294.184,1.20894
195.9000,4.1439,294.248,1.20963
195.8000,1.49255,294.576,1.21316
195.7000,3.59763,294.636,1.2138
195.6000,2.06522,295.369,1.22166
195.5000,1.96352,295.663,1.22481
195.4000,2.3605,295.539,1.22348
195.3000,1.54313,295.761,1.22587
195.2000,1.30576,295.681,1.225
195.1000,2.32697,296.317,1.2318
195.0000,0.73435,296.602,1.23485
194.9000,1.39078,296.651,1.23537
194.8000,0.991364,297.183,1.24106
194.7000,1.18159,297.624,1.24575
194.6000,3.69034,297.793,1.24755
194.5000,2.00691,298.089,1.2507
194.4000,2.76396,298.484,1.2549
194.3000,1.7786,299.074,1.26116
194.2000,1.35166,299.529,1.26598
194.1000,3.28477,299.874,1.26963
194.0000,1.66829,300.427,1.27548
193.9000,3.35303,301.147,1.28308
193.8000,3.07305,301.743,1.28936
193.7000,1.71252,302.208,1.29425
193.6000,1.95945,302.807,1.30055
193.5000,2.72711,303.152,1.30417
193.4000,3.31314,303.449,1.30727
193.3000,0.645547,304.099,1.31408
193.2000,2.3471,304.451,1.31776
193.1000,2.14374,305.031,1.32382
193.0000,0.249914,305.597,1.32971
192.9000,0.762948,306.187,1.33585
192.8000,2.98756,306.74,1.3416
192.7000,2.14402,307.524,1.34973
192.6000,1.50798,308.409,1.3589
192.5000,1.93282,309.518,1.37034
192.4000,0.75911,310.287,1.37826
192.3000,1.99673,310.764,1.38316
192.2000,-0.0953922,311.34,1.38907
192.1000,3.53286,312.128,1.39715
192.0000,2.85277,312.713,1.40313
191.9000,1.20138,313.81,1.41432
191.8000,3.19391,314.683,1.4232
191.7000,-0.535552,315.166,1.42811
191.6000,1.41146,316.426,1.44088
191.5000,2.69045,317.191,1.44862
191.4000,0.0691979,318.084,1.45762
191.3000,1.37567,319.012,1.46696
191.2000,2.22119,320.141,1.47829
191.1000,1.60691,321.638,1.49325
191.0000,2.48444,323.126,1.50808
190.9000,1.21818,324.348,1.52021
190.8000,2.12759,325.94,1.53596
190.7000,1.63543,327.241,1.54878
190.6000,0.47221,328.354,1.55971
190.5000,-0.356605,329.811,1.57397
190.4000,0.965592,331.01,1.58568
190.3000,3.2354,332.111,1.59639
190.2000,1.59962,333.41,1.60899
190.1000,1.80529,334.541,1.61993
190.0000,0.298223,335.941,1.63343

##### Extended Information
[Comments]
Sample name,class
Comment
User
Division
Company,Saint Mary's College

[Detailed Information]
Creation date,9/30/2021 1:36 PM

Data array type,Linear data array * 3
Horizontal axis,Wavelength [nm]
Vertical axis(1),CD [mdeg]
Vertical axis(2),HT [V]
Vertical axis(3),Abs
Start,290 nm
End,190 nm
Data interval,0.1 nm
Data points,1001    

[Measurement Information]
Instrument name,J-1500
Model name,J-1500
Serial number,B051061638


