TITLE,class
DATA TYPE,
ORIGIN,JASCO
OWNER,
DATE,21/09/30
TIME,14:59:27
SPECTROMETER/DATA SYSTEM,
LOCALE,1033
RESOLUTION,
DELTAX,-0.1
XUNITS,NANOMETERS
YUNITS,CD [mdeg]
Y2UNITS,HT [V]
Y3UNITS,ABSORBANCE
FIRSTX,  290.0000
LASTX,  190.0000
NPOINTS,    1001
FIRSTY,     1.19334
MAXY,    12.06601
MINY,    -3.01391
XYDATA
290.0000,1.19334,253.588,0.745079
289.9000,1.2269,253.706,0.746516
289.8000,1.72095,253.507,0.744104
289.7000,1.4939,253.64,0.745717
289.6000,1.47363,253.657,0.745923
289.5000,0.962379,253.654,0.745887
289.4000,1.28093,253.514,0.744188
289.3000,0.954648,253.612,0.745376
289.2000,2.22183,253.513,0.744169
289.1000,1.58484,253.52,0.744251
289.0000,1.47224,253.69,0.746324
288.9000,1.77182,253.683,0.746237
288.8000,1.32925,253.536,0.744446
288.7000,1.02911,253.51,0.74414
288.6000,1.56049,253.523,0.744298
288.5000,2.03722,253.45,0.743409
288.4000,1.53242,253.458,0.743502
288.3000,1.66997,253.42,0.743045
288.2000,1.29586,253.405,0.742861
288.1000,1.48054,253.459,0.743519
288.0000,2.10847,253.688,0.746299
287.9000,2.55066,253.26,0.741095
287.8000,1.6245,253.345,0.742124
287.7000,1.69658,253.529,0.744362
287.6000,1.20704,253.547,0.744579
287.5000,1.95535,253.315,0.741759
287.4000,1.9583,253.372,0.742452
287.3000,1.5308,253.645,0.745776
287.2000,1.4197,253.507,0.744101
287.1000,1.45261,253.244,0.740902
287.0000,1.10364,253.187,0.740207
286.9000,1.94458,253.365,0.742376
286.8000,2.12718,253.301,0.74159
286.7000,1.52389,253.215,0.740547
286.6000,1.72725,252.92,0.736949
286.5000,2.04407,253.299,0.741571
286.4000,1.49545,253.214,0.74053
286.3000,1.24078,253.528,0.744349
286.2000,1.83775,253.293,0.741488
286.1000,1.71132,253.168,0.739965
286.0000,1.67216,253.182,0.740144
285.9000,1.23386,253.124,0.739433
285.8000,1.87878,253.145,0.739685
285.7000,0.530579,253.049,0.738522
285.6000,1.64886,253.127,0.73947
285.5000,1.53282,253.095,0.739079
285.4000,0.864245,253.132,0.739533
285.3000,1.57851,253.28,0.741336
285.2000,1.34248,253.062,0.738685
285.1000,2.39833,253.211,0.740495
285.0000,1.88877,253.328,0.741917
284.9000,1.72181,253.228,0.740706
284.8000,2.01087,253.051,0.738548
284.7000,1.66548,253.061,0.738662
284.6000,1.24351,252.984,0.737728
284.5000,1.87931,253.233,0.740765
284.4000,0.990595,253.115,0.739322
284.3000,1.57137,253.186,0.740188
284.2000,1.849,253.079,0.738893
284.1000,1.69522,252.891,0.736594
284.0000,1.47221,252.977,0.737649
283.9000,1.52012,253,0.737922
283.8000,1.46965,253.061,0.738663
283.7000,1.50941,252.864,0.736265
283.6000,1.06365,253.072,0.738806
283.5000,1.36114,252.961,0.737447
283.4000,1.0461,252.995,0.737859
283.3000,1.35984,253.233,0.740758
283.2000,1.74495,253.08,0.7389
283.1000,1.97917,252.954,0.737365
283.0000,1.54397,252.978,0.737657
282.9000,0.527111,252.819,0.735723
282.8000,0.780664,252.866,0.736288
282.7000,0.601161,252.91,0.73683
282.6000,1.03129,252.825,0.73579
282.5000,1.24227,252.761,0.735011
282.4000,1.87646,252.68,0.734023
282.3000,1.44205,252.921,0.736956
282.2000,1.67544,252.791,0.735378
282.1000,1.44833,252.899,0.736694
282.0000,1.47944,252.793,0.735396
281.9000,1.24189,253.029,0.738273
281.8000,1.15588,252.927,0.737029
281.7000,0.985608,252.704,0.73432
281.6000,1.45657,252.684,0.734077
281.5000,0.876629,252.674,0.733945
281.4000,1.72027,252.745,0.734812
281.3000,1.92774,252.829,0.735844
281.2000,1.55883,252.678,0.734002
281.1000,1.95738,252.795,0.735429
281.0000,2.13769,252.812,0.735632
280.9000,1.62853,252.611,0.733175
280.8000,0.930966,252.726,0.734585
280.7000,1.49625,252.797,0.735455
280.6000,1.68548,252.766,0.73507
280.5000,0.661591,252.626,0.733359
280.4000,1.772,252.591,0.732936
280.3000,1.5049,252.663,0.733811
280.2000,0.846353,252.644,0.733582
280.1000,1.76125,252.785,0.735305
280.0000,1.4288,252.696,0.734222
279.9000,0.941684,252.398,0.730581
279.8000,1.8473,252.608,0.73314
279.7000,0.689881,252.611,0.733177
279.6000,1.01855,252.565,0.732617
279.5000,1.13736,252.301,0.729396
279.4000,0.328208,252.462,0.731364
279.3000,1.30845,252.615,0.733224
279.2000,1.47693,252.415,0.730794
279.1000,1.65656,252.543,0.732354
279.0000,1.72062,252.316,0.72958
278.9000,0.97627,252.516,0.732021
278.8000,1.7956,252.364,0.73017
278.7000,1.41356,252.304,0.729428
278.6000,0.918604,252.527,0.732159
278.5000,1.33991,252.508,0.731924
278.4000,0.145732,252.439,0.731075
278.3000,1.76559,252.362,0.730137
278.2000,1.60803,252.446,0.731171
278.1000,1.22961,252.563,0.732598
278.0000,1.36344,252.514,0.731996
277.9000,0.450985,252.446,0.731163
277.8000,1.3212,252.574,0.732727
277.7000,1.60397,252.7,0.734263
277.6000,1.0404,252.489,0.73169
277.5000,1.22472,252.515,0.732006
277.4000,1.187,252.373,0.730278
277.3000,1.21498,252.39,0.730482
277.2000,1.80159,252.418,0.730824
277.1000,1.00854,252.471,0.731476
277.0000,1.20785,252.431,0.730979
276.9000,0.834404,252.465,0.731393
276.8000,0.95252,252.567,0.732644
276.7000,0.389336,252.284,0.729188
276.6000,0.953915,252.379,0.730352
276.5000,1.19763,252.297,0.729353
276.4000,1.05953,252.377,0.73033
276.3000,0.565559,252.253,0.72881
276.2000,1.75586,252.424,0.730898
276.1000,0.99701,252.225,0.728468
276.0000,1.05574,252.19,0.728045
275.9000,1.81907,252.153,0.727583
275.8000,1.25614,252.133,0.727344
275.7000,1.36592,252.147,0.727513
275.6000,0.303875,252.11,0.727064
275.5000,1.21181,252.331,0.729763
275.4000,0.93238,252.327,0.72972
275.3000,1.14061,252.232,0.728557
275.2000,1.68263,252.295,0.729325
275.1000,1.36024,252.228,0.728509
275.0000,1.73164,252.015,0.725904
274.9000,1.1474,252.157,0.727633
274.8000,1.25412,252.188,0.728017
274.7000,1.49561,252.164,0.727727
274.6000,1.7183,252.087,0.726787
274.5000,1.65705,252.048,0.726309
274.4000,0.977141,252.038,0.726181
274.3000,1.39412,251.879,0.724238
274.2000,1.77138,251.954,0.725161
274.1000,1.24302,251.959,0.725215
274.0000,1.31539,252.132,0.72733
273.9000,0.863839,251.734,0.722468
273.8000,1.19823,252.007,0.725799
273.7000,0.545021,251.51,0.719719
273.6000,1.7589,252.098,0.726915
273.5000,0.941131,252.241,0.728665
273.4000,1.89475,252.06,0.726447
273.3000,1.12632,251.808,0.723367
273.2000,0.967784,251.944,0.725034
273.1000,1.07836,252.095,0.726879
273.0000,1.45191,251.973,0.725386
272.9000,1.20982,251.931,0.72488
272.8000,1.52653,252.19,0.728036
272.7000,-0.302011,252.085,0.726754
272.6000,1.33112,252.041,0.72622
272.5000,1.35406,251.853,0.723915
272.4000,1.35932,251.983,0.725514
272.3000,1.08698,252.118,0.727164
272.2000,1.07002,251.939,0.724967
272.1000,1.39985,252.237,0.728611
272.0000,1.37793,251.852,0.723911
271.9000,0.753799,252.121,0.727202
271.8000,0.33572,252.072,0.726595
271.7000,1.5216,252.235,0.728587
271.6000,0.440265,252.149,0.727539
271.5000,1.21738,251.947,0.725074
271.4000,1.20538,251.829,0.723621
271.3000,0.998093,252.267,0.728977
271.2000,1.02113,252.046,0.726278
271.1000,1.27088,252.35,0.729991
271.0000,1.36742,251.816,0.723472
270.9000,0.838152,252.11,0.727066
270.8000,1.07742,252.435,0.731037
270.7000,0.906504,252.173,0.727837
270.6000,1.00908,251.96,0.725226
270.5000,0.417304,252.005,0.725774
270.4000,0.99627,252.207,0.728242
270.3000,0.947367,251.912,0.724647
270.2000,1.60575,251.917,0.724702
270.1000,1.01202,252.148,0.727526
270.0000,0.866001,252.238,0.728629
269.9000,0.680984,251.942,0.725008
269.8000,0.556451,251.825,0.723575
269.7000,1.10477,252.11,0.727068
269.6000,0.674923,252.347,0.729957
269.5000,0.801646,252.042,0.726226
269.4000,1.3057,252.054,0.726384
269.3000,1.57514,252.176,0.727873
269.2000,0.987231,252.064,0.726503
269.1000,1.53868,251.982,0.725498
269.0000,1.07984,252.202,0.728188
268.9000,1.68613,252.145,0.727491
268.8000,0.654411,252.203,0.728202
268.7000,0.649297,252.035,0.726146
268.6000,0.979899,252.113,0.727099
268.5000,1.44386,252.151,0.727569
268.4000,1.07001,252.215,0.728348
268.3000,0.767146,252.201,0.728175
268.2000,0.953218,252.371,0.730256
268.1000,1.29207,251.77,0.7229
268.0000,1.28119,252.121,0.727197
267.9000,0.995313,252.122,0.727204
267.8000,0.621181,252.134,0.727354
267.7000,0.575241,252.284,0.729188
267.6000,1.56006,251.99,0.725591
267.5000,0.466306,252.112,0.72709
267.4000,1.3289,252.248,0.728752
267.3000,1.24184,251.933,0.724902
267.2000,0.284225,252.217,0.728375
267.1000,0.691489,252.425,0.730914
267.0000,2.04759,252.042,0.726236
266.9000,1.66059,252.411,0.730742
266.8000,0.430494,252.236,0.728597
266.7000,0.784194,252.167,0.727763
266.6000,0.479646,252.217,0.728368
266.5000,0.629221,252.397,0.730567
266.4000,0.613893,252.321,0.729645
266.3000,0.411136,252.3,0.729388
266.2000,1.36989,252.292,0.729282
266.1000,0.842602,252.121,0.727196
266.0000,1.0205,252.476,0.731533
265.9000,1.21766,252.491,0.731718
265.8000,1.06612,252.533,0.73223
265.7000,0.713368,252.492,0.731724
265.6000,0.752245,252.47,0.731461
265.5000,0.97027,252.513,0.731989
265.4000,0.969925,252.579,0.732787
265.3000,0.358507,252.533,0.732234
265.2000,-0.0854163,252.466,0.731411
265.1000,1.22282,252.263,0.728931
265.0000,1.0058,252.659,0.73377
264.9000,0.436654,252.272,0.729042
264.8000,0.734408,252.518,0.732049
264.7000,1.2826,252.36,0.730119
264.6000,0.799361,252.577,0.732763
264.5000,0.97473,252.878,0.736437
264.4000,0.90589,252.672,0.733929
264.3000,1.28104,252.633,0.733455
264.2000,1.3162,252.571,0.732698
264.1000,1.27724,252.658,0.733754
264.0000,1.05884,252.693,0.734183
263.9000,0.941008,252.57,0.732684
263.8000,0.315767,252.801,0.735498
263.7000,0.349025,252.486,0.731661
263.6000,0.988129,252.324,0.729673
263.5000,0.626745,252.692,0.734165
263.4000,0.414215,252.668,0.733881
263.3000,0.107312,253.181,0.740135
263.2000,1.0188,252.69,0.734139
263.1000,1.35043,252.722,0.734529
263.0000,1.17394,252.801,0.735502
262.9000,0.657387,252.982,0.73771
262.8000,0.240673,252.933,0.737107
262.7000,1.41046,252.912,0.736847
262.6000,0.858133,252.981,0.737689
262.5000,1.18085,253.019,0.738159
262.4000,0.834322,253.085,0.738964
262.3000,1.01489,252.847,0.736058
262.2000,0.741723,253.116,0.739337
262.1000,0.790625,252.875,0.7364
262.0000,1.05388,253.145,0.739692
261.9000,1.38941,253.033,0.738332
261.8000,0.802755,253.127,0.73947
261.7000,-0.390036,252.894,0.736634
261.6000,0.960348,253.083,0.738939
261.5000,0.600108,253.157,0.739841
261.4000,1.31166,252.848,0.736072
261.3000,1.37605,252.936,0.737147
261.2000,0.491543,253.266,0.741171
261.1000,0.6335,253.454,0.743458
261.0000,0.850308,253.469,0.743636
260.9000,0.90584,253.199,0.740349
260.8000,0.916861,253.225,0.740669
260.7000,0.022662,253.147,0.73972
260.6000,1.15338,253.313,0.741731
260.5000,0.850144,253.444,0.743333
260.4000,1.22093,253.235,0.740788
260.3000,0.496293,253.324,0.741872
260.2000,0.795613,253.261,0.7411
260.1000,0.573994,253.464,0.743574
260.0000,1.31867,253.25,0.740974
259.9000,0.899099,253.569,0.744848
259.8000,0.0114946,253.239,0.740832
259.7000,0.295278,253.667,0.746045
259.6000,0.724887,253.505,0.744068
259.5000,0.146896,253.581,0.745002
259.4000,0.686406,253.759,0.747159
259.3000,1.34115,253.553,0.744662
259.2000,0.161498,253.651,0.745845
259.1000,0.42103,253.663,0.746
259.0000,0.715145,253.532,0.744402
258.9000,0.754945,253.496,0.743967
258.8000,1.50391,253.694,0.746378
258.7000,0.955365,253.888,0.748729
258.6000,0.733786,253.421,0.743047
258.5000,0.906129,253.179,0.740101
258.4000,1.20057,254.22,0.752761
258.3000,0.527309,253.81,0.747786
258.2000,0.946296,254.188,0.752376
258.1000,0.938338,253.686,0.746272
258.0000,1.37233,253.992,0.749989
257.9000,0.994601,254.137,0.75175
257.8000,0.765452,254.013,0.750255
257.7000,0.736366,253.996,0.750038
257.6000,1.58185,253.977,0.749806
257.5000,1.25105,253.99,0.749974
257.4000,0.809447,253.879,0.748618
257.3000,1.2683,254.081,0.751075
257.2000,1.18094,254.146,0.75187
257.1000,1.52146,254.195,0.752454
257.0000,0.197085,254.284,0.753545
256.9000,1.96151,254.035,0.750522
256.8000,0.193364,254.157,0.752003
256.7000,1.26985,254.066,0.750899
256.6000,0.958788,254.187,0.752357
256.5000,0.563023,254.271,0.753384
256.4000,0.820023,254.095,0.751249
256.3000,0.902855,254.489,0.756026
256.2000,0.933111,254.658,0.75807
256.1000,1.06434,254.258,0.753229
256.0000,1.45829,254.187,0.752368
255.9000,1.07821,254.411,0.755075
255.8000,0.939665,254.6,0.757367
255.7000,0.461594,254.562,0.756907
255.6000,1.02574,254.52,0.756407
255.5000,0.322283,254.33,0.754096
255.4000,0.907409,254.588,0.757222
255.3000,0.81172,254.791,0.759689
255.2000,2.01399,254.503,0.756195
255.1000,0.976064,254.343,0.754252
255.0000,1.44117,254.403,0.754979
254.9000,0.901712,254.594,0.757296
254.8000,0.799918,254.414,0.755112
254.7000,1.31618,254.843,0.760322
254.6000,0.723494,254.788,0.759653
254.5000,0.54013,254.545,0.7567
254.4000,0.370923,254.886,0.760843
254.3000,0.365078,254.631,0.757748
254.2000,0.79288,254.734,0.758991
254.1000,0.367365,254.788,0.759653
254.0000,1.12855,254.858,0.760504
253.9000,0.70653,254.856,0.760475
253.8000,1.27045,254.593,0.757292
253.7000,1.48327,254.902,0.761029
253.6000,0.953687,254.989,0.762086
253.5000,1.12481,254.951,0.761622
253.4000,1.4436,255.092,0.763329
253.3000,1.31984,254.915,0.76119
253.2000,1.09846,255.093,0.763348
253.1000,0.921444,254.986,0.762055
253.0000,1.1554,254.745,0.75913
252.9000,0.78377,255.013,0.762375
252.8000,1.23505,254.846,0.760355
252.7000,0.138999,255.063,0.762983
252.6000,0.876332,255.173,0.764308
252.5000,-0.090802,255.018,0.762434
252.4000,0.501469,255.27,0.76549
252.3000,0.560247,255.285,0.765667
252.2000,-0.0481744,255.224,0.764933
252.1000,0.764556,255.319,0.766077
252.0000,1.22591,255.423,0.767339
251.9000,0.940886,255.415,0.767243
251.8000,1.56334,255.116,0.763627
251.7000,1.23493,255.281,0.765624
251.6000,1.18949,255.151,0.764041
251.5000,1.15486,255.302,0.765877
251.4000,1.10639,255.532,0.768656
251.3000,0.43479,255.257,0.765333
251.2000,0.972473,255.362,0.766604
251.1000,0.794334,255.425,0.767359
251.0000,0.745905,255.448,0.767639
250.9000,1.34128,255.272,0.765507
250.8000,0.792188,255.236,0.765079
250.7000,0.594054,255.455,0.767721
250.6000,0.943564,255.638,0.769936
250.5000,1.27328,255.46,0.767784
250.4000,1.7275,255.364,0.76662
250.3000,1.28132,255.271,0.765498
250.2000,1.76183,255.444,0.767589
250.1000,0.6864,255.517,0.768467
250.0000,1.24789,255.441,0.767551
249.9000,0.967813,255.459,0.767771
249.8000,0.821722,255.668,0.770298
249.7000,0.969534,255.532,0.768651
249.6000,0.6428,255.461,0.767792
249.5000,1.08082,255.384,0.766869
249.4000,0.976657,255.441,0.767558
249.3000,0.419248,255.391,0.766944
249.2000,0.969003,255.239,0.765113
249.1000,0.417515,255.622,0.769747
249.0000,1.21901,255.513,0.768429
248.9000,0.986359,255.409,0.767166
248.8000,0.874908,255.36,0.766577
248.7000,1.40249,255.603,0.769516
248.6000,0.834453,255.548,0.768849
248.5000,1.1618,255.355,0.766511
248.4000,1.53713,255.219,0.764874
248.3000,0.447345,255.346,0.766407
248.2000,0.833239,255.29,0.765732
248.1000,1.20848,255.299,0.765838
248.0000,1.21572,255.232,0.765031
247.9000,1.33529,255.425,0.767358
247.8000,0.624131,255.267,0.76545
247.7000,1.56214,255.152,0.764053
247.6000,0.869707,255.177,0.764359
247.5000,1.26244,255.394,0.766986
247.4000,1.67256,255.627,0.769797
247.3000,0.734098,255.568,0.769084
247.2000,0.238197,255.405,0.767121
247.1000,0.135762,255.49,0.768147
247.0000,1.45556,255.56,0.768991
246.9000,0.605642,255.875,0.772795
246.8000,1.58973,255.739,0.77115
246.7000,0.771126,255.856,0.772568
246.6000,0.337309,255.854,0.772549
246.5000,1.04876,255.658,0.770179
246.4000,0.872456,255.919,0.773324
246.3000,0.892958,256.03,0.774663
246.2000,1.05,255.837,0.772345
246.1000,0.860864,255.759,0.771402
246.0000,0.536883,255.657,0.770168
245.9000,0.34718,255.861,0.77263
245.8000,1.07339,256.007,0.774396
245.7000,0.747404,255.661,0.770213
245.6000,1.73918,255.874,0.772784
245.5000,0.801419,255.985,0.774127
245.4000,1.31729,256.028,0.774642
245.3000,1.34566,255.881,0.772869
245.2000,1.64744,256.092,0.775414
245.1000,0.780659,255.921,0.773359
245.0000,0.292734,256.102,0.775532
244.9000,1.02378,255.857,0.772583
244.8000,0.521448,256.043,0.774828
244.7000,0.991915,256.17,0.776353
244.6000,1.21115,256.419,0.779364
244.5000,0.408423,256.428,0.779471
244.4000,1.53615,255.97,0.773949
244.3000,1.71185,255.982,0.774094
244.2000,0.438478,256.305,0.777985
244.1000,1.02813,256.378,0.778864
244.0000,0.621594,255.819,0.772123
243.9000,0.810219,256.057,0.774995
243.8000,0.832141,256.011,0.774436
243.7000,1.24504,256.244,0.777251
243.6000,0.606003,256.146,0.776073
243.5000,0.425588,256.431,0.779508
243.4000,0.404056,256.363,0.77868
243.3000,1.43418,256.351,0.778536
243.2000,0.705632,256.402,0.779161
243.1000,0.344565,256.26,0.777448
243.0000,0.505229,255.975,0.774
242.9000,0.234666,256.414,0.7793
242.8000,1.05267,255.952,0.773726
242.7000,0.857774,256.474,0.78002
242.6000,0.307837,256.002,0.774326
242.5000,0.922233,256.095,0.775456
242.4000,0.936029,256.309,0.778039
242.3000,1.25111,256.433,0.779528
242.2000,0.715272,256.249,0.777309
242.1000,0.651365,256.519,0.780561
242.0000,0.510669,256.454,0.779785
241.9000,-0.0361758,256.414,0.779301
241.8000,0.132098,256.351,0.778536
241.7000,0.443734,256.407,0.779212
241.6000,0.939204,256.566,0.781126
241.5000,0.284877,256.635,0.781958
241.4000,0.848373,256.719,0.782977
241.3000,0.58422,256.895,0.785096
241.2000,0.852243,256.668,0.782354
241.1000,1.53815,257.125,0.787853
241.0000,0.516813,256.88,0.784911
240.9000,0.666289,256.639,0.782015
240.8000,0.784702,256.981,0.786123
240.7000,0.714918,256.987,0.786203
240.6000,0.128286,256.963,0.785914
240.5000,0.524541,256.725,0.783043
240.4000,1.10958,256.94,0.785632
240.3000,0.030308,257.023,0.786634
240.2000,0.963627,257.112,0.787698
240.1000,0.23791,257.08,0.787318
240.0000,0.792325,257.178,0.788496
239.9000,1.13549,257.167,0.788362
239.8000,0.0625544,257.167,0.788359
239.7000,0.997155,257.335,0.79038
239.6000,1.14576,257.261,0.789488
239.5000,0.752263,257.286,0.789795
239.4000,0.30792,257.274,0.789651
239.3000,-0.118844,257.554,0.793012
239.2000,-0.375518,257.544,0.792897
239.1000,1.13562,257.553,0.793005
239.0000,0.247099,257.616,0.793758
238.9000,0.131613,257.501,0.792373
238.8000,0.447272,258.077,0.799293
238.7000,0.157374,257.975,0.79806
238.6000,0.547997,257.8,0.795969
238.5000,0.159508,257.801,0.795984
238.4000,-0.0744124,258.011,0.7985
238.3000,0.621594,258.192,0.800668
238.2000,0.813228,258.21,0.800886
238.1000,0.486127,258.317,0.802162
238.0000,0.677626,258.418,0.803376
237.9000,-0.257112,258.28,0.801718
237.8000,0.0807483,258.32,0.802205
237.7000,0.333232,258.583,0.805348
237.6000,-0.554406,258.628,0.805885
237.5000,0.0404779,258.807,0.808034
237.4000,0.849636,258.449,0.803743
237.3000,0.117797,258.716,0.806945
237.2000,0.32779,258.753,0.807388
237.1000,0.67125,258.688,0.80661
237.0000,0.36216,258.776,0.80766
236.9000,1.20308,258.673,0.806422
236.8000,0.352177,259.049,0.810926
236.7000,0.485038,258.643,0.80607
236.6000,0.65099,258.923,0.809418
236.5000,0.110786,259.021,0.81059
236.4000,-0.206939,258.825,0.808247
236.3000,0.468976,258.893,0.80906
236.2000,0.295819,259.118,0.811746
236.1000,-0.100917,259.386,0.81495
236.0000,0.416776,258.923,0.809415
235.9000,-0.383314,259.25,0.81333
235.8000,0.763571,259.328,0.814257
235.7000,-0.347495,259.268,0.813542
235.6000,0.00703507,259.516,0.816498
235.5000,-0.00604181,259.574,0.817186
235.4000,-0.232452,259.846,0.82043
235.3000,-0.299169,259.704,0.818745
235.2000,0.715827,260.203,0.824689
235.1000,0.410177,259.957,0.821762
235.0000,0.105977,259.958,0.821766
234.9000,-0.463987,260.01,0.822392
234.8000,-0.612333,260.165,0.824234
234.7000,0.109939,260.038,0.822723
234.6000,-0.0934217,260.314,0.826014
234.5000,-0.463497,260.388,0.826893
234.4000,0.104752,260.497,0.828181
234.3000,-0.138455,260.522,0.828479
234.2000,0.465877,260.473,0.827905
234.1000,0.0360494,260.688,0.830453
234.0000,-0.0625498,260.804,0.831832
233.9000,1.0535,260.829,0.832137
233.8000,0.0812474,260.662,0.83015
233.7000,-0.469262,260.821,0.832044
233.6000,-0.184405,260.94,0.833456
233.5000,0.0225213,260.855,0.832438
233.4000,-0.131882,260.781,0.831565
233.3000,0.123973,261.374,0.838607
233.2000,-0.260259,261.476,0.839817
233.1000,0.0391603,261.319,0.837957
233.0000,0.167601,261.272,0.8374
232.9000,-1.18387,261.608,0.841384
232.8000,-0.0931306,261.499,0.840089
232.7000,-0.884987,261.767,0.843259
232.6000,-0.36544,261.793,0.843573
232.5000,-1.1937,261.921,0.845092
232.4000,-0.261932,261.722,0.84273
232.3000,-0.601138,261.81,0.843769
232.2000,-0.916681,261.934,0.845237
232.1000,-0.767419,261.99,0.845903
232.0000,-0.160578,262.191,0.848286
231.9000,-0.0709291,262.398,0.850733
231.8000,-0.774009,262.272,0.849244
231.7000,-0.555967,262.457,0.851435
231.6000,-0.114406,262.635,0.853531
231.5000,-0.546872,262.556,0.852598
231.4000,0.0617261,262.629,0.853467
231.3000,-0.154493,262.508,0.852035
231.2000,-0.4111,262.712,0.85444
231.1000,-0.190019,262.695,0.854237
231.0000,-0.382387,262.719,0.854525
230.9000,-1.25967,262.676,0.85402
230.8000,-1.58837,262.813,0.855632
230.7000,-0.97394,263.026,0.858144
230.6000,-1.41046,263.137,0.859457
230.5000,-0.697056,262.939,0.857119
230.4000,-0.954011,262.909,0.856773
230.3000,-1.59196,262.744,0.854818
230.2000,-1.3174,262.929,0.857001
230.1000,-0.919591,262.859,0.856179
230.0000,-0.787818,263.02,0.858077
229.9000,-0.989776,262.781,0.855252
229.8000,-0.947504,262.815,0.855659
229.7000,-0.555157,262.837,0.855914
229.6000,-0.708224,262.733,0.854694
229.5000,-1.93124,262.847,0.856032
229.4000,-1.24564,263.024,0.858127
229.3000,-0.442861,263.105,0.859081
229.2000,-0.717169,263.229,0.86054
229.1000,-0.814445,263.353,0.862012
229.0000,-1.10756,263.605,0.864976
228.9000,-1.68719,263.902,0.868473
228.8000,-1.29302,263.974,0.869318
228.7000,-1.44378,264.218,0.87219
228.6000,-2.19552,264.184,0.871789
228.5000,-0.569724,264.242,0.872466
228.4000,-1.27672,264.528,0.87583
228.3000,-1.81205,264.454,0.874964
228.2000,-1.69977,264.638,0.877125
228.1000,-1.22055,264.846,0.879571
228.0000,-1.92369,265.016,0.881558
227.9000,-0.765031,264.981,0.881148
227.8000,-2.32181,265.167,0.883333
227.7000,-1.92332,265.26,0.884418
227.6000,-1.4943,265.408,0.886149
227.5000,-0.0981283,265.187,0.883558
227.4000,-1.64042,265.495,0.887168
227.3000,-1.2688,265.622,0.888654
227.2000,-1.14839,265.466,0.886836
227.1000,-1.16221,265.31,0.885008
227.0000,-1.58544,265.485,0.887052
226.9000,-0.440461,265.953,0.892531
226.8000,-1.63765,265.839,0.891202
226.7000,-3.01391,265.805,0.890794
226.6000,-2.11568,266.139,0.894701
226.5000,-1.97011,266.49,0.898805
226.4000,-1.59757,266.23,0.895765
226.3000,-1.17966,266.134,0.894651
226.2000,-1.94727,266.146,0.894791
226.1000,-1.9375,266.434,0.898145
226.0000,-0.831068,266.615,0.900265
225.9000,-1.4463,267.153,0.906539
225.8000,-0.728629,266.634,0.900481
225.7000,-1.63505,266.627,0.900402
225.6000,-2.1605,266.84,0.902884
225.5000,-1.95495,266.961,0.904297
225.4000,-1.79818,267.167,0.906704
225.3000,-2.29796,267.115,0.906098
225.2000,-2.41498,267.032,0.905121
225.1000,-1.00889,267.654,0.912371
225.0000,-0.54535,267.801,0.914071
224.9000,-1.42232,267.538,0.911023
224.8000,-2.4135,267.869,0.914864
224.7000,-2.19143,267.603,0.91178
224.6000,-1.33202,267.67,0.912551
224.5000,-2.01117,267.87,0.914879
224.4000,-1.62085,267.801,0.914074
224.3000,-2.1972,267.674,0.912596
224.2000,-2.64079,268.024,0.916672
224.1000,-1.9287,267.866,0.914837
224.0000,-2.15261,267.968,0.91602
223.9000,-2.68751,268.104,0.917593
223.8000,-1.77015,268.204,0.918758
223.7000,-2.46488,268.588,0.92322
223.6000,-1.58874,268.382,0.920825
223.5000,-1.59506,268.301,0.91989
223.4000,-1.10167,268.55,0.922769
223.3000,-2.5449,268.431,0.921399
223.2000,-0.975344,268.968,0.927622
223.1000,-1.3883,268.891,0.926728
223.0000,-1.45384,269.029,0.928326
222.9000,-2.67759,269.063,0.928723
222.8000,-2.79274,269.236,0.930722
222.7000,-2.60769,269.502,0.9338
222.6000,-1.72312,269.383,0.932425
222.5000,-2.1316,269.453,0.933238
222.4000,-2.84546,269.136,0.92957
222.3000,-1.94069,269.487,0.933623
222.2000,-2.16134,269.496,0.933736
222.1000,-1.1914,269.861,0.937953
222.0000,-1.66485,269.316,0.931646
221.9000,-0.591489,269.83,0.93759
221.8000,-1.45979,269.821,0.937489
221.7000,-1.03671,269.956,0.939052
221.6000,-1.6093,270.12,0.940938
221.5000,-1.67685,269.973,0.93924
221.4000,-1.49737,270.137,0.941135
221.3000,-2.41306,270.393,0.944088
221.2000,-1.56688,270.6,0.946474
221.1000,-1.55153,270.449,0.944738
221.0000,-2.18268,269.815,0.937417
220.9000,-2.57917,270.569,0.946121
220.8000,-2.44038,270.625,0.946762
220.7000,-0.853325,270.562,0.946039
220.6000,-2.03591,270.571,0.946137
220.5000,-2.3768,270.806,0.948853
220.4000,-2.12381,270.903,0.949966
220.3000,-2.31699,270.885,0.949758
220.2000,-2.25361,270.827,0.949096
220.1000,-2.47753,270.883,0.949739
220.0000,-2.03405,271.388,0.955543
219.9000,-1.95418,271.41,0.955797
219.8000,-0.854017,271.103,0.952267
219.7000,-1.08963,271.459,0.956363
219.6000,-1.50071,271.404,0.95573
219.5000,-1.03109,271.543,0.957334
219.4000,-1.43884,271.355,0.955168
219.3000,-1.68355,271.408,0.955775
219.2000,-1.41361,271.567,0.957608
219.1000,-2.45085,271.426,0.955987
219.0000,-1.26777,271.716,0.959316
218.9000,-1.80772,271.864,0.961015
218.8000,-1.65158,271.891,0.961323
218.7000,-1.37136,271.829,0.960616
218.6000,-1.59316,272.191,0.964768
218.5000,-1.58339,271.918,0.961632
218.4000,-1.17382,271.837,0.960702
218.3000,-1.19713,272.301,0.966035
218.2000,-0.91723,272.001,0.962589
218.1000,-1.58694,272.057,0.96323
218.0000,-1.20959,272.652,0.970055
217.9000,-1.69452,272.717,0.970794
217.8000,-1.64418,272.556,0.968951
217.7000,-1.88766,272.455,0.967801
217.6000,-1.75735,272.921,0.973136
217.5000,-1.17613,272.649,0.97002
217.4000,-1.83148,273.017,0.974232
217.3000,-1.72703,273.101,0.975191
217.2000,-1.24346,273.251,0.976906
217.1000,-1.26494,273.458,0.979277
217.0000,-1.58149,273.233,0.976697
216.9000,-2.33229,273.334,0.977859
216.8000,-2.17363,273.568,0.980533
216.7000,-1.90659,273.417,0.978809
216.6000,-0.882387,273.438,0.97905
216.5000,-1.42835,273.78,0.982945
216.4000,-1.13796,273.764,0.982766
216.3000,-1.53361,273.64,0.981347
216.2000,-1.48641,274.042,0.985941
216.1000,-1.90893,274.036,0.985876
216.0000,-2.0571,274.138,0.987036
215.9000,-2.67933,274.438,0.990452
215.8000,-2.68227,274.206,0.987811
215.7000,-1.95356,273.99,0.985341
215.6000,-2.31721,274.262,0.988452
215.5000,-2.67917,274.404,0.990061
215.4000,-1.92184,274.396,0.989978
215.3000,-1.27279,274.421,0.990255
215.2000,-0.604816,274.626,0.9926
215.1000,-1.32788,274.61,0.992415
215.0000,-2.1236,274.56,0.99184
214.9000,-1.7876,274.611,0.99242
214.8000,-1.21369,274.669,0.993079
214.7000,-1.4902,274.854,0.995192
214.6000,-2.42105,274.799,0.994564
214.5000,-1.20776,274.948,0.996255
214.4000,-1.98946,274.785,0.994399
214.3000,-2.23465,274.935,0.996114
214.2000,-2.75162,275.13,0.998323
214.1000,-0.974434,275.298,1.00024
214.0000,-1.13768,275.196,0.999078
213.9000,-2.34273,275.478,1.00228
213.8000,-1.40802,275.482,1.00233
213.7000,-0.842752,275.403,1.00143
213.6000,-0.604043,275.344,1.00076
213.5000,-0.806432,275.439,1.00183
213.4000,-0.959418,275.778,1.00569
213.3000,-1.44735,275.765,1.00554
213.2000,-1.60853,275.657,1.00432
213.1000,-1.85158,275.261,0.999819
213.0000,0.084545,275.944,1.00757
212.9000,-1.46943,275.806,1.006
212.8000,-1.79614,276.155,1.00996
212.7000,-1.49987,276.349,1.01216
212.6000,-2.28127,276.214,1.01063
212.5000,-2.56253,276.416,1.01292
212.4000,-2.14549,276.027,1.00851
212.3000,-1.78161,276.285,1.01144
212.2000,-1.62594,276.494,1.0138
212.1000,-2.04774,276.362,1.0123
212.0000,-1.36338,276.784,1.01708
211.9000,-1.69412,277.068,1.02029
211.8000,-0.752504,277.05,1.02009
211.7000,-1.71502,277.099,1.02065
211.6000,-2.64692,277.248,1.02233
211.5000,-1.51148,277.201,1.02179
211.4000,-1.27065,277.088,1.02053
211.3000,-1.15984,277.579,1.02607
211.2000,-1.4335,277.637,1.02672
211.1000,-1.35474,277.651,1.02688
211.0000,-2.90524,277.676,1.02716
210.9000,-1.32373,277.645,1.02681
210.8000,-1.98149,277.732,1.02779
210.7000,-1.94405,278.028,1.03112
210.6000,-1.88138,277.882,1.02948
210.5000,-1.84869,278.196,1.03302
210.4000,-2.30234,278.099,1.03193
210.3000,-2.54578,278.139,1.03238
210.2000,-1.76402,278.378,1.03508
210.1000,-1.39333,278.554,1.03705
210.0000,-1.45829,278.536,1.03685
209.9000,-1.37315,278.8,1.03982
209.8000,-1.66324,278.777,1.03956
209.7000,-2.2861,278.811,1.03994
209.6000,-1.55641,279.2,1.04431
209.5000,-2.08977,279.386,1.04641
209.4000,-2.39012,279.701,1.04994
209.3000,-1.41839,279.817,1.05124
209.2000,-1.79489,279.476,1.04742
209.1000,-2.11559,279.719,1.05014
209.0000,-2.64124,280.007,1.05336
208.9000,-1.62672,279.894,1.0521
208.8000,-1.45219,280.077,1.05415
208.7000,-2.18973,279.969,1.05294
208.6000,-0.817527,280.003,1.05332
208.5000,-1.86476,280.306,1.05672
208.4000,-0.515739,280.482,1.05868
208.3000,-1.22704,280.502,1.0589
208.2000,-1.08147,280.631,1.06034
208.1000,-1.84357,280.659,1.06066
208.0000,-0.920209,280.822,1.06248
207.9000,-1.91633,281.087,1.06544
207.8000,-1.04777,281.424,1.06921
207.7000,-1.91359,281.53,1.07039
207.6000,-0.0344693,281.313,1.06797
207.5000,-1.99835,281.416,1.06912
207.4000,-1.58735,281.854,1.074
207.3000,-0.902791,281.929,1.07484
207.2000,-1.94711,281.799,1.07339
207.1000,-0.717396,282.016,1.0758
207.0000,-0.71425,282.037,1.07604
206.9000,-1.15082,282.302,1.07898
206.8000,-1.0352,282.218,1.07805
206.7000,-0.622075,282.824,1.08479
206.6000,-0.464779,282.748,1.08394
206.5000,-1.86026,283.031,1.08709
206.4000,-0.611306,283.165,1.08858
206.3000,-0.859319,283.146,1.08837
206.2000,-0.457748,283.426,1.09148
206.1000,-0.181871,283.527,1.09259
206.0000,-0.0160754,283.581,1.0932
205.9000,-0.894131,283.959,1.09738
205.8000,-1.48538,284.099,1.09894
205.7000,-0.702364,284.216,1.10022
205.6000,0.243422,284.311,1.10127
205.5000,-0.0220938,284.271,1.10083
205.4000,-0.156424,284.638,1.10489
205.3000,-1.27535,284.907,1.10786
205.2000,-1.18705,284.922,1.10803
205.1000,-0.818873,285.236,1.11149
205.0000,0.648394,285.723,1.11686
204.9000,-0.705076,285.532,1.11476
204.8000,0.0820332,285.837,1.11812
204.7000,-0.0310453,285.976,1.11965
204.6000,0.236713,286.137,1.12142
204.5000,-0.526055,286.588,1.12638
204.4000,0.267409,286.725,1.12788
204.3000,-0.254337,286.549,1.12595
204.2000,-0.321924,286.566,1.12614
204.1000,-0.01444,287.336,1.13459
204.0000,-0.429809,287.578,1.13724
203.9000,0.276784,287.502,1.13641
203.8000,-0.1809,287.84,1.14011
203.7000,1.48929,288.228,1.14436
203.6000,1.41343,288.358,1.14578
203.5000,0.477672,288.063,1.14256
203.4000,0.275423,288.677,1.14927
203.3000,0.942038,288.741,1.14996
203.2000,0.402882,289.001,1.15281
203.1000,1.08066,289.074,1.1536
203.0000,1.63988,289.159,1.15452
202.9000,1.10313,289.597,1.1593
202.8000,1.44013,289.643,1.1598
202.7000,1.97311,290.019,1.16389
202.6000,-0.0708307,290.061,1.16435
202.5000,2.15685,290.502,1.16914
202.4000,3.69373,290.425,1.16831
202.3000,2.33435,290.566,1.16985
202.2000,2.32069,290.898,1.17344
202.1000,3.78035,291.291,1.17771
202.0000,2.24759,291.417,1.17907
201.9000,2.03536,291.801,1.18324
201.8000,1.93145,292.012,1.18552
201.7000,2.63515,292.565,1.1915
201.6000,2.80863,292.526,1.19108
201.5000,2.15092,292.831,1.19437
201.4000,2.08299,292.882,1.19491
201.3000,2.63148,292.992,1.1961
201.2000,3.78219,293.315,1.19959
201.1000,2.09346,293.58,1.20245
201.0000,3.51187,293.903,1.20592
200.9000,3.72236,294.239,1.20954
200.8000,3.53658,294.354,1.21077
200.7000,2.36929,294.443,1.21173
200.6000,3.35965,295.116,1.21896
200.5000,4.50214,295.338,1.22133
200.4000,4.23033,295.38,1.22178
200.3000,3.75336,295.551,1.22361
200.2000,4.46127,295.959,1.22798
200.1000,5.06102,296.277,1.23138
200.0000,4.73347,296.458,1.23332
199.9000,4.55613,296.646,1.23532
199.8000,5.62645,297.011,1.23922
199.7000,4.24412,297.272,1.24201
199.6000,5.50419,297.788,1.2475
199.5000,5.29964,297.636,1.24588
199.4000,5.55495,297.701,1.24657
199.3000,4.45312,298.063,1.25042
199.2000,5.70254,298.165,1.25151
199.1000,5.5238,298.485,1.2549
199.0000,5.96281,298.531,1.25539
198.9000,6.94596,298.781,1.25805
198.8000,6.66614,299.037,1.26077
198.7000,5.92987,299.556,1.26626
198.6000,6.51317,299.548,1.26619
198.5000,6.41469,299.635,1.2671
198.4000,6.41419,300.261,1.27373
198.3000,7.11389,300.617,1.27749
198.2000,7.72635,300.676,1.27811
198.1000,5.60896,300.844,1.27988
198.0000,6.54026,300.667,1.27801
197.9000,6.85984,301.56,1.28743
197.8000,7.60769,301.792,1.28987
197.7000,7.96337,301.831,1.29028
197.6000,7.52915,301.825,1.29022
197.5000,8.31915,302.182,1.29398
197.4000,7.13385,302.269,1.2949
197.3000,8.37934,302.713,1.29956
197.2000,7.83467,303.225,1.30493
197.1000,6.48426,303.092,1.30354
197.0000,9.16747,303.866,1.31164
196.9000,9.05215,304.104,1.31413
196.8000,7.61832,304.067,1.31374
196.7000,8.41248,304.547,1.31876
196.6000,7.77489,304.879,1.32223
196.5000,8.62252,305.247,1.32607
196.4000,9.7125,305.581,1.32955
196.3000,7.19718,305.93,1.33319
196.2000,6.69509,306.119,1.33515
196.1000,8.91895,306.665,1.34083
196.0000,8.06492,306.82,1.34244
195.9000,8.76699,307.479,1.34927
195.8000,8.25805,307.906,1.35369
195.7000,8.30446,308.232,1.35707
195.6000,9.06932,308.395,1.35875
195.5000,9.66899,308.578,1.36065
195.4000,9.58849,309.175,1.3668
195.3000,8.79592,309.506,1.37021
195.2000,9.12421,309.943,1.37472
195.1000,8.63664,310.048,1.37579
195.0000,8.16423,310.489,1.38033
194.9000,8.73001,310.528,1.38074
194.8000,8.54068,310.766,1.38319
194.7000,9.50871,311.519,1.39091
194.6000,10.6129,312.017,1.39601
194.5000,8.71262,312.33,1.39921
194.4000,9.29354,312.578,1.40175
194.3000,8.71925,313.295,1.40907
194.2000,9.17929,313.774,1.41395
194.1000,9.18188,314.275,1.41906
194.0000,9.82732,314.986,1.42628
193.9000,10.1391,315.993,1.43649
193.8000,8.95476,316.924,1.44592
193.7000,8.79479,317.159,1.44829
193.6000,10.8829,317.886,1.45563
193.5000,9.37855,318.63,1.46311
193.4000,8.77297,318.561,1.46242
193.3000,9.07667,319.415,1.47101
193.2000,9.94501,320.108,1.47796
193.1000,9.49023,321.031,1.48719
193.0000,8.34413,321.398,1.49086
192.9000,9.63279,322.248,1.49934
192.8000,8.95707,322.815,1.50498
192.7000,10.5422,323.701,1.51379
192.6000,10.3356,324.652,1.52322
192.5000,8.35978,325.526,1.53187
192.4000,12.066,326.597,1.54244
192.3000,10.7321,327.247,1.54884
192.2000,10.2761,328.206,1.55826
192.1000,9.25856,328.832,1.5644
192.0000,8.50127,329.478,1.57072
191.9000,10.7149,330.502,1.58072
191.8000,10.0601,331.451,1.58998
191.7000,9.52701,332.171,1.59697
191.6000,7.53923,332.871,1.60377
191.5000,10.1359,334.481,1.61935
191.4000,8.53428,335.446,1.62867
191.3000,7.1847,336.213,1.63605
191.2000,7.44194,337.587,1.64924
191.1000,9.15312,339.261,1.66525
191.0000,9.52881,341.22,1.6839
190.9000,7.82347,343.151,1.70221
190.8000,10.1815,345.066,1.72027
190.7000,8.60498,346.085,1.72984
190.6000,6.84618,347.691,1.7449
190.5000,7.56497,349.151,1.75853
190.4000,7.08413,350.811,1.77396
190.3000,9.00871,351.783,1.78297
190.2000,8.66211,353.116,1.7953
190.1000,9.19265,354.321,1.8064
190.0000,7.08013,355.758,1.81961

##### Extended Information
[Comments]
Sample name,class
Comment
User
Division
Company,Saint Mary's College

[Detailed Information]
Creation date,9/30/2021 1:59 PM

Data array type,Linear data array * 3
Horizontal axis,Wavelength [nm]
Vertical axis(1),CD [mdeg]
Vertical axis(2),HT [V]
Vertical axis(3),Abs
Start,290 nm
End,190 nm
Data interval,0.1 nm
Data points,1001    

[Measurement Information]
Instrument name,J-1500
Model name,J-1500
Serial number,B051061638


