TITLE,class
DATA TYPE,
ORIGIN,JASCO
OWNER,
DATE,21/09/30
TIME,14:31:08
SPECTROMETER/DATA SYSTEM,
LOCALE,1033
RESOLUTION,
DELTAX,-0.1
XUNITS,NANOMETERS
YUNITS,CD [mdeg]
Y2UNITS,HT [V]
Y3UNITS,ABSORBANCE
FIRSTX,  290.0000
LASTX,  190.0000
NPOINTS,    1001
FIRSTY,     1.55407
MAXY,     3.60390
MINY,    -0.01544
XYDATA
290.0000,1.55407,253.139,0.739617
289.9000,2.10679,253.143,0.739669
289.8000,1.57797,253.105,0.739204
289.7000,1.57988,253.102,0.739172
289.6000,0.970894,253.025,0.738228
289.5000,0.765346,253.259,0.741083
289.4000,1.99437,252.96,0.737433
289.3000,1.3832,252.922,0.73697
289.2000,1.24716,253.164,0.739919
289.1000,1.09147,253.123,0.739428
289.0000,1.56204,253.213,0.740521
288.9000,1.34909,253.103,0.739174
288.8000,2.06782,253.095,0.73908
288.7000,1.96032,253.257,0.741051
288.6000,1.39298,253.297,0.741538
288.5000,0.886959,252.987,0.737764
288.4000,1.83372,252.954,0.737358
288.3000,0.995912,253.03,0.738291
288.2000,1.03346,252.812,0.735627
288.1000,1.77143,253.025,0.738224
288.0000,1.1292,253.073,0.738814
287.9000,1.83671,252.75,0.734876
287.8000,1.17668,252.8,0.735483
287.7000,1.76889,252.839,0.735962
287.6000,2.20553,253.01,0.738047
287.5000,2.30337,252.798,0.735461
287.4000,2.01055,252.864,0.736272
287.3000,0.85548,252.811,0.735621
287.2000,2.08568,252.779,0.735226
287.1000,1.84672,252.716,0.734465
287.0000,1.50764,252.695,0.734206
286.9000,1.94211,252.618,0.733272
286.8000,1.33856,252.926,0.73702
286.7000,0.935799,252.792,0.735394
286.6000,0.726938,252.767,0.735084
286.5000,0.945513,252.787,0.735329
286.4000,1.42748,252.737,0.73472
286.3000,1.06387,252.644,0.733579
286.2000,1.40102,252.931,0.737089
286.1000,1.71235,252.938,0.737169
286.0000,1.66496,252.682,0.734051
285.9000,1.60517,252.796,0.735432
285.8000,1.53922,252.738,0.73473
285.7000,2.03372,252.848,0.736069
285.6000,1.01437,252.737,0.73472
285.5000,1.64396,252.775,0.735182
285.4000,1.94142,252.855,0.736161
285.3000,1.91585,252.63,0.73341
285.2000,2.19733,252.733,0.73467
285.1000,1.6335,253,0.737919
285.0000,1.39748,252.665,0.733838
284.9000,1.36344,252.702,0.734296
284.8000,2.0204,252.446,0.731166
284.7000,1.80248,252.51,0.731943
284.6000,1.38757,252.574,0.732735
284.5000,0.852068,252.64,0.733538
284.4000,1.82177,252.59,0.732921
284.3000,1.09158,252.384,0.730412
284.2000,1.24628,252.542,0.732343
284.1000,2.30961,252.6,0.733052
284.0000,1.71551,252.44,0.731098
283.9000,0.638699,252.491,0.731713
283.8000,1.51492,252.538,0.732289
283.7000,1.09181,252.293,0.729297
283.6000,0.865475,252.419,0.73084
283.5000,0.7889,252.531,0.732199
283.4000,1.33068,252.407,0.730687
283.3000,0.939482,252.359,0.730101
283.2000,1.26067,252.656,0.733732
283.1000,1.6757,252.485,0.731642
283.0000,1.8199,252.444,0.731139
282.9000,0.295935,252.288,0.729234
282.8000,1.73304,252.566,0.73263
282.7000,1.20828,252.668,0.733876
282.6000,1.25928,252.482,0.731602
282.5000,2.04452,252.281,0.729153
282.4000,0.734768,252.374,0.730291
282.3000,1.82938,252.255,0.728837
282.2000,1.23215,252.129,0.727293
282.1000,0.915872,252.31,0.72951
282.0000,1.8815,252.387,0.730447
281.9000,1.73127,252.354,0.730046
281.8000,1.9171,252.552,0.732461
281.7000,1.06403,252.464,0.731385
281.6000,1.94682,252.553,0.732468
281.5000,1.49239,252.484,0.731635
281.4000,1.13325,252.311,0.729518
281.3000,1.4747,252.32,0.729632
281.2000,1.14602,252.376,0.73031
281.1000,1.72429,252.475,0.731518
281.0000,0.993796,252.136,0.727378
280.9000,0.722682,252.263,0.728931
280.8000,0.759135,252.437,0.731053
280.7000,0.839084,252.326,0.729698
280.6000,1.233,252.201,0.728179
280.5000,1.13952,252.229,0.728511
280.4000,1.5567,252.228,0.728503
280.3000,1.41278,252.199,0.728156
280.2000,2.00663,252.29,0.729264
280.1000,1.51856,252.403,0.730646
280.0000,0.457706,252.317,0.729594
279.9000,1.27517,251.86,0.72401
279.8000,1.3637,252.171,0.727809
279.7000,0.848038,252.087,0.726786
279.6000,0.932327,252.208,0.72826
279.5000,1.96861,251.902,0.724524
279.4000,0.890828,252.058,0.726429
279.3000,1.06953,252.224,0.728451
279.2000,1.3484,251.83,0.723639
279.1000,1.58784,251.957,0.725197
279.0000,1.30867,251.935,0.724917
278.9000,0.695419,251.843,0.723801
278.8000,1.78941,251.959,0.725212
278.7000,1.39793,251.919,0.724725
278.6000,0.74723,251.716,0.722246
278.5000,1.09122,251.846,0.72384
278.4000,1.48685,252.095,0.726877
278.3000,1.25844,252.033,0.726122
278.2000,1.08211,252.05,0.726324
278.1000,0.775753,252.036,0.726152
278.0000,0.883675,251.907,0.724586
277.9000,1.5472,252.149,0.727533
277.8000,1.29669,251.762,0.722808
277.7000,1.13637,251.912,0.724645
277.6000,0.650344,251.867,0.724087
277.5000,0.942543,251.916,0.724693
277.4000,2.40936,252.124,0.727237
277.3000,0.869159,251.995,0.725658
277.2000,1.89668,252.017,0.725925
277.1000,1.25842,251.843,0.723799
277.0000,1.89351,251.984,0.725528
276.9000,0.699039,251.86,0.724004
276.8000,1.45928,251.861,0.724024
276.7000,1.16361,251.894,0.724427
276.6000,1.30049,251.868,0.724098
276.5000,0.673389,251.613,0.720985
276.4000,0.774727,251.754,0.722704
276.3000,1.14588,251.864,0.724056
276.2000,1.1134,251.891,0.724385
276.1000,1.72253,251.72,0.722298
276.0000,1.05593,251.899,0.724485
275.9000,1.18545,251.853,0.723916
275.8000,1.23283,251.706,0.722115
275.7000,1.1453,251.779,0.723014
275.6000,1.41565,251.874,0.724175
275.5000,1.62164,251.729,0.722399
275.4000,1.23331,251.72,0.722295
275.3000,1.39934,251.837,0.723728
275.2000,1.0446,251.701,0.722056
275.1000,0.63461,251.699,0.722036
275.0000,1.0987,251.665,0.721624
274.9000,1.23828,251.905,0.724553
274.8000,1.00567,251.698,0.722022
274.7000,1.71374,251.745,0.722593
274.6000,0.945156,251.525,0.719908
274.5000,1.03715,251.769,0.722888
274.4000,1.34943,251.762,0.72281
274.3000,0.595084,251.53,0.71997
274.2000,1.21212,251.687,0.721885
274.1000,1.146,251.688,0.721907
274.0000,1.20356,251.742,0.722565
273.9000,1.12924,251.603,0.720865
273.8000,1.14247,251.447,0.718956
273.7000,1.36363,251.54,0.72009
273.6000,0.951472,251.757,0.722746
273.5000,1.07587,251.846,0.72384
273.4000,1.38518,251.608,0.720927
273.3000,1.419,251.567,0.720424
273.2000,1.23103,251.722,0.722312
273.1000,0.372379,251.774,0.722959
273.0000,1.15664,251.931,0.724874
272.9000,1.54501,251.652,0.72146
272.8000,1.29147,251.555,0.720278
272.7000,1.69165,251.291,0.71704
272.6000,0.6763,251.511,0.719734
272.5000,0.771273,251.708,0.722148
272.4000,0.733718,251.563,0.720365
272.3000,1.06569,251.542,0.720114
272.2000,0.778263,251.583,0.720614
272.1000,1.65061,251.543,0.720129
272.0000,1.25639,251.832,0.723657
271.9000,1.35738,251.498,0.719574
271.8000,0.798842,251.514,0.719768
271.7000,1.02103,251.694,0.721978
271.6000,1.59899,251.528,0.719948
271.5000,0.666262,251.521,0.719858
271.4000,1.32141,251.45,0.718984
271.3000,1.06969,251.739,0.722521
271.2000,1.36674,251.651,0.721449
271.1000,1.08046,251.642,0.721339
271.0000,0.759565,251.506,0.719675
270.9000,0.428254,251.475,0.719297
270.8000,0.704365,251.422,0.718639
270.7000,1.04815,251.669,0.721668
270.6000,1.56699,251.75,0.722664
270.5000,1.37844,251.469,0.719215
270.4000,1.07011,251.748,0.722639
270.3000,1.8625,251.782,0.723047
270.2000,0.918218,251.53,0.719966
270.1000,0.959538,251.822,0.72354
270.0000,1.3766,251.646,0.721387
269.9000,1.15504,251.374,0.71805
269.8000,1.23144,251.651,0.721443
269.7000,0.535205,251.762,0.722811
269.6000,1.17784,251.605,0.720891
269.5000,0.922733,251.782,0.723048
269.4000,1.81979,251.861,0.724021
269.3000,1.353,251.755,0.722724
269.2000,0.679498,251.525,0.719906
269.1000,1.39632,251.641,0.721321
269.0000,1.36081,251.745,0.722594
268.9000,1.12252,251.606,0.720894
268.8000,1.12321,251.696,0.722003
268.7000,1.37183,251.834,0.72369
268.6000,1.60623,251.714,0.722225
268.5000,1.2575,251.738,0.722516
268.4000,1.68167,251.708,0.722144
268.3000,1.12151,251.525,0.719903
268.2000,1.6145,251.679,0.721795
268.1000,1.00234,251.578,0.720555
268.0000,0.952064,251.539,0.720078
267.9000,1.19631,251.599,0.720815
267.8000,0.957663,251.628,0.721163
267.7000,1.40794,251.752,0.722685
267.6000,0.570946,251.577,0.720543
267.5000,1.52585,251.676,0.721755
267.4000,1.79963,251.769,0.722895
267.3000,1.24561,251.813,0.723435
267.2000,1.83504,251.924,0.724785
267.1000,0.409096,251.91,0.724622
267.0000,0.636058,251.923,0.72478
266.9000,1.20787,251.886,0.724321
266.8000,0.862317,251.875,0.724183
266.7000,1.34454,251.874,0.724171
266.6000,0.976494,252.006,0.725792
266.5000,0.243435,251.992,0.725618
266.4000,0.704479,251.952,0.725137
266.3000,1.08744,252.156,0.727624
266.2000,0.896527,252.121,0.727197
266.1000,0.906105,252.084,0.726747
266.0000,1.47528,251.798,0.723249
265.9000,1.31561,251.967,0.725309
265.8000,0.790836,252.024,0.726009
265.7000,1.26485,252.119,0.727176
265.6000,1.38194,252.05,0.726329
265.5000,1.43214,252.099,0.726932
265.4000,0.86562,252.023,0.725994
265.3000,1.41029,251.921,0.724755
265.2000,1.05192,252.023,0.725996
265.1000,0.187233,252.005,0.72578
265.0000,0.780728,252.223,0.728449
264.9000,0.721874,252.051,0.726336
264.8000,0.992023,252.142,0.727453
264.7000,0.764814,252.409,0.73072
264.6000,1.23094,252.284,0.729185
264.5000,1.10877,252.03,0.726079
264.4000,0.976164,252.214,0.728337
264.3000,1.10124,252.459,0.731329
264.2000,1.33693,252.282,0.729162
264.1000,0.885392,252.152,0.727579
264.0000,0.932314,252.394,0.730538
263.9000,1.33284,252.221,0.728417
263.8000,0.874412,252.172,0.727818
263.7000,0.923204,252.356,0.730064
263.6000,1.5829,252.107,0.727024
263.5000,0.91472,252.132,0.727337
263.4000,0.928976,252.494,0.731758
263.3000,0.285572,252.41,0.73073
263.2000,0.461209,252.503,0.731868
263.1000,0.685997,252.363,0.730151
263.0000,0.640029,252.447,0.731179
262.9000,1.26561,252.544,0.732364
262.8000,0.818458,252.556,0.732508
262.7000,1.48074,252.299,0.729368
262.6000,0.760299,252.669,0.733885
262.5000,1.49594,252.571,0.73269
262.4000,1.39083,252.57,0.732681
262.3000,0.816587,252.499,0.731811
262.2000,0.974134,252.559,0.732548
262.1000,1.01366,252.651,0.733665
262.0000,0.504826,252.473,0.731491
261.9000,1.25886,252.517,0.732038
261.8000,1.30413,252.617,0.733257
261.7000,0.807413,252.815,0.735674
261.6000,0.625211,252.867,0.736307
261.5000,1.553,252.419,0.730833
261.4000,0.701344,252.747,0.734837
261.3000,1.10147,252.936,0.737141
261.2000,0.826627,253.025,0.738227
261.1000,0.395493,252.709,0.734381
261.0000,1.31149,252.648,0.733633
260.9000,0.107458,252.802,0.735515
260.8000,0.79445,252.764,0.735052
260.7000,0.0736171,252.861,0.736231
260.6000,0.578437,252.84,0.735975
260.5000,0.905687,252.948,0.737287
260.4000,0.926449,252.867,0.736308
260.3000,0.371083,252.921,0.736961
260.2000,0.419532,252.939,0.737181
260.1000,0.828954,252.99,0.737801
260.0000,0.987202,253.058,0.738636
259.9000,0.137909,253.215,0.740548
259.8000,0.378174,253.116,0.739333
259.7000,1.2961,253.024,0.738219
259.6000,0.971927,253.12,0.739391
259.5000,1.00283,253.412,0.742942
259.4000,1.42933,253.185,0.74018
259.3000,0.723373,253.231,0.740743
259.2000,0.624676,253.23,0.740728
259.1000,1.37134,253.352,0.742214
259.0000,0.523996,253.351,0.742195
258.9000,0.676099,253.36,0.742312
258.8000,0.70411,253.402,0.742815
258.7000,1.04847,253.233,0.740767
258.6000,1.02629,253.266,0.741162
258.5000,1.34487,253.32,0.741816
258.4000,0.176933,253.492,0.743915
258.3000,1.04089,253.615,0.745407
258.2000,0.83221,253.341,0.742073
258.1000,1.83631,253.436,0.743238
258.0000,0.753405,253.555,0.744687
257.9000,1.11244,253.542,0.744522
257.8000,0.42928,253.731,0.746818
257.7000,0.974608,253.494,0.743941
257.6000,1.02035,253.503,0.744046
257.5000,0.857894,253.457,0.743494
257.4000,1.7424,253.874,0.748566
257.3000,0.943497,253.831,0.748041
257.2000,1.12236,253.647,0.745796
257.1000,1.18876,253.908,0.748978
257.0000,0.319898,253.636,0.745673
256.9000,0.718356,253.815,0.747844
256.8000,0.923178,253.863,0.748428
256.7000,0.979763,253.908,0.74897
256.6000,1.06598,253.813,0.74782
256.5000,1.6956,253.935,0.749307
256.4000,0.789045,253.857,0.74836
256.3000,0.670277,253.923,0.749159
256.2000,1.20978,253.928,0.749219
256.1000,1.76806,253.977,0.749808
256.0000,0.0724904,254.055,0.750761
255.9000,0.723105,254.07,0.75094
255.8000,0.0325949,253.925,0.749184
255.7000,1.19057,253.916,0.749074
255.6000,1.5063,254.087,0.751142
255.5000,1.65867,253.966,0.749678
255.4000,1.56555,254.096,0.751253
255.3000,0.98889,254.1,0.751309
255.2000,1.649,253.993,0.750009
255.1000,1.21577,254.208,0.75262
255.0000,0.902087,254.189,0.752391
254.9000,1.01203,254.225,0.752829
254.8000,0.760772,254.425,0.75525
254.7000,0.110696,254.251,0.753144
254.6000,1.19214,254.342,0.754244
254.5000,0.485393,254.54,0.756644
254.4000,0.354763,254.415,0.755124
254.3000,0.992754,254.35,0.754343
254.2000,0.482184,254.551,0.756779
254.1000,0.616403,254.382,0.754731
254.0000,1.18369,254.482,0.755938
253.9000,0.354293,254.534,0.756572
253.8000,0.854381,254.429,0.755299
253.7000,1.27804,254.21,0.752641
253.6000,0.972904,254.468,0.755775
253.5000,0.610679,254.625,0.757673
253.4000,1.2008,254.632,0.757763
253.3000,0.872614,254.58,0.757136
253.2000,1.44135,254.558,0.756859
253.1000,1.39375,254.611,0.757504
253.0000,0.987925,254.486,0.755985
252.9000,1.29045,254.371,0.7546
252.8000,0.750006,254.628,0.757715
252.7000,0.524296,254.963,0.761766
252.6000,0.742077,254.634,0.757781
252.5000,0.71502,254.726,0.758902
252.4000,0.773282,254.742,0.759099
252.3000,1.58818,254.889,0.760875
252.2000,1.5122,254.992,0.762124
252.1000,0.505815,254.692,0.758488
252.0000,0.602918,254.936,0.761438
251.9000,0.615609,254.735,0.759009
251.8000,1.12767,254.945,0.76155
251.7000,1.22109,254.747,0.759158
251.6000,0.951821,254.651,0.757991
251.5000,0.813292,255.021,0.762471
251.4000,1.02388,254.853,0.760438
251.3000,1.35055,254.624,0.757659
251.2000,0.544717,254.779,0.759543
251.1000,0.122739,254.993,0.762131
251.0000,1.32048,254.861,0.760538
250.9000,1.64676,254.972,0.761881
250.8000,0.891693,255.012,0.762362
250.7000,0.988069,254.921,0.761263
250.6000,0.939624,254.879,0.760759
250.5000,1.35501,254.869,0.76063
250.4000,0.713444,255.094,0.763353
250.3000,0.788974,254.933,0.76141
250.2000,1.08042,254.95,0.76161
250.1000,-0.00543248,255.019,0.762451
250.0000,0.992066,254.931,0.761387
249.9000,1.07351,255.067,0.763031
249.8000,0.478631,254.906,0.761079
249.7000,0.491582,254.689,0.758447
249.6000,0.527793,254.917,0.761212
249.5000,1.57866,254.929,0.761354
249.4000,1.08805,255.057,0.76291
249.3000,0.992917,255.204,0.764691
249.2000,1.07462,255.013,0.762377
249.1000,1.1551,254.939,0.761477
249.0000,1.19407,254.993,0.762129
248.9000,0.99863,255.045,0.762765
248.8000,0.548505,255.119,0.763664
248.7000,1.61918,254.988,0.762074
248.6000,1.02029,255.071,0.763081
248.5000,0.670355,255.039,0.762686
248.4000,0.798016,254.935,0.761428
248.3000,1.00882,254.908,0.761103
248.2000,0.655046,254.727,0.758906
248.1000,0.964676,254.775,0.759488
248.0000,1.83376,254.759,0.759298
247.9000,1.44595,254.767,0.759401
247.8000,1.21473,254.678,0.758322
247.7000,0.260918,254.67,0.758216
247.6000,1.46716,255.034,0.762632
247.5000,0.840741,254.675,0.758287
247.4000,1.46061,254.849,0.760387
247.3000,1.15652,255.065,0.76301
247.2000,0.534667,255.125,0.763735
247.1000,1.00421,255.28,0.765606
247.0000,0.610209,255.25,0.765241
246.9000,1.50171,255.295,0.765794
246.8000,1.38482,255.316,0.766047
246.7000,1.38864,255.301,0.765857
246.6000,1.73893,255.309,0.765953
246.5000,0.824222,255.353,0.766495
246.4000,1.40201,255.161,0.764164
246.3000,1.6775,255.258,0.765342
246.2000,1.14005,255.402,0.767082
246.1000,1.25218,255.178,0.76437
246.0000,1.92346,255.223,0.764912
245.9000,0.976524,255.284,0.765661
245.8000,1.26435,255.143,0.76395
245.7000,1.57476,255.349,0.766441
245.6000,1.33929,255.452,0.767685
245.5000,0.864783,255.283,0.765642
245.4000,1.11255,255.45,0.767664
245.3000,1.46621,255.372,0.766722
245.2000,1.05916,255.307,0.765933
245.1000,0.750002,255.241,0.765136
245.0000,1.24347,255.436,0.767488
244.9000,0.611203,255.517,0.768471
244.8000,1.09975,255.388,0.76691
244.7000,0.604906,255.511,0.768397
244.6000,0.678603,255.539,0.768741
244.5000,1.1534,255.559,0.768984
244.4000,0.523581,255.55,0.76887
244.3000,0.957658,255.471,0.767919
244.2000,1.8377,255.667,0.770286
244.1000,1.05057,255.665,0.770262
244.0000,2.17483,255.702,0.770709
243.9000,1.22553,255.522,0.768528
243.8000,0.600927,255.631,0.769851
243.7000,0.915456,255.601,0.769492
243.6000,0.751885,255.592,0.769382
243.5000,1.29811,255.601,0.769484
243.4000,1.44328,255.738,0.771149
243.3000,1.53132,255.871,0.772747
243.2000,0.883821,255.688,0.770544
243.1000,0.184974,255.547,0.76883
243.0000,1.32,255.611,0.769605
242.9000,1.02437,255.779,0.771642
242.8000,1.37444,255.83,0.772252
242.7000,1.76479,255.711,0.770817
242.6000,1.05711,255.575,0.769175
242.5000,1.18798,255.55,0.768867
242.4000,1.46609,255.954,0.773753
242.3000,0.437666,255.733,0.771082
242.2000,1.54409,255.938,0.77356
242.1000,0.213486,255.807,0.771981
242.0000,0.791252,255.721,0.770942
241.9000,1.18293,255.935,0.773518
241.8000,0.480672,256.009,0.774416
241.7000,0.477187,256.111,0.775651
241.6000,1.16071,255.945,0.773645
241.5000,1.53498,255.927,0.773428
241.4000,0.9874,256.098,0.775484
241.3000,1.10233,256.145,0.776052
241.2000,1.00746,256.205,0.776778
241.1000,0.778142,256.137,0.775959
241.0000,1.14819,256.177,0.776443
240.9000,0.652019,256.337,0.778377
240.8000,1.52667,256.108,0.775604
240.7000,0.399704,256.415,0.779314
240.6000,0.478553,256.279,0.777678
240.5000,1.03632,256.338,0.778386
240.4000,2.3573,256.685,0.782561
240.3000,0.741256,256.377,0.778855
240.2000,0.84756,256.389,0.779003
240.1000,1.5558,256.602,0.78157
240.0000,0.811541,256.465,0.779913
239.9000,0.0921632,256.431,0.779502
239.8000,1.87177,256.579,0.781288
239.7000,1.36387,256.653,0.78218
239.6000,1.08343,256.791,0.783839
239.5000,1.66827,256.612,0.781681
239.4000,1.50622,256.914,0.785322
239.3000,1.93289,256.97,0.786
239.2000,0.675299,256.958,0.785851
239.1000,0.894245,256.963,0.785907
239.0000,1.34142,257.14,0.788045
238.9000,1.45424,257.187,0.788604
238.8000,0.707095,257.12,0.787801
238.7000,1.06905,257.265,0.789538
238.6000,1.14445,257.21,0.788883
238.5000,1.49407,257.364,0.790731
238.4000,1.50041,257.391,0.791053
238.3000,1.168,257.61,0.793689
238.2000,0.390132,257.593,0.793482
238.1000,1.22567,257.586,0.793394
238.0000,0.641377,257.411,0.791293
237.9000,0.853935,257.716,0.794953
237.8000,0.780946,257.496,0.792317
237.7000,0.698684,257.521,0.792621
237.6000,1.15181,257.854,0.796609
237.5000,0.870108,257.62,0.793809
237.4000,1.38516,257.898,0.797141
237.3000,0.87718,258.018,0.798576
237.2000,0.506209,257.883,0.796961
237.1000,1.26106,258.016,0.798558
237.0000,0.322984,257.943,0.797679
236.9000,1.38427,258.12,0.799807
236.8000,0.836721,258.06,0.79908
236.7000,1.42105,258.274,0.801651
236.6000,1.07666,258.29,0.801837
236.5000,0.631055,258.363,0.802713
236.4000,0.901253,258.252,0.801384
236.3000,0.987889,258.373,0.802835
236.2000,1.43888,258.419,0.803388
236.1000,1.00526,258.448,0.803731
236.0000,0.771072,258.455,0.803813
235.9000,1.16042,258.612,0.805695
235.8000,1.51256,258.524,0.804646
235.7000,1.24307,258.852,0.808565
235.6000,1.5059,258.685,0.806566
235.5000,1.04029,258.928,0.809475
235.4000,1.34741,258.832,0.808334
235.3000,1.31642,258.969,0.809972
235.2000,1.46909,259.016,0.810527
235.1000,1.42959,258.959,0.809849
235.0000,0.908375,258.941,0.809637
234.9000,1.61912,258.887,0.80898
234.8000,0.882102,259.18,0.812483
234.7000,0.891624,259.102,0.811556
234.6000,1.50171,259.334,0.814322
234.5000,1.2412,259.423,0.815394
234.4000,1.92857,259.672,0.818359
234.3000,1.84424,259.441,0.815607
234.2000,1.26617,259.452,0.815737
234.1000,0.742182,259.804,0.819939
234.0000,1.75414,259.725,0.818997
233.9000,0.913723,259.745,0.819232
233.8000,1.13094,259.862,0.820628
233.7000,1.17553,259.942,0.821579
233.6000,0.937876,260.137,0.8239
233.5000,0.854656,259.987,0.822111
233.4000,0.718577,260.099,0.823448
233.3000,0.609367,260.107,0.823544
233.2000,1.53651,260.377,0.826755
233.1000,1.44545,260.217,0.824852
233.0000,1.831,260.388,0.826886
232.9000,2.10085,260.712,0.830742
232.8000,0.817102,260.618,0.82963
232.7000,0.212598,260.506,0.828297
232.6000,1.56186,260.593,0.82933
232.5000,1.46769,260.511,0.828355
232.4000,1.49036,260.402,0.82706
232.3000,1.50611,260.639,0.829879
232.2000,1.287,260.687,0.830443
232.1000,0.804734,260.759,0.831298
232.0000,1.02502,260.852,0.832413
231.9000,0.513614,261.058,0.834855
231.8000,1.41927,261.119,0.835574
231.7000,1.74869,260.942,0.833479
231.6000,1.01352,261.478,0.839836
231.5000,1.24391,261.498,0.840072
231.4000,0.859369,261.511,0.840229
231.3000,1.34363,261.273,0.837409
231.2000,2.01378,261.428,0.839241
231.1000,0.559662,261.433,0.839303
231.0000,1.70278,261.596,0.841235
230.9000,1.65572,261.619,0.841511
230.8000,1.40541,261.461,0.839637
230.7000,1.60808,261.73,0.842825
230.6000,1.85371,261.637,0.841722
230.5000,0.819135,261.634,0.841682
230.4000,1.51873,261.492,0.840003
230.3000,1.34135,261.429,0.83926
230.2000,1.19737,262.08,0.846972
230.1000,1.33492,261.566,0.840886
230.0000,1.56165,261.524,0.840378
229.9000,1.55606,261.481,0.839875
229.8000,1.76644,261.309,0.837838
229.7000,0.758045,261.409,0.839019
229.6000,0.990474,261.474,0.839786
229.5000,0.835378,261.618,0.841495
229.4000,1.22059,261.652,0.841905
229.3000,0.911999,261.87,0.844481
229.2000,1.31019,262.312,0.849718
229.1000,1.27625,262.133,0.847603
229.0000,1.43468,262.392,0.850662
228.9000,1.77566,262.277,0.849302
228.8000,1.50205,262.276,0.849293
228.7000,1.22962,262.896,0.856618
228.6000,1.82693,262.802,0.855505
228.5000,0.768223,262.589,0.852995
228.4000,1.55548,262.824,0.855764
228.3000,1.59185,263.353,0.862004
228.2000,1.47626,263.264,0.860959
228.1000,1.26873,263.309,0.861486
228.0000,0.792335,263.526,0.864043
227.9000,1.97999,263.76,0.866807
227.8000,1.29266,263.79,0.867152
227.7000,0.864707,263.637,0.865353
227.6000,1.07568,263.848,0.867832
227.5000,1.14349,264.023,0.869895
227.4000,0.945254,264.278,0.872892
227.3000,1.51422,263.849,0.867853
227.2000,0.664602,263.857,0.867941
227.1000,1.38959,264.177,0.871709
227.0000,1.13094,264.261,0.872691
226.9000,1.76241,264.104,0.870845
226.8000,2.06098,264.383,0.874126
226.7000,1.71304,264.411,0.874461
226.6000,1.14005,264.362,0.873876
226.5000,1.1077,264.63,0.877032
226.4000,1.13119,264.713,0.878006
226.3000,1.98606,264.563,0.876248
226.2000,2.27158,264.542,0.875995
226.1000,1.7674,264.884,0.880014
226.0000,1.34738,264.622,0.876934
225.9000,1.42259,264.989,0.881237
225.8000,0.824105,265.179,0.883467
225.7000,1.52772,265.082,0.882333
225.6000,1.42957,265.403,0.886094
225.5000,2.03699,265.342,0.885379
225.4000,0.903685,265.367,0.88567
225.3000,1.68499,265.442,0.886553
225.2000,1.4798,265.532,0.887605
225.1000,1.41268,265.679,0.889323
225.0000,1.61876,265.439,0.886517
224.9000,1.43823,265.898,0.891883
224.8000,1.08651,265.777,0.890473
224.7000,1.45037,266.038,0.893527
224.6000,1.79446,266.044,0.893595
224.5000,1.15985,266.158,0.894922
224.4000,1.34632,265.879,0.89167
224.3000,1.87926,266.162,0.894978
224.2000,1.47056,266.316,0.896768
224.1000,0.648211,266.452,0.898359
224.0000,2.79473,266.438,0.898202
223.9000,1.2231,266.322,0.896838
223.8000,1.57089,266.67,0.900903
223.7000,1.62929,266.549,0.899489
223.6000,0.833308,266.702,0.901275
223.5000,1.67307,266.702,0.901284
223.4000,1.51839,267.031,0.905111
223.3000,2.06694,266.903,0.903623
223.2000,0.696276,267.133,0.9063
223.1000,2.66324,267.044,0.905265
223.0000,1.62685,267.048,0.905311
222.9000,1.07922,267.113,0.906067
222.8000,1.62522,267.264,0.907826
222.7000,1.54248,267.259,0.907767
222.6000,1.83567,267.288,0.90811
222.5000,1.03389,267.383,0.90922
222.4000,1.73401,267.42,0.909646
222.3000,2.02998,267.598,0.911716
222.2000,1.63949,267.88,0.914992
222.1000,2.16774,267.841,0.914537
222.0000,2.15768,267.795,0.914005
221.9000,1.47814,267.613,0.911885
221.8000,0.588584,267.815,0.914235
221.7000,0.763446,267.999,0.916375
221.6000,1.54584,267.833,0.914447
221.5000,1.9581,268.017,0.916588
221.4000,1.22007,267.955,0.915865
221.3000,1.39867,268.111,0.917673
221.2000,1.56615,268.433,0.921413
221.1000,1.47944,268.402,0.921059
221.0000,2.90277,268.469,0.921839
220.9000,2.2352,268.244,0.919225
220.8000,2.18294,268.431,0.921398
220.7000,1.31823,268.856,0.926317
220.6000,1.06689,268.795,0.925613
220.5000,1.62173,268.689,0.924392
220.4000,1.60501,268.935,0.927236
220.3000,1.80536,268.733,0.924897
220.2000,1.67566,268.781,0.925453
220.1000,2.12328,268.944,0.927337
220.0000,1.74707,268.909,0.926938
219.9000,1.622,268.873,0.926519
219.8000,2.00804,269.187,0.930161
219.7000,0.708405,269.162,0.929862
219.6000,2.26384,269.298,0.931441
219.5000,1.97157,269.243,0.9308
219.4000,1.67526,269.116,0.929329
219.3000,1.68849,269.078,0.928889
219.2000,1.83228,269.433,0.933003
219.1000,1.55795,269.488,0.933634
219.0000,1.40717,269.589,0.934807
218.9000,1.82535,269.455,0.933254
218.8000,1.32625,269.594,0.934866
218.7000,1.58967,269.703,0.936129
218.6000,1.92998,269.552,0.934383
218.5000,1.46983,269.784,0.937065
218.4000,2.95425,269.722,0.936342
218.3000,1.59806,269.8,0.937242
218.2000,2.27207,270,0.939556
218.1000,1.61949,270.088,0.940575
218.0000,0.931933,270.116,0.940888
217.9000,2.64734,270.155,0.941339
217.8000,1.99066,270.138,0.941143
217.7000,2.414,270.036,0.939975
217.6000,1.18173,270.491,0.945218
217.5000,2.31623,270.476,0.945045
217.4000,2.04851,270.368,0.943805
217.3000,1.31037,270.543,0.945818
217.2000,2.34713,270.869,0.949577
217.1000,2.40349,270.705,0.947683
217.0000,2.47109,270.955,0.950564
216.9000,2.61959,271.147,0.952771
216.8000,1.88196,270.935,0.950339
216.7000,3.00834,271.139,0.952686
216.6000,2.20556,270.931,0.950286
216.5000,2.20741,271.047,0.951621
216.4000,0.923804,271.247,0.953922
216.3000,1.9422,271.194,0.95332
216.2000,1.53602,271.248,0.953939
216.1000,1.45634,271.549,0.957393
216.0000,1.99639,271.437,0.956111
215.9000,3.05933,271.401,0.955697
215.8000,1.67254,271.665,0.95873
215.7000,1.52826,271.4,0.955687
215.6000,2.87218,271.417,0.955878
215.5000,0.825081,271.595,0.957927
215.4000,1.69087,271.839,0.960726
215.3000,1.16011,271.956,0.962071
215.2000,2.86493,271.556,0.957477
215.1000,2.13957,271.892,0.96134
215.0000,2.45279,271.975,0.962287
214.9000,1.84239,271.905,0.961493
214.8000,1.15974,271.837,0.960707
214.7000,2.48408,271.951,0.962014
214.6000,2.01703,271.83,0.960627
214.5000,3.23405,272.127,0.964031
214.4000,2.70732,272.119,0.963942
214.3000,2.32656,272.311,0.966149
214.2000,1.24739,272.163,0.964443
214.1000,2.26688,272.2,0.964872
214.0000,2.10752,272.501,0.968318
213.9000,2.13646,272.559,0.968988
213.8000,3.28865,272.397,0.967126
213.7000,3.07926,272.599,0.969446
213.6000,2.0981,272.721,0.970845
213.5000,1.37706,272.831,0.972103
213.4000,1.79724,272.519,0.968531
213.3000,1.1101,272.948,0.97344
213.2000,2.39726,272.613,0.969612
213.1000,2.35849,272.519,0.968531
213.0000,2.12968,272.802,0.971767
212.9000,2.02851,272.869,0.97254
212.8000,0.795531,272.886,0.972731
212.7000,1.95868,273.283,0.977273
212.6000,3.11301,273.088,0.975048
212.5000,1.24693,272.878,0.972644
212.4000,1.28612,272.893,0.972812
212.3000,1.39746,273.166,0.975934
212.2000,1.76561,273.44,0.979073
212.1000,2.28261,273.306,0.977537
212.0000,0.708788,273.583,0.980697
211.9000,1.72158,273.726,0.982336
211.8000,2.13247,273.819,0.98339
211.7000,0.939454,273.871,0.983988
211.6000,0.745169,274.244,0.988246
211.5000,3.01869,274.164,0.987329
211.4000,2.48698,274.103,0.986638
211.3000,2.07032,274.261,0.988433
211.2000,2.0181,274.112,0.986735
211.1000,2.3597,273.925,0.984608
211.0000,1.50192,274.089,0.986476
210.9000,1.49197,274.206,0.987812
210.8000,2.25748,274.432,0.990386
210.7000,1.69524,274.63,0.992643
210.6000,2.27175,274.55,0.991725
210.5000,2.33309,274.416,0.990205
210.4000,2.2456,274.338,0.989312
210.3000,1.08065,274.632,0.992662
210.2000,2.34562,274.714,0.993593
210.1000,2.12497,275.014,0.997006
210.0000,2.14951,274.949,0.996273
209.9000,2.20297,275.107,0.998071
209.8000,1.82171,274.688,0.993299
209.7000,2.33478,275.285,1.00009
209.6000,1.56657,275.325,1.00055
209.5000,2.00263,275.418,1.0016
209.4000,2.07108,275.414,1.00155
209.3000,1.81952,275.69,1.00469
209.2000,0.956977,275.632,1.00403
209.1000,1.48283,275.805,1.006
209.0000,2.2385,275.844,1.00643
208.9000,2.48498,275.755,1.00543
208.8000,2.40057,275.898,1.00705
208.7000,2.44611,275.742,1.00527
208.6000,2.10994,276.042,1.00869
208.5000,1.90575,276.264,1.0112
208.4000,2.64931,276.162,1.01004
208.3000,2.3502,276.333,1.01197
208.2000,2.59212,276.529,1.01419
208.1000,1.70765,276.548,1.01441
208.0000,1.302,276.509,1.01397
207.9000,2.80463,276.711,1.01626
207.8000,1.45123,276.778,1.01701
207.7000,2.0075,276.901,1.01841
207.6000,2.30577,277.002,1.01954
207.5000,1.54723,276.932,1.01876
207.4000,1.65733,277.301,1.02292
207.3000,0.841547,277.308,1.023
207.2000,1.54558,277.405,1.0241
207.1000,1.60076,277.536,1.02558
207.0000,2.41613,277.43,1.02438
206.9000,1.32847,277.538,1.0256
206.8000,2.31697,277.968,1.03046
206.7000,1.94833,277.659,1.02697
206.6000,2.61793,277.747,1.02796
206.5000,2.52308,277.931,1.03003
206.4000,1.68761,277.972,1.0305
206.3000,1.46012,278.133,1.03231
206.2000,1.71888,278.293,1.03411
206.1000,2.25153,278.208,1.03316
206.0000,1.46506,278.42,1.03555
205.9000,1.8725,278.552,1.03703
205.8000,1.67609,278.514,1.0366
205.7000,3.43067,278.976,1.0418
205.6000,1.79595,278.963,1.04165
205.5000,2.99058,278.832,1.04018
205.4000,2.42317,278.901,1.04095
205.3000,1.10529,279.444,1.04705
205.2000,3.00781,279.48,1.04746
205.1000,1.32837,279.457,1.0472
205.0000,2.36216,279.746,1.05044
204.9000,2.03278,279.755,1.05054
204.8000,2.13249,279.947,1.05269
204.7000,3.24829,280.093,1.05433
204.6000,1.98451,280.237,1.05594
204.5000,2.49678,280.211,1.05565
204.4000,2.22565,280.185,1.05536
204.3000,2.04809,280.431,1.05811
204.2000,2.63512,280.567,1.05963
204.1000,2.37098,280.854,1.06284
204.0000,2.16767,280.987,1.06433
203.9000,2.3284,281.082,1.06539
203.8000,2.20669,281.108,1.06568
203.7000,1.73781,281.424,1.0692
203.6000,2.26116,281.516,1.07023
203.5000,2.37891,281.694,1.07222
203.4000,2.29832,281.8,1.0734
203.3000,1.40751,281.839,1.07383
203.2000,2.79485,282.229,1.07817
203.1000,2.75043,282.27,1.07864
203.0000,2.76643,282.164,1.07745
202.9000,2.20454,282.584,1.08212
202.8000,2.62363,282.528,1.08151
202.7000,1.48455,282.7,1.08342
202.6000,1.79403,282.939,1.08607
202.5000,2.23436,283.002,1.08676
202.4000,1.16452,283.06,1.08741
202.3000,2.66348,283.264,1.08967
202.2000,2.37678,283.558,1.09294
202.1000,2.71721,283.588,1.09327
202.0000,1.8882,283.854,1.09622
201.9000,1.59328,283.892,1.09664
201.8000,1.96669,284.402,1.10228
201.7000,2.01219,284.305,1.10121
201.6000,1.99344,284.284,1.10098
201.5000,2.28573,284.548,1.1039
201.4000,2.72848,285.087,1.10985
201.3000,2.48634,284.942,1.10825
201.2000,2.02609,285.014,1.10905
201.1000,1.70535,285.084,1.10981
201.0000,1.25557,285.548,1.11494
200.9000,0.932574,285.662,1.11619
200.8000,1.41782,285.861,1.11839
200.7000,2.36372,285.875,1.11853
200.6000,1.78881,285.972,1.1196
200.5000,1.89564,286.03,1.12024
200.4000,1.17129,286.417,1.1245
200.3000,2.43906,286.625,1.12679
200.2000,3.15295,286.769,1.12837
200.1000,1.19604,287.03,1.13123
200.0000,2.09331,286.975,1.13063
199.9000,2.33606,287.066,1.13163
199.8000,2.79434,287.258,1.13374
199.7000,1.01722,287.284,1.13402
199.6000,2.04961,287.727,1.13887
199.5000,1.89115,287.822,1.13992
199.4000,2.37856,287.98,1.14165
199.3000,3.36385,287.978,1.14163
199.2000,2.3457,288.001,1.14188
199.1000,2.02136,288.33,1.14547
199.0000,2.57953,288.344,1.14563
198.9000,2.27539,288.512,1.14746
198.8000,3.26073,288.627,1.14873
198.7000,1.74154,289.054,1.15338
198.6000,1.81619,289.14,1.15432
198.5000,1.30263,289.197,1.15494
198.4000,2.05684,289.476,1.15798
198.3000,2.41649,289.658,1.15997
198.2000,0.91218,289.747,1.16093
198.1000,0.469922,289.689,1.1603
198.0000,2.36685,289.839,1.16194
197.9000,2.00736,290.006,1.16375
197.8000,1.9371,290.122,1.16502
197.7000,0.91142,290.476,1.16886
197.6000,2.52672,290.224,1.16613
197.5000,1.03889,290.668,1.17095
197.4000,1.72498,290.572,1.16991
197.3000,3.17801,290.87,1.17314
197.2000,2.06344,291.354,1.1784
197.1000,2.63106,291.05,1.1751
197.0000,2.33649,291.751,1.1827
196.9000,2.21914,292.155,1.18706
196.8000,1.63005,292.024,1.18565
196.7000,2.52796,291.888,1.18418
196.6000,1.16775,292.349,1.18916
196.5000,1.86053,292.977,1.19594
196.4000,3.6039,292.819,1.19424
196.3000,2.10852,293.287,1.19929
196.2000,2.26481,293.457,1.20112
196.1000,3.32375,293.446,1.20101
196.0000,2.05318,293.949,1.20641
195.9000,2.66441,294.03,1.20729
195.8000,2.60882,294.404,1.2113
195.7000,2.13791,295.164,1.21947
195.6000,2.0507,295.458,1.22261
195.5000,3.06034,295.426,1.22228
195.4000,1.93323,295.567,1.22379
195.3000,2.23193,295.735,1.22558
195.2000,3.51969,295.881,1.22714
195.1000,2.11966,296.46,1.23333
195.0000,1.96922,296.722,1.23613
194.9000,1.34705,297.043,1.23956
194.8000,1.79046,296.903,1.23807
194.7000,1.95688,297.402,1.24338
194.6000,1.66349,297.837,1.24802
194.5000,1.02518,297.912,1.24882
194.4000,1.47041,298.493,1.25499
194.3000,0.407571,298.996,1.26034
194.2000,2.03158,299.22,1.26271
194.1000,2.23933,299.819,1.26905
194.0000,2.09388,300.548,1.27676
193.9000,0.978677,300.817,1.27959
193.8000,1.49252,301.476,1.28655
193.7000,2.43694,302.48,1.29711
193.6000,2.05002,303.068,1.30328
193.5000,0.627674,303.56,1.30844
193.4000,1.32088,303.757,1.31051
193.3000,0.881256,304.182,1.31495
193.2000,2.47736,304.343,1.31664
193.1000,1.4281,305.501,1.32872
193.0000,1.12801,306.159,1.33557
192.9000,0.965437,306.642,1.34059
192.8000,1.92256,307.339,1.34782
192.7000,1.2274,307.912,1.35376
192.6000,1.90309,308.661,1.3615
192.5000,3.11481,309.28,1.36788
192.4000,2.03171,310.359,1.379
192.3000,1.16764,311.01,1.38569
192.2000,1.49944,311.316,1.38883
192.1000,0.99509,312.559,1.40155
192.0000,2.97889,312.953,1.40558
191.9000,0.829852,313.877,1.41501
191.8000,1.09211,314.667,1.42304
191.7000,2.09694,315.412,1.43061
191.6000,2.34018,316.262,1.43922
191.5000,1.18386,317.332,1.45004
191.4000,1.5635,318.237,1.45916
191.3000,1.11504,319.504,1.4719
191.2000,0.0910798,320.351,1.48039
191.1000,1.99022,321.878,1.49565
191.0000,3.10834,323.597,1.51276
190.9000,0.691639,325.026,1.52693
190.8000,2.61114,326.435,1.54084
190.7000,1.83904,328.029,1.55652
190.6000,3.4083,328.984,1.56589
190.5000,1.55214,330.306,1.57882
190.4000,2.18268,332.016,1.59546
190.3000,2.35735,332.809,1.60317
190.2000,-0.0154438,334.241,1.61703
190.1000,1.34243,335.073,1.62506
190.0000,1.71702,336.662,1.64037

##### Extended Information
[Comments]
Sample name,class
Comment
User
Division
Company,Saint Mary's College

[Detailed Information]
Creation date,9/30/2021 1:31 PM

Data array type,Linear data array * 3
Horizontal axis,Wavelength [nm]
Vertical axis(1),CD [mdeg]
Vertical axis(2),HT [V]
Vertical axis(3),Abs
Start,290 nm
End,190 nm
Data interval,0.1 nm
Data points,1001    

[Measurement Information]
Instrument name,J-1500
Model name,J-1500
Serial number,B051061638


