TITLE,class
DATA TYPE,
ORIGIN,JASCO
OWNER,
DATE,21/09/30
TIME,14:45:12
SPECTROMETER/DATA SYSTEM,
LOCALE,1033
RESOLUTION,
DELTAX,-0.1
XUNITS,NANOMETERS
YUNITS,CD [mdeg]
Y2UNITS,HT [V]
Y3UNITS,ABSORBANCE
FIRSTX,  290.0000
LASTX,  190.0000
NPOINTS,    1001
FIRSTY,     1.28815
MAXY,    12.00520
MINY,    -2.87979
XYDATA
290.0000,1.28815,253.518,0.744234
289.9000,1.65965,253.278,0.741309
289.8000,0.869221,253.27,0.741216
289.7000,1.93401,253.452,0.743431
289.6000,2.39747,253.472,0.743676
289.5000,1.67526,253.232,0.740755
289.4000,1.06646,253.419,0.743023
289.3000,2.3996,253.639,0.745702
289.2000,1.73213,253.356,0.742257
289.1000,2.21703,253.253,0.741005
289.0000,1.98673,253.569,0.744855
288.9000,1.8815,253.189,0.740233
288.8000,1.4835,253.159,0.739858
288.7000,1.80724,253.397,0.742762
288.6000,1.41029,253.749,0.747043
288.5000,1.40514,253.218,0.740575
288.4000,2.09501,253.269,0.741201
288.3000,1.81625,253.309,0.741686
288.2000,1.34067,253.428,0.743137
288.1000,1.96411,253.244,0.740896
288.0000,1.5617,253.434,0.743211
287.9000,2.07829,253.26,0.741095
287.8000,1.83587,253.06,0.738656
287.7000,2.47856,253.248,0.740947
287.6000,1.25053,252.925,0.737016
287.5000,1.95173,252.933,0.737103
287.4000,1.5186,253.231,0.740738
287.3000,2.15958,253.016,0.738116
287.2000,1.61088,253.047,0.738495
287.1000,2.00191,253.005,0.737982
287.0000,2.03601,253.097,0.739107
286.9000,1.62635,252.932,0.737101
286.8000,1.47888,253.273,0.741252
286.7000,1.74059,253.216,0.74055
286.6000,1.51828,253.025,0.738235
286.5000,1.71703,252.968,0.737529
286.4000,2.19492,252.981,0.73769
286.3000,1.47338,253.027,0.73825
286.2000,1.55492,252.966,0.737511
286.1000,1.31009,252.87,0.736339
286.0000,2.22453,253.246,0.740919
285.9000,1.72265,253.107,0.73923
285.8000,1.57927,253.071,0.738788
285.7000,1.69923,253.131,0.73952
285.6000,1.77635,253.061,0.738663
285.5000,2.16224,253.021,0.738183
285.4000,0.938217,253.097,0.739101
285.3000,1.40244,253.016,0.738118
285.2000,1.04962,252.805,0.735553
285.1000,1.4815,253.101,0.739155
285.0000,1.90206,252.946,0.737263
284.9000,2.10233,252.836,0.73593
284.8000,1.87655,252.963,0.737474
284.7000,1.70548,252.865,0.73628
284.6000,1.71191,252.816,0.735682
284.5000,1.73757,252.945,0.73726
284.4000,2.13473,252.835,0.735916
284.3000,1.30605,252.794,0.73541
284.2000,1.28724,252.73,0.734633
284.1000,1.94829,252.645,0.733601
284.0000,1.39126,252.992,0.737827
283.9000,2.05733,252.779,0.735225
283.8000,1.84138,252.928,0.73705
283.7000,1.30024,252.774,0.735169
283.6000,1.64541,252.775,0.73518
283.5000,1.18587,252.794,0.735408
283.4000,1.51228,252.857,0.736186
283.3000,1.9006,252.85,0.736098
283.2000,1.57288,252.832,0.735876
283.1000,1.56322,252.863,0.736253
283.0000,1.8291,252.771,0.735132
282.9000,1.85786,252.728,0.734612
282.8000,1.62447,252.819,0.735717
282.7000,1.16436,252.709,0.734376
282.6000,1.63056,252.809,0.735596
282.5000,2.06926,252.754,0.734925
282.4000,1.24396,252.773,0.735157
282.3000,2.24691,252.803,0.735518
282.2000,2.16322,252.739,0.734745
282.1000,1.20439,252.591,0.732933
282.0000,1.24161,252.658,0.733756
281.9000,1.0859,252.854,0.736142
281.8000,1.62762,252.773,0.735153
281.7000,1.28386,252.762,0.735023
281.6000,1.1032,252.721,0.734526
281.5000,1.45438,252.693,0.734177
281.4000,1.77874,252.606,0.733118
281.3000,0.945375,252.609,0.733161
281.2000,2.12019,252.585,0.732863
281.1000,0.945249,252.49,0.731704
281.0000,1.87666,252.45,0.731211
280.9000,1.0867,252.618,0.733264
280.8000,1.57578,252.602,0.733068
280.7000,1.56212,252.457,0.731299
280.6000,1.51623,252.445,0.731157
280.5000,1.55178,252.53,0.732192
280.4000,1.35099,252.519,0.732054
280.3000,1.26725,252.406,0.730674
280.2000,1.13817,252.345,0.729931
280.1000,0.881361,252.285,0.729202
280.0000,0.949133,252.556,0.732515
279.9000,1.95956,252.419,0.730839
279.8000,1.72523,252.437,0.731053
279.7000,1.70601,252.25,0.728771
279.6000,1.9394,252.173,0.727833
279.5000,1.00729,252.281,0.729155
279.4000,1.10902,252.258,0.728872
279.3000,0.569896,252.396,0.730557
279.2000,0.967801,252.369,0.730225
279.1000,1.15453,252.427,0.730941
279.0000,2.03111,252.305,0.729446
278.9000,1.96852,252.26,0.728895
278.8000,1.82261,252.05,0.726328
278.7000,2.11871,252.41,0.730726
278.6000,1.82517,252.452,0.731236
278.5000,1.32221,252.483,0.731616
278.4000,1.01542,252.407,0.730694
278.3000,1.6261,252.308,0.729481
278.2000,1.56066,252.145,0.727486
278.1000,1.29454,252.189,0.728031
278.0000,1.63908,252.118,0.727158
277.9000,1.79074,252.458,0.731319
277.8000,1.20182,252.406,0.730684
277.7000,1.02931,252.354,0.730049
277.6000,1.65351,252.377,0.730323
277.5000,1.34672,252.215,0.728349
277.4000,1.37941,252.269,0.729001
277.3000,1.69078,252.228,0.728501
277.2000,1.11663,252.14,0.727428
277.1000,1.50578,252.206,0.728233
277.0000,1.14239,252.149,0.727537
276.9000,1.48308,252.147,0.727518
276.8000,1.20079,252.33,0.729745
276.7000,1.33883,252.272,0.729047
276.6000,1.86353,252.284,0.729194
276.5000,2.20021,252.011,0.725846
276.4000,1.62886,252.194,0.728088
276.3000,1.81935,252.435,0.731028
276.2000,1.17371,252.257,0.728859
276.1000,1.07964,252.031,0.726097
276.0000,1.31672,251.982,0.725493
275.9000,1.51073,251.796,0.723222
275.8000,1.74346,252.353,0.730037
275.7000,1.15324,252.125,0.727247
275.6000,1.20667,252.276,0.729095
275.5000,1.36573,252.166,0.727752
275.4000,0.701104,251.908,0.724594
275.3000,0.747625,251.805,0.723333
275.2000,1.62025,251.922,0.724765
275.1000,0.766228,251.962,0.72525
275.0000,1.84608,252.213,0.72832
274.9000,1.67434,252.329,0.729733
274.8000,1.02647,252.081,0.72671
274.7000,1.21015,251.922,0.724759
274.6000,1.55578,251.94,0.724989
274.5000,1.73806,251.921,0.72475
274.4000,2.09314,251.941,0.724999
274.3000,0.924993,251.893,0.724411
274.2000,1.52415,251.791,0.723161
274.1000,1.027,251.709,0.722163
274.0000,1.41079,251.89,0.724372
273.9000,1.08882,251.771,0.722913
273.8000,1.3228,252.191,0.728054
273.7000,1.61428,251.766,0.722853
273.6000,1.05871,252.065,0.72651
273.5000,1.20627,251.687,0.721892
273.4000,1.05696,251.802,0.723291
273.3000,1.09745,251.817,0.723485
273.2000,0.889816,251.453,0.719019
273.1000,1.64069,251.834,0.723691
273.0000,1.18058,251.53,0.719969
272.9000,0.913325,251.837,0.723721
272.8000,0.677501,251.572,0.720475
272.7000,1.40814,252.112,0.727084
272.6000,1.73356,251.74,0.722542
272.5000,1.10449,251.591,0.720719
272.4000,1.61996,251.77,0.722903
272.3000,1.28264,251.897,0.724454
272.2000,0.82686,252.049,0.72632
272.1000,1.79092,251.779,0.723019
272.0000,1.41363,252.012,0.725863
271.9000,1.3293,251.792,0.723176
271.8000,1.80667,251.584,0.720626
271.7000,1.13137,251.877,0.724216
271.6000,1.8043,251.636,0.721264
271.5000,1.11118,251.653,0.721473
271.4000,1.51283,251.857,0.723974
271.3000,1.21456,251.468,0.719207
271.2000,1.92619,251.922,0.724761
271.1000,1.32758,251.813,0.723432
271.0000,1.66684,251.834,0.723693
270.9000,0.523017,251.632,0.72121
270.8000,0.550664,251.822,0.723537
270.7000,1.25615,251.813,0.723431
270.6000,0.618412,251.939,0.72497
270.5000,1.5111,251.81,0.723399
270.4000,0.580851,251.884,0.724304
270.3000,1.92975,251.555,0.720271
270.2000,1.67279,251.69,0.72192
270.1000,0.750338,251.66,0.721561
270.0000,0.763919,252.222,0.728433
269.9000,0.512637,251.899,0.724481
269.8000,1.38502,251.946,0.725054
269.7000,1.31006,251.867,0.724094
269.6000,0.825421,251.737,0.722506
269.5000,0.819635,251.807,0.723356
269.4000,1.44819,252.181,0.727927
269.3000,1.16306,252.041,0.726224
269.2000,1.52423,252.346,0.729944
269.1000,1.74323,251.685,0.721864
269.0000,0.962814,251.54,0.720087
268.9000,1.59984,251.663,0.7216
268.8000,0.83367,252.104,0.726988
268.7000,0.97795,251.967,0.72532
268.6000,1.11558,251.897,0.724461
268.5000,1.20723,251.72,0.722298
268.4000,1.08103,251.952,0.725129
268.3000,1.41223,251.974,0.725398
268.2000,0.661977,252.086,0.72677
268.1000,0.819153,251.989,0.725586
268.0000,1.26215,252.098,0.726918
267.9000,1.15328,251.844,0.723805
267.8000,1.77751,252.072,0.726601
267.7000,1.19202,251.737,0.722507
267.6000,1.43603,251.857,0.723975
267.5000,1.04077,251.761,0.722798
267.4000,1.34936,251.905,0.72456
267.3000,1.04253,251.918,0.724716
267.2000,0.317652,251.947,0.725073
267.1000,1.36486,252.005,0.725777
267.0000,1.88057,251.786,0.723101
266.9000,0.905412,252.03,0.726079
266.8000,0.573681,251.849,0.723867
266.7000,0.859515,252.009,0.725831
266.6000,1.01017,251.99,0.725593
266.5000,0.419561,252.027,0.72605
266.4000,1.21992,252.009,0.725822
266.3000,0.745369,252.252,0.7288
266.2000,0.809067,252.248,0.728752
266.1000,1.5507,252.175,0.727854
266.0000,1.4271,252.354,0.730048
265.9000,0.703426,252.546,0.732391
265.8000,0.936479,252.36,0.730112
265.7000,1.25913,252.189,0.728023
265.6000,1.53076,252.079,0.726684
265.5000,0.935614,252.058,0.726422
265.4000,1.21086,252.275,0.729077
265.3000,0.605124,252.32,0.729629
265.2000,1.22056,252.093,0.726853
265.1000,1.03719,252.249,0.728757
265.0000,0.673872,252.63,0.733416
264.9000,0.389815,252.321,0.729644
264.8000,0.922835,252.449,0.731206
264.7000,0.754687,252.407,0.730691
264.6000,1.46942,252.5,0.731826
264.5000,0.885655,252.387,0.730448
264.4000,1.23081,252.312,0.729528
264.3000,1.25418,251.96,0.725225
264.2000,0.888777,252.193,0.728077
264.1000,0.67858,252.177,0.727881
264.0000,1.22227,252.172,0.727825
263.9000,1.50182,252.402,0.730634
263.8000,1.52285,252.421,0.730859
263.7000,1.0143,252.367,0.730207
263.6000,1.1704,252.262,0.728925
263.5000,0.739658,252.449,0.731209
263.4000,0.862255,252.585,0.732858
263.3000,1.53042,252.382,0.730387
263.2000,1.22257,252.665,0.733837
263.1000,0.202733,252.788,0.73534
263.0000,1.03426,252.714,0.734431
262.9000,1.1472,252.66,0.733773
262.8000,0.896701,252.527,0.732162
262.7000,1.10401,252.771,0.735135
262.6000,0.813824,252.632,0.733433
262.5000,0.857228,252.208,0.728255
262.4000,1.21783,252.758,0.734969
262.3000,1.03168,253.074,0.738828
262.2000,0.552264,252.956,0.737385
262.1000,1.29474,252.6,0.73305
262.0000,1.56548,252.8,0.735489
261.9000,1.73101,252.88,0.736464
261.8000,1.25449,252.921,0.736961
261.7000,1.08122,252.889,0.736574
261.6000,0.609735,253.148,0.739731
261.5000,1.04485,252.937,0.737155
261.4000,0.549596,252.632,0.733437
261.3000,1.69007,253.275,0.741271
261.2000,0.536343,253.096,0.7391
261.1000,1.48594,252.857,0.736182
261.0000,1.4095,252.982,0.737709
260.9000,2.17516,252.751,0.734883
260.8000,0.859084,253.254,0.741024
260.7000,0.957935,253.06,0.738652
260.6000,1.00759,253.088,0.739003
260.5000,0.898145,253.087,0.738987
260.4000,0.934905,253.109,0.739254
260.3000,0.0953426,252.905,0.736761
260.2000,1.65315,253.222,0.740627
260.1000,1.0769,253.322,0.741852
260.0000,1.56516,253.368,0.742409
259.9000,0.137287,253.02,0.738167
259.8000,0.535131,253.496,0.74396
259.7000,0.827204,253.398,0.742775
259.6000,1.53686,253.319,0.741814
259.5000,0.75886,253.792,0.74757
259.4000,0.923209,252.984,0.737733
259.3000,0.951164,253.413,0.742958
259.2000,1.49363,253.625,0.745528
259.1000,0.858231,253.096,0.739092
259.0000,1.17649,253.618,0.745452
258.9000,0.0699864,253.153,0.739788
258.8000,0.468013,253.493,0.74393
258.7000,1.14877,253.433,0.743197
258.6000,1.24499,253.352,0.742208
258.5000,0.941367,253.605,0.745288
258.4000,0.815595,253.728,0.746782
258.3000,0.400008,253.347,0.742153
258.2000,0.864778,253.545,0.744566
258.1000,1.11105,253.994,0.750018
258.0000,0.971015,253.712,0.746591
257.9000,0.512225,253.318,0.741801
257.8000,1.47206,253.752,0.747082
257.7000,-0.0427904,253.738,0.746909
257.6000,0.527818,253.546,0.744572
257.5000,1.68421,253.76,0.747174
257.4000,0.973477,253.987,0.749931
257.3000,1.17575,253.776,0.747364
257.2000,0.454588,254.144,0.751846
257.1000,1.72118,254.15,0.751907
257.0000,1.15575,253.901,0.748885
256.9000,1.15544,254.03,0.750456
256.8000,1.08517,254.029,0.750443
256.7000,1.02904,253.957,0.749571
256.6000,0.573438,254.133,0.751703
256.5000,0.0085257,254.12,0.751545
256.4000,0.357492,254.267,0.753333
256.3000,1.74011,254.021,0.750349
256.2000,1.18826,254.206,0.752594
256.1000,0.805811,254.23,0.752884
256.0000,1.28721,254.246,0.753081
255.9000,1.01931,254.533,0.756557
255.8000,1.50467,254.404,0.754994
255.7000,1.57828,254.256,0.753195
255.6000,0.361509,254.105,0.751365
255.5000,0.921832,254.271,0.753376
255.4000,1.0224,253.718,0.74667
255.3000,1.13961,254.309,0.753838
255.2000,0.750119,254.273,0.753407
255.1000,0.739454,254.32,0.753974
255.0000,2.05392,254.636,0.757812
254.9000,1.21724,254.571,0.75702
254.8000,1.01114,254.618,0.757586
254.7000,1.85796,254.743,0.759111
254.6000,0.664959,254.594,0.7573
254.5000,0.315486,254.566,0.756956
254.4000,1.29996,254.739,0.759052
254.3000,1.53781,254.796,0.759753
254.2000,0.40333,254.337,0.754181
254.1000,0.110323,254.372,0.754602
254.0000,0.62278,254.538,0.756622
253.9000,0.876235,254.368,0.754556
253.8000,1.30396,254.59,0.757253
253.7000,0.881551,254.922,0.761275
253.6000,1.08275,254.986,0.762052
253.5000,1.37245,254.702,0.758608
253.4000,0.448776,254.586,0.757205
253.3000,1.08343,254.556,0.756843
253.2000,1.30829,254.942,0.761515
253.1000,1.80523,254.772,0.759461
253.0000,0.946342,254.994,0.762141
252.9000,0.826356,254.942,0.761516
252.8000,1.44796,255.216,0.764836
252.7000,1.06694,254.85,0.760402
252.6000,1.1663,254.806,0.759874
252.5000,1.0849,255.043,0.762744
252.4000,1.21827,254.969,0.761842
252.3000,1.31772,255.041,0.762711
252.2000,1.39117,254.894,0.76093
252.1000,1.56209,255.209,0.764743
252.0000,0.649244,255.127,0.763756
251.9000,0.572642,255.024,0.762513
251.8000,0.425646,254.934,0.761419
251.7000,0.972498,254.993,0.762132
251.6000,1.27439,254.985,0.762033
251.5000,0.919886,255.158,0.764133
251.4000,0.933427,255.071,0.763076
251.3000,1.09343,254.889,0.760873
251.2000,1.00921,255.167,0.764237
251.1000,1.35267,255.189,0.76451
251.0000,0.739332,255.026,0.76253
250.9000,1.09258,255.025,0.762522
250.8000,1.2185,255.335,0.766269
250.7000,1.3144,255.205,0.764699
250.6000,1.22375,255.254,0.765296
250.5000,0.818061,255.276,0.76556
250.4000,1.11372,255.28,0.765613
250.3000,0.925992,254.888,0.760859
250.2000,1.08869,255.236,0.765081
250.1000,0.350948,255.262,0.765393
250.0000,0.456671,255.347,0.766423
249.9000,1.86212,255.32,0.766094
249.8000,1.34699,255.049,0.762807
249.7000,0.91764,254.909,0.761115
249.6000,1.37548,255.265,0.765421
249.5000,0.860362,255.177,0.764358
249.4000,0.961294,255.154,0.76408
249.3000,1.09015,255.175,0.764343
249.2000,1.4374,255.146,0.763984
249.1000,1.478,255.032,0.762607
249.0000,1.0571,255.211,0.764769
248.9000,1.16804,255.307,0.765939
248.8000,1.35117,255.186,0.764472
248.7000,1.75457,255.043,0.762735
248.6000,0.533679,255.202,0.764668
248.5000,1.43055,255.233,0.765043
248.4000,0.525531,255.164,0.7642
248.3000,0.770121,255.224,0.764932
248.2000,1.41996,255.197,0.764609
248.1000,1.53585,255.172,0.764299
248.0000,1.23632,255.041,0.762717
247.9000,1.47365,255.03,0.762579
247.8000,0.820261,254.924,0.761304
247.7000,1.19896,254.974,0.761902
247.6000,1.32512,255.041,0.762717
247.5000,0.170535,255.254,0.765289
247.4000,0.611849,255.38,0.766813
247.3000,1.93445,255.369,0.766688
247.2000,1.35308,255.512,0.768416
247.1000,1.2939,255.766,0.771479
247.0000,1.01129,255.608,0.769568
246.9000,1.18422,255.455,0.767723
246.8000,1.87545,255.404,0.767105
246.7000,1.56901,255.894,0.773027
246.6000,0.92063,255.878,0.772837
246.5000,1.60351,255.751,0.771299
246.4000,1.44689,255.473,0.767935
246.3000,1.25783,255.66,0.770205
246.2000,1.0182,255.477,0.767985
246.1000,1.61585,255.523,0.768544
246.0000,1.08396,255.77,0.771525
245.9000,1.28926,255.516,0.768459
245.8000,1.12366,255.745,0.771222
245.7000,1.08069,255.457,0.767742
245.6000,2.13534,255.723,0.77096
245.5000,0.803171,256.038,0.77477
245.4000,0.245539,255.598,0.769455
245.3000,0.947978,255.418,0.76728
245.2000,1.52789,255.654,0.770133
245.1000,1.15147,255.605,0.769532
245.0000,0.993949,255.561,0.76901
244.9000,1.14333,255.545,0.768811
244.8000,1.35884,255.883,0.772894
244.7000,1.29168,255.825,0.772196
244.6000,1.19398,255.909,0.773213
244.5000,0.872829,255.849,0.772488
244.4000,1.91741,255.758,0.771389
244.3000,0.459229,255.64,0.769959
244.2000,1.67217,255.856,0.772565
244.1000,0.615418,256.077,0.775238
244.0000,0.679489,255.785,0.771708
243.9000,1.26567,255.991,0.7742
243.8000,1.34214,255.898,0.773079
243.7000,0.233893,255.971,0.773955
243.6000,1.66852,256.053,0.774946
243.5000,0.4847,255.823,0.772166
243.4000,0.944018,255.539,0.768735
243.3000,0.816734,255.853,0.772533
243.2000,0.973649,255.928,0.773434
243.1000,1.83169,255.903,0.773134
243.0000,0.377417,255.99,0.774186
242.9000,0.504742,255.801,0.771902
242.8000,1.76179,256.29,0.777801
242.7000,0.118296,256.023,0.774587
242.6000,0.307016,256.086,0.775343
242.5000,1.2982,256.199,0.776713
242.4000,0.377478,255.976,0.774022
242.3000,0.94704,255.944,0.773634
242.2000,0.734385,256.244,0.77725
242.1000,0.635342,256.265,0.777507
242.0000,1.54056,256.258,0.777416
241.9000,0.939926,256.291,0.777822
241.8000,0.931529,256.439,0.779604
241.7000,1.06842,256.212,0.776861
241.6000,1.71674,256.599,0.781531
241.5000,1.81439,256.631,0.781911
241.4000,-0.0273385,256.36,0.778649
241.3000,0.635375,256.712,0.782888
241.2000,1.07716,256.408,0.779233
241.1000,1.27207,256.394,0.779053
241.0000,0.792145,256.446,0.779684
240.9000,1.12816,256.451,0.779746
240.8000,0.776842,256.581,0.781311
240.7000,1.23216,256.795,0.783889
240.6000,0.554176,256.779,0.783696
240.5000,0.552775,256.631,0.781913
240.4000,0.64937,256.697,0.782712
240.3000,0.989681,256.832,0.784333
240.2000,0.260672,256.696,0.782694
240.1000,0.425505,256.779,0.783694
240.0000,0.859784,257.084,0.787364
239.9000,0.321584,257.175,0.788465
239.8000,1.13823,256.911,0.785288
239.7000,0.492581,257.16,0.788278
239.6000,1.04936,257.403,0.791195
239.5000,-0.422459,257.033,0.78675
239.4000,-0.107364,257.155,0.78822
239.3000,0.855069,257.342,0.790472
239.2000,0.576264,257.444,0.791694
239.1000,0.624238,257.439,0.791635
239.0000,0.944586,257.572,0.793224
238.9000,1.20086,257.524,0.792656
238.8000,0.435225,257.458,0.791861
238.7000,0.659324,257.804,0.79601
238.6000,1.29927,257.777,0.795691
238.5000,0.461463,257.869,0.796798
238.4000,0.934519,258.158,0.800255
238.3000,0.691029,257.989,0.79823
238.2000,0.997163,257.863,0.796719
238.1000,0.337083,257.873,0.796839
238.0000,-0.247678,258.027,0.79869
237.9000,0.0359487,258.119,0.799789
237.8000,1.21285,258.211,0.800898
237.7000,1.21199,258.191,0.800656
237.6000,0.376545,258.332,0.802343
237.5000,0.0282853,258.298,0.801937
237.4000,0.838486,258.357,0.802639
237.3000,0.464388,258.289,0.801824
237.2000,-0.168594,258.683,0.806548
237.1000,-0.796878,258.63,0.805912
237.0000,0.420849,258.562,0.805098
236.9000,0.650862,258.676,0.806457
236.8000,0.161356,258.728,0.807087
236.7000,0.404571,258.929,0.809488
236.6000,0.48818,258.866,0.808738
236.5000,0.264969,258.822,0.808214
236.4000,0.622345,259.024,0.81062
236.3000,-0.341895,258.826,0.808252
236.2000,-0.463706,258.943,0.809656
236.1000,0.659375,259.143,0.812042
236.0000,0.310496,259.284,0.813725
235.9000,-0.191614,259.137,0.811976
235.8000,0.0278772,259.287,0.813768
235.7000,-0.418934,259.186,0.812559
235.6000,-0.376846,259.459,0.815823
235.5000,-0.187094,259.39,0.814996
235.4000,0.348408,259.514,0.816479
235.3000,-0.456214,259.569,0.817131
235.2000,-0.952986,259.621,0.81775
235.1000,0.164764,259.753,0.819332
235.0000,0.276203,259.537,0.816754
234.9000,-0.229477,259.775,0.819584
234.8000,-0.289736,259.817,0.820093
234.7000,-0.462212,259.976,0.821981
234.6000,-0.211974,259.841,0.820378
234.5000,-0.297285,259.952,0.821704
234.4000,0.568092,260.123,0.82374
234.3000,0.372815,260.292,0.825753
234.2000,-0.568016,260.322,0.826107
234.1000,-0.848915,260.539,0.828689
234.0000,0.182871,260.625,0.829713
233.9000,-0.0659253,260.656,0.830082
233.8000,-0.912795,260.501,0.828233
233.7000,-0.499568,260.759,0.831299
233.6000,0.0121004,261.039,0.834628
233.5000,-0.163348,260.927,0.833302
233.4000,-0.228429,261.089,0.835218
233.3000,-0.102061,261.056,0.834835
233.2000,-0.287762,261.115,0.835533
233.1000,-0.790299,261.173,0.836222
233.0000,-1.08806,261.037,0.834609
232.9000,-1.06521,261.199,0.836527
232.8000,-0.263291,261.253,0.837167
232.7000,-0.481315,261.47,0.839746
232.6000,-0.550214,261.448,0.839482
232.5000,-0.587473,261.684,0.842284
232.4000,-0.440779,261.636,0.841709
232.3000,-0.285661,261.503,0.840132
232.2000,-0.0806217,261.759,0.843173
232.1000,0.00140036,261.773,0.843331
232.0000,-0.52303,261.926,0.845142
231.9000,-0.715342,261.924,0.845127
231.8000,-0.293369,262.057,0.846698
231.7000,-0.650634,262.378,0.850501
231.6000,-0.985821,262.178,0.848135
231.5000,-0.695927,262.633,0.853511
231.4000,0.0755353,262.584,0.852926
231.3000,-0.386895,262.542,0.852433
231.2000,-0.986831,262.204,0.848436
231.1000,-1.34661,262.62,0.853358
231.0000,-1.78808,262.594,0.853047
230.9000,-1.05931,262.656,0.853782
230.8000,-0.838481,262.493,0.851852
230.7000,-1.01241,262.702,0.854322
230.6000,-1.33177,262.601,0.853132
230.5000,-1.22067,262.531,0.852298
230.4000,-0.45277,262.635,0.853533
230.3000,-0.95215,262.774,0.855171
230.2000,-1.11402,262.723,0.854578
230.1000,-0.793043,262.745,0.854828
230.0000,-1.05521,262.562,0.852675
229.9000,-1.47358,262.452,0.851369
229.8000,-1.36832,262.503,0.851974
229.7000,-0.785724,262.736,0.854728
229.6000,-1.19089,262.484,0.851753
229.5000,-0.802996,262.683,0.854101
229.4000,-1.35666,262.718,0.854514
229.3000,-2.12393,263.051,0.85844
229.2000,-0.874979,262.667,0.85391
229.1000,-0.968571,263.395,0.8625
229.0000,-0.736472,263.469,0.863374
228.9000,-1.53555,263.388,0.862424
228.8000,-1.80425,263.78,0.867035
228.7000,-1.63547,263.872,0.868122
228.6000,-1.25639,263.531,0.864102
228.5000,-0.646804,264.136,0.87122
228.4000,-1.34033,263.996,0.86958
228.3000,-0.752762,264.226,0.872281
228.2000,-2.04603,264.381,0.874104
228.1000,-1.51102,264.396,0.874287
228.0000,-0.618818,264.756,0.878508
227.9000,-1.4265,264.68,0.877612
227.8000,-0.781699,264.963,0.880941
227.7000,-1.27666,264.96,0.880904
227.6000,-1.58693,265.112,0.882684
227.5000,-1.44537,265.288,0.884746
227.4000,-1.4376,265.298,0.884861
227.3000,-1.389,265.551,0.887825
227.2000,-1.28186,265.417,0.88626
227.1000,-1.46333,265.727,0.889883
227.0000,-1.83516,265.702,0.8896
226.9000,-2.39763,265.74,0.890035
226.8000,-1.06657,265.762,0.890295
226.7000,-0.648555,265.792,0.890651
226.6000,-2.00982,265.719,0.889795
226.5000,-1.85577,265.664,0.889147
226.4000,-1.69848,265.749,0.890147
226.3000,-2.63921,266.068,0.893873
226.2000,-1.19507,266.063,0.893813
226.1000,-1.20651,266.291,0.896483
226.0000,-2.04622,266.442,0.898242
225.9000,-1.63934,266.221,0.895665
225.8000,-1.72277,266.281,0.896367
225.7000,-1.28711,266.592,0.899996
225.6000,-1.78168,266.751,0.90185
225.5000,-1.78626,266.692,0.901161
225.4000,-1.78847,266.6,0.900087
225.3000,-2.1138,266.987,0.904606
225.2000,-1.86628,266.9,0.903591
225.1000,-1.85761,267.012,0.904895
225.0000,-0.446103,267.084,0.905733
224.9000,-1.59109,267.155,0.906559
224.8000,-2.19445,267.304,0.908298
224.7000,-2.1731,267.47,0.910229
224.6000,-1.80331,267.373,0.9091
224.5000,-1.93575,267.685,0.912731
224.4000,-1.91066,267.757,0.91357
224.3000,-2.04761,267.758,0.913574
224.2000,-2.1267,267.92,0.915459
224.1000,-2.69398,267.909,0.915333
224.0000,-1.76308,267.939,0.915686
223.9000,-0.647598,268.038,0.916834
223.8000,-1.25288,268.306,0.919937
223.7000,-1.48219,268.264,0.919455
223.6000,-1.75679,268.45,0.921609
223.5000,-1.00894,268.168,0.918345
223.4000,-2.75692,268.488,0.922056
223.3000,-2.25327,268.548,0.922749
223.2000,-1.0952,268.725,0.924807
223.1000,-2.34267,268.49,0.922073
223.0000,-2.1626,268.706,0.924579
222.9000,-2.39852,268.911,0.926954
222.8000,-1.70852,269.113,0.929303
222.7000,-1.79567,268.834,0.926062
222.6000,-2.49657,269.013,0.928142
222.5000,-2.21188,269.288,0.931327
222.4000,-2.12567,269.282,0.931253
222.3000,-1.91891,269.505,0.933838
222.2000,-2.46921,269.53,0.934128
222.1000,-2.64085,269.411,0.93275
222.0000,-2.51948,269.513,0.933923
221.9000,-1.91014,269.382,0.932416
221.8000,-2.23317,269.734,0.936477
221.7000,-2.0248,269.596,0.934889
221.6000,-2.11599,269.558,0.934444
221.5000,-1.286,269.851,0.937837
221.4000,-2.65689,269.768,0.936873
221.3000,-1.83346,269.954,0.939029
221.2000,-2.06019,270.127,0.941016
221.1000,-1.09192,270.002,0.939582
221.0000,-0.780162,270.244,0.942374
220.9000,-1.64698,270.325,0.943302
220.8000,-2.87979,270.211,0.941987
220.7000,-1.7815,270.335,0.943419
220.6000,-1.69942,270.536,0.945734
220.5000,-1.50954,270.757,0.948284
220.4000,-2.47788,270.644,0.946984
220.3000,-2.40992,270.632,0.946844
220.2000,-1.70081,270.692,0.94754
220.1000,-1.68444,270.988,0.95095
220.0000,-2.0213,270.962,0.950642
219.9000,-1.74344,271.011,0.951209
219.8000,-1.8553,271.029,0.951416
219.7000,-2.43366,271.18,0.953154
219.6000,-1.10552,270.965,0.95068
219.5000,-1.81838,270.995,0.951031
219.4000,-1.81478,271.133,0.952613
219.3000,-1.87591,271.351,0.955118
219.2000,-2.81048,271.428,0.956007
219.1000,-1.82425,271.425,0.955976
219.0000,-1.60143,271.433,0.956062
218.9000,-1.61109,271.602,0.958005
218.8000,-2.17988,271.671,0.958804
218.7000,-2.31592,271.734,0.959523
218.6000,-2.20211,271.63,0.958329
218.5000,-1.08627,271.887,0.961286
218.4000,-2.05519,271.983,0.962384
218.3000,-2.13754,272.281,0.965802
218.2000,-2.35675,271.969,0.962222
218.1000,-1.59966,272.08,0.963495
218.0000,-2.00909,272.299,0.966013
217.9000,-2.01837,272.268,0.965653
217.8000,-2.22846,272.524,0.968591
217.7000,-1.89143,272.524,0.968586
217.6000,-1.68439,272.56,0.969
217.5000,-1.63683,272.79,0.971634
217.4000,-0.565203,272.651,0.970045
217.3000,-2.38681,272.537,0.968732
217.2000,-0.858343,272.87,0.972545
217.1000,-2.22012,272.928,0.97321
217.0000,-1.12428,272.77,0.971406
216.9000,-2.66537,272.999,0.974026
216.8000,-1.24381,273.321,0.977702
216.7000,-2.09109,273.48,0.979519
216.6000,-0.922366,273.407,0.978695
216.5000,-1.00383,273.393,0.978534
216.4000,-1.41714,273.655,0.981529
216.3000,-1.1336,273.557,0.980407
216.2000,-1.25272,273.393,0.97853
216.1000,-1.59973,273.609,0.981001
216.0000,-1.8866,273.752,0.982636
215.9000,-0.766493,273.789,0.983055
215.8000,-0.714021,273.831,0.983529
215.7000,-2.20463,273.889,0.984197
215.6000,-1.59783,274.069,0.986244
215.5000,-1.44647,274.199,0.987725
215.4000,-0.880656,274.043,0.985953
215.3000,-1.32293,274.192,0.987652
215.2000,-1.65822,274.235,0.988136
215.1000,-1.96433,274.326,0.989179
215.0000,-1.03261,274.218,0.987941
214.9000,-2.21671,274.369,0.989668
214.8000,-1.25967,274.484,0.990978
214.7000,-1.92499,274.621,0.992533
214.6000,-1.19429,274.72,0.993664
214.5000,-2.02539,274.722,0.993683
214.4000,-1.82254,274.785,0.994405
214.3000,-0.615335,274.748,0.993979
214.2000,-0.98847,275.139,0.998427
214.1000,-0.710769,274.856,0.995218
214.0000,-1.43425,275.005,0.996906
213.9000,-1.70795,275.199,0.999118
213.8000,-1.41702,275.442,1.00187
213.7000,-1.5127,275.308,1.00035
213.6000,-1.67405,275.169,0.998775
213.5000,-1.16163,275.294,1.00019
213.4000,-1.3843,275.477,1.00227
213.3000,-1.90244,275.301,1.00027
213.2000,-1.73888,275.431,1.00175
213.1000,-2.09902,275.68,1.00458
213.0000,-1.83168,275.548,1.00308
212.9000,-1.73056,275.71,1.00492
212.8000,-1.30415,275.719,1.00502
212.7000,-2.064,275.995,1.00815
212.6000,-1.26342,275.819,1.00616
212.5000,-1.22874,276.015,1.00838
212.4000,-0.0800325,276.118,1.00954
212.3000,-1.8115,276.045,1.00871
212.2000,-1.41045,276.052,1.0088
212.1000,-0.751935,276.28,1.01138
212.0000,-1.40958,276.685,1.01597
211.9000,-1.15143,276.704,1.01618
211.8000,-1.18086,276.592,1.01491
211.7000,-0.738827,276.818,1.01746
211.6000,-1.01639,277.208,1.02188
211.5000,-1.34751,277.087,1.02051
211.4000,-2.47445,277.067,1.02028
211.3000,-1.70754,277.184,1.0216
211.2000,-2.04982,277.414,1.02421
211.1000,-0.530119,277.265,1.02252
211.0000,-1.88507,277.385,1.02388
210.9000,-1.7496,277.734,1.02782
210.8000,-1.85118,277.534,1.02556
210.7000,-2.39401,277.868,1.02933
210.6000,-1.81045,277.748,1.02797
210.5000,-1.23988,277.704,1.02748
210.4000,-0.601471,278.26,1.03375
210.3000,-2.42166,278.129,1.03226
210.2000,-2.66403,278.013,1.03096
210.1000,-1.91462,278.221,1.0333
210.0000,-1.62664,278.156,1.03257
209.9000,-1.7425,278.549,1.03699
209.8000,-2.43602,278.681,1.03848
209.7000,-0.411715,278.807,1.0399
209.6000,-1.54331,278.875,1.04066
209.5000,-0.931842,278.941,1.04141
209.4000,-2.11026,279.206,1.04438
209.3000,-1.26253,279.271,1.04511
209.2000,-1.61185,279.491,1.04757
209.1000,-1.40338,279.492,1.04759
209.0000,-1.62386,279.552,1.04826
208.9000,-1.79419,279.533,1.04805
208.8000,-1.23846,279.567,1.04843
208.7000,-1.35235,279.812,1.05118
208.6000,-2.16513,279.846,1.05156
208.5000,-1.6012,280.148,1.05494
208.4000,-2.07946,280.291,1.05655
208.3000,-1.70561,280.188,1.05539
208.2000,-0.739025,280.263,1.05623
208.1000,-1.68572,280.6,1.06001
208.0000,-1.38503,280.661,1.06068
207.9000,-1.76465,280.708,1.06121
207.8000,-1.30604,281.143,1.06607
207.7000,-0.0467907,281.246,1.06721
207.6000,-0.792961,281.409,1.06903
207.5000,-1.47366,281.749,1.07282
207.4000,-2.43007,281.478,1.06981
207.3000,-1.14452,281.533,1.07042
207.2000,-0.647024,281.647,1.07169
207.1000,-1.4529,281.885,1.07434
207.0000,-0.793612,281.842,1.07386
206.9000,-1.84466,281.983,1.07544
206.8000,-2.04487,282.5,1.08119
206.7000,-1.94284,282.322,1.07921
206.6000,-2.2595,282.452,1.08066
206.5000,-1.47311,282.765,1.08414
206.4000,-1.50688,282.914,1.08579
206.3000,-1.42961,282.753,1.084
206.2000,0.510552,282.885,1.08547
206.1000,0.166122,283.271,1.08975
206.0000,-0.902793,283.235,1.08935
205.9000,-1.53619,283.438,1.0916
205.8000,-0.01367,283.787,1.09547
205.7000,0.0472616,283.873,1.09642
205.6000,-0.591316,283.867,1.09636
205.5000,-0.674121,283.984,1.09766
205.4000,-1.10748,284.347,1.10167
205.3000,-1.93537,284.509,1.10347
205.2000,-0.19155,284.75,1.10613
205.1000,-0.0282214,284.97,1.10856
205.0000,0.493473,285.217,1.11129
204.9000,-1.40354,285.152,1.11056
204.8000,0.386856,285.454,1.1139
204.7000,0.0926085,285.63,1.11584
204.6000,-0.956075,285.814,1.11787
204.5000,0.426388,285.928,1.11912
204.4000,-0.927647,286.394,1.12425
204.3000,-0.560213,286.531,1.12576
204.2000,1.37738,286.516,1.12558
204.1000,0.630768,286.592,1.12642
204.0000,-0.191134,287.163,1.1327
203.9000,0.330832,286.995,1.13085
203.8000,0.930249,287.372,1.13499
203.7000,0.650447,287.665,1.13819
203.6000,1.29205,287.926,1.14105
203.5000,0.0100607,287.824,1.13994
203.4000,0.43768,288.152,1.14353
203.3000,1.98494,288.409,1.14634
203.2000,2.50129,288.531,1.14767
203.1000,1.49431,288.665,1.14913
203.0000,0.61684,288.927,1.152
202.9000,1.80624,289.331,1.15641
202.8000,2.61688,289.135,1.15427
202.7000,2.34886,289.247,1.15549
202.6000,0.619994,289.698,1.16041
202.5000,1.23829,289.851,1.16207
202.4000,1.28651,289.802,1.16154
202.3000,1.93867,290.311,1.16708
202.2000,2.218,290.627,1.17051
202.1000,1.87007,290.926,1.17375
202.0000,2.23807,291.047,1.17507
201.9000,2.94744,291.322,1.17805
201.8000,2.1861,291.774,1.18295
201.7000,3.1534,291.854,1.1838
201.6000,3.57192,292,1.18539
201.5000,3.26888,292.382,1.18952
201.4000,3.37494,292.518,1.19099
201.3000,3.14904,292.826,1.19431
201.2000,2.35158,293.118,1.19747
201.1000,2.71473,293.198,1.19833
201.0000,3.19447,293.62,1.20288
200.9000,2.73395,293.789,1.20469
200.8000,2.89937,293.845,1.20529
200.7000,3.92084,294.128,1.20835
200.6000,3.55617,294.501,1.21235
200.5000,3.11132,294.642,1.21387
200.4000,3.85401,294.907,1.21671
200.3000,5.33606,295.021,1.21794
200.2000,4.56986,295.49,1.22296
200.1000,4.00444,295.435,1.22237
200.0000,3.85349,295.862,1.22694
199.9000,6.66979,296.334,1.23199
199.8000,5.55005,296.351,1.23217
199.7000,3.63577,296.303,1.23165
199.6000,4.38957,296.695,1.23585
199.5000,4.87153,297.381,1.24316
199.4000,5.83023,297.271,1.24199
199.3000,5.07998,297.284,1.24213
199.2000,5.1046,297.84,1.24805
199.1000,6.05574,297.678,1.24632
199.0000,5.80843,298.093,1.25075
198.9000,6.75542,298.208,1.25197
198.8000,5.57009,298.659,1.25676
198.7000,6.22032,298.645,1.2566
198.6000,6.71674,299.069,1.26111
198.5000,7.0005,299.167,1.26215
198.4000,7.37996,299.639,1.26715
198.3000,6.06914,299.926,1.27018
198.2000,5.81203,299.947,1.2704
198.1000,6.4559,300.179,1.27286
198.0000,7.18563,300.428,1.27549
197.9000,8.21913,300.394,1.27513
197.8000,7.24518,300.801,1.27944
197.7000,8.03536,301.252,1.28419
197.6000,7.17373,301.319,1.28489
197.5000,7.21127,301.526,1.28707
197.4000,7.87595,301.749,1.28942
197.3000,7.44852,302.163,1.29378
197.2000,8.46889,302.375,1.296
197.1000,7.47552,302.419,1.29647
197.0000,8.77456,302.985,1.30242
196.9000,7.92097,303.252,1.30521
196.8000,8.24881,303.434,1.30712
196.7000,7.85693,303.603,1.30889
196.6000,8.23417,304.031,1.31337
196.5000,7.32809,304.408,1.31731
196.4000,8.8604,304.858,1.32201
196.3000,9.06569,305.081,1.32433
196.2000,8.97304,305.366,1.32731
196.1000,8.28636,305.833,1.33218
196.0000,9.59479,306.071,1.33465
195.9000,8.15768,306.577,1.33991
195.8000,10.0829,307.021,1.34452
195.7000,8.10177,307.167,1.34603
195.6000,9.15805,307.503,1.34952
195.5000,9.92146,307.99,1.35456
195.4000,9.92286,308.083,1.35552
195.3000,10.4458,308.526,1.36011
195.2000,10.6226,308.626,1.36114
195.1000,9.71613,308.955,1.36454
195.0000,9.55408,309.479,1.36993
194.9000,9.4013,309.608,1.37127
194.8000,10.107,310.016,1.37547
194.7000,10.198,310.52,1.38065
194.6000,8.57295,310.802,1.38355
194.5000,8.94515,310.979,1.38537
194.4000,9.65492,311.525,1.39097
194.3000,8.58498,312.284,1.39874
194.2000,9.54702,312.678,1.40277
194.1000,9.38925,313.277,1.40889
194.0000,10.1725,313.667,1.41286
193.9000,10.6898,314.403,1.42036
193.8000,11.162,314.892,1.42533
193.7000,9.76215,315.598,1.43249
193.6000,9.03043,316.407,1.44069
193.5000,10.1063,316.988,1.44656
193.4000,9.68161,317.223,1.44894
193.3000,11.6416,317.854,1.4553
193.2000,11.0846,318.371,1.46051
193.1000,10.3524,318.926,1.46609
193.0000,9.8961,319.472,1.47158
192.9000,11.3305,320.289,1.47977
192.8000,9.65248,321.009,1.48698
192.7000,10.8737,321.7,1.49387
192.6000,11.7067,322.783,1.50467
192.5000,9.58565,323.373,1.51054
192.4000,10.0052,324.456,1.52128
192.3000,10.7681,324.96,1.52627
192.2000,9.80139,325.764,1.53422
192.1000,11.101,326.796,1.5444
192.0000,9.66352,326.988,1.54628
191.9000,8.35279,328.194,1.55814
191.8000,10.3805,328.856,1.56464
191.7000,8.19122,329.806,1.57393
191.6000,8.8426,330.667,1.58233
191.5000,7.82616,331.473,1.59019
191.4000,10.5221,332.886,1.60391
191.3000,9.64206,333.732,1.61211
191.2000,10.4741,334.67,1.62117
191.1000,10.2901,336.554,1.63932
191.0000,9.77238,338.007,1.65326
190.9000,10.1749,340.029,1.67258
190.8000,10.3134,341.515,1.68671
190.7000,12.0052,342.702,1.69796
190.6000,9.57074,344.14,1.71154
190.5000,8.68809,345.203,1.72156
190.4000,9.33451,346.827,1.73681
190.3000,9.82544,347.583,1.74389
190.2000,7.95933,349.365,1.76052
190.1000,10.2342,350.015,1.76656
190.0000,9.3422,351.336,1.77883

##### Extended Information
[Comments]
Sample name,class
Comment
User
Division
Company,Saint Mary's College

[Detailed Information]
Creation date,9/30/2021 1:45 PM

Data array type,Linear data array * 3
Horizontal axis,Wavelength [nm]
Vertical axis(1),CD [mdeg]
Vertical axis(2),HT [V]
Vertical axis(3),Abs
Start,290 nm
End,190 nm
Data interval,0.1 nm
Data points,1001    

[Measurement Information]
Instrument name,J-1500
Model name,J-1500
Serial number,B051061638


