TITLE,class
DATA TYPE,
ORIGIN,JASCO
OWNER,
DATE,21/09/30
TIME,14:34:00
SPECTROMETER/DATA SYSTEM,
LOCALE,1033
RESOLUTION,
DELTAX,-0.1
XUNITS,NANOMETERS
YUNITS,CD [mdeg]
Y2UNITS,HT [V]
Y3UNITS,ABSORBANCE
FIRSTX,  290.0000
LASTX,  190.0000
NPOINTS,    1001
FIRSTY,     1.41034
MAXY,     3.72857
MINY,    -0.09554
XYDATA
290.0000,1.41034,253.396,0.742741
289.9000,1.20005,253.094,0.739075
289.8000,1.49958,253.483,0.743811
289.7000,1.4109,253.506,0.744084
289.6000,1.71802,253.076,0.738855
289.5000,1.99228,253.125,0.739451
289.4000,0.93748,253.189,0.740222
289.3000,1.35128,253.325,0.741884
289.2000,1.82629,253.223,0.740637
289.1000,1.66321,253.291,0.741465
289.0000,1.87565,253.422,0.743062
288.9000,1.36135,253.307,0.74166
288.8000,1.65944,252.92,0.736954
288.7000,1.63773,253.045,0.738471
288.6000,1.48923,253.241,0.740863
288.5000,1.21619,253.15,0.739755
288.4000,1.8484,253.314,0.741745
288.3000,1.32547,253.46,0.743529
288.2000,1.44243,253.081,0.738913
288.1000,1.49176,253.27,0.741208
288.0000,1.71816,252.994,0.737855
287.9000,2.07944,253.227,0.740688
287.8000,1.13097,252.967,0.737521
287.7000,1.05957,253.126,0.739461
287.6000,1.28934,252.902,0.736729
287.5000,1.67751,252.891,0.736592
287.4000,1.80088,252.913,0.73687
287.3000,0.749126,252.897,0.736664
287.2000,1.61988,253.138,0.739606
287.1000,1.10465,253.1,0.739147
287.0000,1.95965,252.894,0.73663
286.9000,1.5752,253.068,0.738749
286.8000,1.44356,252.934,0.737117
286.7000,1.85148,252.973,0.737601
286.6000,0.968137,252.849,0.736081
286.5000,1.49457,252.834,0.735904
286.4000,1.13182,252.893,0.736623
286.3000,1.44483,253.034,0.738343
286.2000,1.27871,252.818,0.7357
286.1000,1.61843,253.257,0.741054
286.0000,1.40132,253.203,0.740395
285.9000,0.690261,252.668,0.733877
285.8000,1.86304,252.715,0.734455
285.7000,1.64859,252.829,0.735836
285.6000,2.22404,252.617,0.733256
285.5000,1.62387,252.786,0.735315
285.4000,2.11131,252.596,0.732994
285.3000,2.01411,252.92,0.736948
285.2000,1.52821,252.89,0.736584
285.1000,0.895123,252.922,0.73697
285.0000,2.34318,252.822,0.735753
284.9000,1.49396,252.449,0.731209
284.8000,1.21869,252.637,0.733503
284.7000,1.48786,252.843,0.736007
284.6000,1.05188,252.555,0.732498
284.5000,1.13304,252.485,0.731645
284.4000,1.47617,252.52,0.732069
284.3000,1.70731,252.61,0.733173
284.2000,1.10728,252.761,0.735009
284.1000,1.28146,252.74,0.734751
284.0000,0.871639,252.657,0.733743
283.9000,0.875179,252.649,0.733642
283.8000,1.39012,252.627,0.733371
283.7000,1.4189,252.377,0.73033
283.6000,0.922514,252.408,0.730709
283.5000,1.42938,252.562,0.732585
283.4000,1.33291,252.468,0.731432
283.3000,1.44096,252.506,0.731898
283.2000,1.13806,252.457,0.731301
283.1000,1.79799,252.8,0.735481
283.0000,1.47991,252.122,0.727203
282.9000,0.877639,252.368,0.73022
282.8000,1.05985,252.751,0.73489
282.7000,1.76462,252.636,0.733487
282.6000,0.9899,252.461,0.73135
282.5000,1.11833,252.534,0.732243
282.4000,1.80959,252.346,0.729946
282.3000,0.850787,252.452,0.731243
282.2000,1.25516,252.255,0.728834
282.1000,1.11581,252.685,0.73408
282.0000,1.85152,252.014,0.725891
281.9000,1.48236,252.107,0.727023
281.8000,1.1244,252.444,0.73114
281.7000,1.02062,252.585,0.732861
281.6000,2.00033,252.475,0.731527
281.5000,1.69741,252.245,0.728707
281.4000,0.901823,252.55,0.732437
281.3000,1.30103,252.578,0.732773
281.2000,1.36815,252.244,0.728705
281.1000,1.44521,252.265,0.728952
281.0000,0.886869,252.238,0.72862
280.9000,1.47778,252.668,0.733879
280.8000,2.07212,251.903,0.724532
280.7000,1.19218,252.431,0.730986
280.6000,1.1163,252.368,0.730218
280.5000,0.679252,252.618,0.73327
280.4000,0.658646,252.557,0.732522
280.3000,1.49789,252.172,0.727819
280.2000,1.72993,251.796,0.723226
280.1000,1.62991,252.696,0.734217
280.0000,1.49436,252.18,0.727924
279.9000,0.746432,251.851,0.723897
279.8000,1.48642,252.163,0.727716
279.7000,1.37337,252.161,0.72768
279.6000,1.92776,252.182,0.727936
279.5000,1.41431,252.175,0.727861
279.4000,0.878479,252.148,0.727521
279.3000,1.86468,252.117,0.727143
279.2000,0.952393,252.177,0.727875
279.1000,1.51479,252.375,0.730303
279.0000,1.74696,252.195,0.728106
278.9000,1.20653,251.742,0.72256
278.8000,0.903228,251.98,0.725475
278.7000,0.586419,252.201,0.72818
278.6000,1.50145,252.168,0.727766
278.5000,0.672445,252.263,0.728936
278.4000,0.855872,251.938,0.724959
278.3000,1.64208,252.012,0.725861
278.2000,0.61458,251.938,0.724963
278.1000,1.30875,252.006,0.725787
278.0000,0.229403,252.007,0.725798
277.9000,1.03082,252.369,0.730224
277.8000,1.4061,252.149,0.727539
277.7000,1.67577,252.058,0.726431
277.6000,1.06502,252.167,0.727762
277.5000,0.835229,252.231,0.728538
277.4000,0.573907,252.226,0.728476
277.3000,1.29642,252.41,0.730726
277.2000,1.16366,252.055,0.726392
277.1000,1.53872,251.849,0.723874
277.0000,0.96881,252.258,0.728867
276.9000,1.19882,252.152,0.727576
276.8000,0.502201,251.8,0.723277
276.7000,1.63635,251.93,0.724857
276.6000,1.39116,251.633,0.721231
276.5000,1.43298,251.741,0.722554
276.4000,0.885945,251.785,0.723088
276.3000,0.76229,251.81,0.723392
276.2000,1.45611,251.901,0.724513
276.1000,1.26263,251.727,0.722376
276.0000,0.952522,251.942,0.725007
275.9000,1.17943,252.056,0.726398
275.8000,1.28832,251.777,0.722987
275.7000,0.239183,251.944,0.725029
275.6000,0.786785,252.264,0.728938
275.5000,1.20877,252.159,0.727657
275.4000,1.55008,252.103,0.726979
275.3000,1.30258,251.652,0.721458
275.2000,1.24765,251.948,0.72508
275.1000,0.705467,251.65,0.721442
275.0000,0.709227,251.733,0.722454
274.9000,1.3365,251.896,0.724451
274.8000,0.464463,252.039,0.726194
274.7000,1.22863,251.847,0.723848
274.6000,1.82564,251.992,0.72562
274.5000,1.31655,252.205,0.728228
274.4000,1.33151,251.627,0.721151
274.3000,1.27786,251.659,0.72154
274.2000,0.785994,251.593,0.720736
274.1000,1.05217,251.723,0.722334
274.0000,1.17364,251.918,0.724712
273.9000,0.657115,251.315,0.717337
273.8000,1.37307,251.752,0.72268
273.7000,1.28025,251.567,0.720423
273.6000,0.73666,251.777,0.722995
273.5000,0.651942,251.554,0.720257
273.4000,1.40735,251.839,0.723744
273.3000,0.813921,251.741,0.722555
273.2000,1.40822,251.614,0.720991
273.1000,1.08411,252.05,0.726332
273.0000,1.62226,251.955,0.725173
272.9000,0.557162,252.073,0.726604
272.8000,0.932139,251.437,0.71883
272.7000,0.691762,251.632,0.721212
272.6000,0.655463,251.633,0.721227
272.5000,1.53137,251.717,0.722256
272.4000,0.671181,251.903,0.724533
272.3000,1.45863,251.312,0.717297
272.2000,0.651822,251.625,0.721134
272.1000,1.36021,251.715,0.722228
272.0000,0.972067,251.866,0.724076
271.9000,1.42462,252.135,0.727374
271.8000,1.68805,251.705,0.72211
271.7000,1.40412,251.649,0.721429
271.6000,1.70384,251.717,0.722257
271.5000,2.03051,251.808,0.723365
271.4000,0.99654,251.479,0.719348
271.3000,1.02492,251.751,0.72267
271.2000,1.16628,251.773,0.722942
271.1000,0.774131,251.504,0.719645
271.0000,1.20782,251.475,0.719289
270.9000,1.10202,251.502,0.719618
270.8000,1.73217,251.884,0.724303
270.7000,1.53507,251.747,0.722627
270.6000,0.94926,251.519,0.719836
270.5000,-0.0955392,251.503,0.719636
270.4000,1.33441,251.886,0.724327
270.3000,0.97112,251.607,0.720915
270.2000,1.13121,251.673,0.721716
270.1000,1.16988,251.836,0.723712
270.0000,0.822085,251.696,0.722
269.9000,1.09926,251.748,0.722634
269.8000,1.27995,251.825,0.723574
269.7000,0.765227,251.794,0.723196
269.6000,0.719631,251.612,0.720971
269.5000,1.08018,251.564,0.720383
269.4000,1.75362,251.769,0.722889
269.3000,1.20626,251.585,0.72064
269.2000,1.17428,251.438,0.718834
269.1000,0.887484,251.97,0.725352
269.0000,0.982988,251.901,0.72451
268.9000,1.54119,251.903,0.724528
268.8000,0.837755,251.669,0.72167
268.7000,1.24019,251.702,0.722067
268.6000,1.31384,251.596,0.720772
268.5000,0.696635,252.06,0.726449
268.4000,0.891117,251.632,0.721217
268.3000,1.71004,251.691,0.721935
268.2000,1.92125,251.996,0.725672
268.1000,0.914855,251.921,0.724754
268.0000,1.37053,251.809,0.723387
267.9000,0.654316,251.817,0.723482
267.8000,0.15053,251.72,0.722295
267.7000,0.999686,251.791,0.723165
267.6000,0.930548,251.99,0.725599
267.5000,1.84203,251.733,0.722452
267.4000,0.422722,251.9,0.724493
267.3000,0.664475,251.865,0.724069
267.2000,0.86727,251.744,0.722592
267.1000,1.38898,251.997,0.725679
267.0000,0.688571,251.739,0.722524
266.9000,0.661824,251.799,0.723261
266.8000,1.50194,252.017,0.725925
266.7000,0.747954,251.835,0.723702
266.6000,0.904939,251.922,0.724758
266.5000,1.56152,251.999,0.725711
266.4000,0.860627,251.93,0.724865
266.3000,0.461449,251.936,0.724936
266.2000,1.47509,252.146,0.727501
266.1000,1.23963,251.924,0.724785
266.0000,1.49924,252.028,0.726056
265.9000,1.5873,252.056,0.726407
265.8000,0.0832855,252.069,0.72656
265.7000,1.11668,251.896,0.724447
265.6000,0.731065,252.335,0.729812
265.5000,0.769593,252.019,0.725945
265.4000,1.25685,252.248,0.72875
265.3000,1.47297,252.134,0.727351
265.2000,1.14355,252.25,0.728768
265.1000,0.895156,252.206,0.728238
265.0000,0.984094,252.394,0.730532
264.9000,1.49494,251.96,0.725223
264.8000,0.994141,252.229,0.728518
264.7000,0.60999,252.347,0.729953
264.6000,0.721059,252.316,0.729576
264.5000,1.19179,252.34,0.729876
264.4000,1.19747,252.521,0.732077
264.3000,1.01411,252.138,0.727405
264.2000,0.517786,252.319,0.729619
264.1000,0.799403,252.284,0.72919
264.0000,0.946469,252.407,0.730692
263.9000,1.01694,252.413,0.73076
263.8000,1.38589,252.488,0.731684
263.7000,0.730567,252.57,0.73268
263.6000,0.933132,252.256,0.728848
263.5000,1.14476,252.533,0.732223
263.4000,1.43296,252.352,0.730017
263.3000,1.78513,252.458,0.731317
263.2000,1.55791,252.703,0.734301
263.1000,1.16589,252.459,0.731323
263.0000,1.28809,252.521,0.732087
262.9000,0.875135,252.813,0.73565
262.8000,0.971159,252.498,0.731803
262.7000,0.533559,252.381,0.730378
262.6000,0.775863,252.83,0.735854
262.5000,1.3192,252.365,0.730181
262.4000,1.58894,252.973,0.737599
262.3000,0.478107,252.663,0.733813
262.2000,1.17671,252.76,0.734998
262.1000,1.20362,252.838,0.735946
262.0000,0.685608,252.863,0.736248
261.9000,1.09004,252.678,0.734
261.8000,0.952969,252.885,0.736521
261.7000,1.09183,252.553,0.732469
261.6000,1.06707,252.646,0.733612
261.5000,0.877527,252.834,0.735903
261.4000,0.691706,252.662,0.733806
261.3000,1.13132,252.855,0.73616
261.2000,0.254409,253.227,0.740694
261.1000,0.60739,252.898,0.736682
261.0000,1.82741,252.738,0.734729
260.9000,0.203784,252.548,0.732416
260.8000,1.10128,252.916,0.736898
260.7000,1.27369,252.997,0.737884
260.6000,0.898776,252.899,0.736688
260.5000,0.530573,252.753,0.734915
260.4000,1.02278,252.895,0.736639
260.3000,0.974377,253.121,0.7394
260.2000,1.34815,253.053,0.738574
260.1000,0.616077,253.445,0.743345
260.0000,0.776924,253.39,0.742678
259.9000,1.12898,252.984,0.737735
259.8000,0.341534,253.182,0.740139
259.7000,0.597109,253.251,0.740977
259.6000,0.683768,253.27,0.741218
259.5000,1.32613,253.164,0.739919
259.4000,1.07651,253.156,0.739822
259.3000,0.391546,252.891,0.736595
259.2000,1.07022,253.059,0.738639
259.1000,1.43227,253.355,0.742247
259.0000,0.289009,253.357,0.74227
258.9000,1.29986,253.429,0.743145
258.8000,0.227364,253.142,0.739658
258.7000,1.1423,253.506,0.744088
258.6000,1.13684,253.586,0.745063
258.5000,1.247,253.587,0.745075
258.4000,1.43929,253.254,0.741023
258.3000,0.72963,253.696,0.746398
258.2000,0.354718,253.303,0.741619
258.1000,1.57751,253.604,0.745276
258.0000,0.606507,253.547,0.744582
257.9000,0.475431,253.359,0.742294
257.8000,1.09811,253.762,0.747194
257.7000,0.94028,253.992,0.749999
257.6000,1.22831,253.797,0.747624
257.5000,0.751316,253.635,0.74565
257.4000,1.24121,254.063,0.750852
257.3000,1.25668,253.939,0.749348
257.2000,0.696222,253.89,0.748754
257.1000,0.934303,254.14,0.751794
257.0000,1.01481,253.654,0.745885
256.9000,0.781988,253.661,0.745975
256.8000,1.20905,253.923,0.749151
256.7000,1.50934,253.675,0.746145
256.6000,1.37306,253.959,0.749592
256.5000,0.517934,253.845,0.748209
256.4000,1.21834,253.762,0.747204
256.3000,0.768366,253.838,0.748125
256.2000,0.676302,254.242,0.753035
256.1000,0.764608,254.197,0.752481
256.0000,0.144069,254.266,0.753323
255.9000,0.960612,254.338,0.754198
255.8000,0.531475,254.053,0.750737
255.7000,0.327986,253.896,0.748833
255.6000,0.735036,254.319,0.75397
255.5000,1.23518,254.285,0.753548
255.4000,0.71691,254.123,0.751582
255.3000,1.6721,253.994,0.750017
255.2000,0.976969,254.139,0.751784
255.1000,1.05623,254.245,0.753063
255.0000,1.87044,254.291,0.753623
254.9000,1.43177,254.557,0.756847
254.8000,1.65738,254.108,0.751406
254.7000,1.96708,254.431,0.755325
254.6000,0.373233,254.557,0.756853
254.5000,0.614415,254.399,0.75493
254.4000,0.374324,254.266,0.753318
254.3000,0.249528,254.489,0.756031
254.2000,0.797224,254.459,0.755661
254.1000,1.3414,254.476,0.755867
254.0000,1.21864,254.694,0.758508
253.9000,0.584148,254.213,0.752675
253.8000,1.44024,254.607,0.75746
253.7000,1.34029,254.385,0.754764
253.6000,0.736686,254.602,0.7574
253.5000,1.0067,254.363,0.754495
253.4000,0.83545,254.496,0.756116
253.3000,1.20383,254.791,0.759689
253.2000,1.19417,254.943,0.761529
253.1000,0.739212,254.36,0.754464
253.0000,1.05445,254.92,0.761245
252.9000,0.776057,254.849,0.760387
252.8000,1.00739,254.482,0.755943
252.7000,0.677751,254.596,0.757322
252.6000,1.07019,254.758,0.759291
252.5000,2.08491,254.994,0.76215
252.4000,1.69854,255.077,0.763147
252.3000,0.560159,254.71,0.758711
252.2000,0.699656,254.784,0.759607
252.1000,0.852189,255.15,0.764032
252.0000,1.5614,254.814,0.759968
251.9000,0.991137,255.065,0.763011
251.8000,0.979833,254.877,0.760723
251.7000,0.372296,254.727,0.758918
251.6000,1.23251,255.066,0.763016
251.5000,1.06645,254.827,0.760124
251.4000,0.321117,254.851,0.760413
251.3000,0.885364,254.964,0.761785
251.2000,1.67175,255.031,0.762597
251.1000,0.783454,255.169,0.764259
251.0000,0.578736,255.099,0.763413
250.9000,0.914226,254.805,0.759853
250.8000,0.953509,254.958,0.761709
250.7000,1.31774,254.843,0.760317
250.6000,1.47945,255.24,0.765125
250.5000,0.610077,255.216,0.764828
250.4000,0.378984,255.006,0.762295
250.3000,0.406371,255.203,0.764674
250.2000,1.08856,255.108,0.763521
250.1000,0.769741,255.305,0.765909
250.0000,1.22102,255.308,0.765949
249.9000,0.92077,255.109,0.763539
249.8000,0.487503,255.147,0.764
249.7000,1.32405,254.971,0.761864
249.6000,1.13108,255.33,0.766217
249.5000,0.923663,254.829,0.760143
249.4000,0.961731,255.429,0.767407
249.3000,0.951505,255.297,0.76581
249.2000,0.896806,255.175,0.764338
249.1000,0.853174,255.001,0.762225
249.0000,0.716036,255.129,0.763778
248.9000,0.577339,255.255,0.765303
248.8000,1.28399,254.98,0.761974
248.7000,0.35854,255.272,0.765506
248.6000,0.0103298,255.011,0.762354
248.5000,1.3319,255.062,0.762975
248.4000,1.62051,254.788,0.759653
248.3000,1.12176,254.899,0.760992
248.2000,0.284703,255.059,0.762931
248.1000,0.580044,254.766,0.75938
248.0000,1.39915,254.98,0.761977
247.9000,1.37267,255.056,0.762895
247.8000,0.115881,254.765,0.759371
247.7000,1.35232,254.966,0.761805
247.6000,0.588435,254.927,0.761332
247.5000,0.755533,254.937,0.761457
247.4000,0.958385,255.114,0.763604
247.3000,0.556563,255.423,0.767333
247.2000,1.10647,255.258,0.765341
247.1000,0.542859,255.165,0.76421
247.0000,1.41106,255.309,0.765957
246.9000,1.31796,255.159,0.764145
246.8000,1.49539,255.488,0.768125
246.7000,0.964182,255.69,0.770567
246.6000,0.73896,255.184,0.764447
246.5000,1.1061,255.18,0.764402
246.4000,0.882898,255.443,0.767583
246.3000,0.80636,255.268,0.765468
246.2000,0.289031,255.295,0.765792
246.1000,0.56795,255.505,0.768332
246.0000,1.53584,255.755,0.771354
245.9000,1.60725,255.528,0.768605
245.8000,1.02647,255.559,0.768984
245.7000,0.392555,254.892,0.760906
245.6000,0.907684,255.263,0.765402
245.5000,1.42563,255.488,0.768124
245.4000,0.626914,255.472,0.767926
245.3000,0.527339,255.827,0.772218
245.2000,0.807309,255.545,0.768815
245.1000,0.987868,255.412,0.7672
245.0000,0.788773,255.494,0.768191
244.9000,0.987781,255.166,0.764224
244.8000,1.15564,255.442,0.767566
244.7000,1.60622,255.446,0.767611
244.6000,1.38375,255.525,0.768564
244.5000,0.749951,255.547,0.768838
244.4000,1.57656,255.83,0.772257
244.3000,1.77064,255.569,0.769099
244.2000,1.84899,256.293,0.777836
244.1000,1.50491,255.749,0.77127
244.0000,1.1524,255.761,0.771427
243.9000,0.875613,255.788,0.771749
243.8000,0.914357,255.605,0.769535
243.7000,1.26915,255.802,0.771918
243.6000,1.22232,255.852,0.772521
243.5000,0.899507,255.515,0.768445
243.4000,1.47372,255.598,0.769458
243.3000,1.09588,255.783,0.771689
243.2000,0.377888,255.77,0.771527
243.1000,1.23183,255.556,0.768948
243.0000,0.460589,255.828,0.772228
242.9000,1.09165,255.808,0.771989
242.8000,0.571201,256.028,0.77464
242.7000,1.54492,255.917,0.773304
242.6000,1.05135,255.751,0.771295
242.5000,1.43881,255.822,0.772153
242.4000,0.551105,255.946,0.773659
242.3000,0.696319,255.957,0.773783
242.2000,0.825141,256.033,0.774706
242.1000,1.21871,256.265,0.777502
242.0000,1.36246,256.012,0.774451
241.9000,1.27461,256.085,0.775329
241.8000,0.896606,256.288,0.777781
241.7000,1.51322,255.815,0.77207
241.6000,0.105708,255.973,0.773986
241.5000,0.85039,256.371,0.778786
241.4000,0.289674,256.49,0.780216
241.3000,1.03788,256.303,0.77796
241.2000,1.22294,256.466,0.779931
241.1000,1.39482,256.704,0.782795
241.0000,1.82956,256.297,0.777892
240.9000,1.45434,256.274,0.777617
240.8000,0.637986,256.439,0.779598
240.7000,1.87872,256.391,0.779022
240.6000,0.129061,256.367,0.778738
240.5000,1.13323,256.279,0.777677
240.4000,1.56188,256.569,0.781171
240.3000,0.57079,256.607,0.781628
240.2000,1.45911,256.596,0.781497
240.1000,1.05123,256.658,0.782245
240.0000,0.966244,256.152,0.776146
239.9000,0.992687,256.457,0.779821
239.8000,1.61081,256.81,0.784065
239.7000,1.51472,256.688,0.782604
239.6000,0.63378,256.795,0.783891
239.5000,1.83046,256.568,0.781153
239.4000,0.887991,256.801,0.783957
239.3000,1.01883,257.157,0.788248
239.2000,1.89721,257.059,0.78707
239.1000,1.32794,257.16,0.788276
239.0000,0.843239,257.212,0.788904
238.9000,0.625912,257.189,0.788627
238.8000,1.13754,257.064,0.787124
238.7000,0.57705,257.333,0.790354
238.6000,1.96027,257.706,0.794835
238.5000,1.17386,257.248,0.789338
238.4000,0.841911,257.434,0.791574
238.3000,1.4893,257.618,0.793777
238.2000,1.21287,257.474,0.792058
238.1000,0.5612,257.977,0.798085
238.0000,1.30789,257.244,0.789288
237.9000,1.09074,257.584,0.793378
237.8000,2.02333,257.674,0.794452
237.7000,1.58647,258.161,0.800297
237.6000,1.08939,258.151,0.800173
237.5000,1.37493,257.699,0.794753
237.4000,1.23072,258.298,0.80194
237.3000,1.55077,258.06,0.799084
237.2000,1.07703,258.183,0.800561
237.1000,0.686463,258.17,0.800398
237.0000,2.15595,257.891,0.797064
236.9000,0.495846,257.961,0.797903
236.8000,0.856849,258.328,0.8023
236.7000,1.64262,258.434,0.803566
236.6000,0.732407,258.317,0.802168
236.5000,0.817728,258.608,0.80565
236.4000,0.372424,258.396,0.803114
236.3000,1.28875,258.387,0.803001
236.2000,0.825884,258.42,0.803395
236.1000,1.063,258.154,0.800207
236.0000,0.273727,258.85,0.808547
235.9000,1.3599,258.414,0.803324
235.8000,1.27502,258.592,0.805457
235.7000,1.61623,258.848,0.808522
235.6000,1.81712,258.951,0.809746
235.5000,1.10269,258.93,0.809506
235.4000,0.748153,259.151,0.812144
235.3000,0.944513,258.784,0.807751
235.2000,1.40368,258.719,0.806979
235.1000,1.85435,259.321,0.814171
235.0000,0.900773,259.07,0.811174
234.9000,0.896936,259.224,0.813008
234.8000,0.838483,259.253,0.813362
234.7000,0.878141,258.951,0.809754
234.6000,0.387116,259.086,0.811367
234.5000,0.72021,259.833,0.820279
234.4000,0.9661,259.759,0.819395
234.3000,0.535778,259.425,0.815411
234.2000,1.21152,259.823,0.820163
234.1000,1.06245,259.805,0.819949
234.0000,0.92636,259.965,0.821852
233.9000,1.16113,259.964,0.821837
233.8000,1.90964,259.941,0.821571
233.7000,1.43237,260.157,0.824138
233.6000,1.80893,260.032,0.822652
233.5000,1.15013,259.964,0.821847
233.4000,0.49596,260.241,0.825141
233.3000,1.16664,260.227,0.824978
233.2000,0.713291,260.374,0.826725
233.1000,0.792325,260.422,0.827293
233.0000,0.927545,260.445,0.827571
232.9000,0.991181,260.6,0.829409
232.8000,0.476291,260.29,0.825723
232.7000,0.60492,260.524,0.828508
232.6000,2.14419,260.583,0.82921
232.5000,1.38385,260.749,0.831182
232.4000,1.60004,260.761,0.831328
232.3000,1.29865,261.016,0.834351
232.2000,0.895063,260.958,0.833661
232.1000,1.97277,260.826,0.832098
232.0000,1.22472,260.927,0.833302
231.9000,1.03463,261.218,0.836751
231.8000,0.717392,260.983,0.833963
231.7000,1.32236,261.468,0.839719
231.6000,1.19058,261.818,0.843862
231.5000,0.677904,261.671,0.842129
231.4000,1.17231,261.446,0.839454
231.3000,0.682644,261.403,0.838952
231.2000,1.19002,261.636,0.841711
231.1000,1.49078,261.897,0.844806
231.0000,1.25998,261.71,0.842592
230.9000,0.805599,261.523,0.840371
230.8000,1.65736,261.767,0.843261
230.7000,1.49609,261.792,0.843564
230.6000,1.53819,261.643,0.8418
230.5000,1.87937,261.48,0.839864
230.4000,1.16908,261.809,0.843763
230.3000,1.00003,261.481,0.839871
230.2000,0.796192,261.742,0.842969
230.1000,1.68063,261.838,0.844103
230.0000,1.46195,261.731,0.84284
229.9000,1.23379,261.582,0.841065
229.8000,1.37853,261.737,0.842913
229.7000,1.29238,261.434,0.839319
229.6000,1.2089,261.632,0.841659
229.5000,1.40428,261.665,0.84206
229.4000,1.78968,261.889,0.844708
229.3000,1.7522,261.635,0.841695
229.2000,1.38126,262.256,0.849054
229.1000,1.71411,262.229,0.848731
229.0000,1.65248,262.253,0.849012
228.9000,1.70049,262.458,0.851442
228.8000,0.893579,262.797,0.855441
228.7000,0.680642,262.656,0.853783
228.6000,1.89175,263.026,0.858153
228.5000,1.04782,262.675,0.854003
228.4000,0.935869,263.186,0.860043
228.3000,0.822033,263.242,0.860697
228.2000,1.48698,263.234,0.860606
228.1000,1.34532,263.398,0.862533
228.0000,0.892808,263.41,0.862682
227.9000,0.591557,263.574,0.864615
227.8000,0.690336,264.027,0.869949
227.7000,0.77823,263.73,0.866453
227.6000,1.34843,263.962,0.869175
227.5000,0.928628,264.29,0.873042
227.4000,1.75394,264.002,0.869648
227.3000,1.4218,263.82,0.867502
227.2000,1.6645,264.094,0.870737
227.1000,2.0765,264.59,0.876563
227.0000,1.23165,264.06,0.870337
226.9000,1.71531,264.801,0.879039
226.8000,2.12362,264.416,0.874518
226.7000,1.47023,264.634,0.877073
226.6000,0.942064,264.492,0.875404
226.5000,1.57249,264.15,0.871394
226.4000,1.39517,264.683,0.877649
226.3000,1.7823,265.039,0.881827
226.2000,1.7796,264.806,0.879098
226.1000,2.10451,264.955,0.880839
226.0000,1.61029,264.777,0.87875
225.9000,1.66413,265.197,0.883681
225.8000,0.967638,265.207,0.883794
225.7000,1.53011,265.341,0.885372
225.6000,0.460412,265.36,0.885589
225.5000,1.12489,265.575,0.888105
225.4000,1.81686,265.454,0.886688
225.3000,1.80377,265.438,0.8865
225.2000,1.04826,265.736,0.889989
225.1000,1.75634,265.442,0.886556
225.0000,1.29649,265.491,0.887125
224.9000,1.16954,265.736,0.889991
224.8000,1.6037,266.047,0.893627
224.7000,1.46329,266.008,0.89317
224.6000,0.772269,265.904,0.891962
224.5000,1.5423,266.305,0.896647
224.4000,2.27305,266.199,0.895411
224.3000,0.672742,266.268,0.896215
224.2000,1.20916,266.524,0.899198
224.1000,1.00062,266.415,0.897928
224.0000,1.94531,266.524,0.899207
223.9000,1.75926,266.648,0.900647
223.8000,2.21086,266.737,0.901689
223.7000,1.67633,266.663,0.900825
223.6000,1.94516,266.767,0.902032
223.5000,1.6303,266.805,0.902476
223.4000,2.16871,266.798,0.902394
223.3000,1.59376,267.102,0.905944
223.2000,0.504739,267.143,0.906423
223.1000,1.91209,266.797,0.902387
223.0000,0.722254,267.547,0.911128
222.9000,1.47749,267.526,0.910884
222.8000,1.2657,267.431,0.909776
222.7000,1.22689,267.592,0.911643
222.6000,1.01292,267.753,0.91352
222.5000,1.38174,267.695,0.912844
222.4000,0.808041,267.764,0.913644
222.3000,1.0339,267.771,0.91373
222.2000,1.9159,267.879,0.914978
222.1000,2.4357,267.941,0.915709
222.0000,1.36578,267.753,0.913517
221.9000,1.66207,267.949,0.915797
221.8000,2.06309,268.135,0.917954
221.7000,1.22715,268.059,0.91708
221.6000,2.08207,267.938,0.915674
221.5000,1.46834,268.227,0.919022
221.4000,-0.0476073,268.412,0.921174
221.3000,1.81044,268.424,0.921308
221.2000,2.13805,268.395,0.920974
221.1000,0.89691,268.407,0.92111
221.0000,2.47657,268.753,0.925126
220.9000,1.70305,268.349,0.920439
220.8000,1.23263,268.459,0.921723
220.7000,2.10299,268.656,0.924004
220.6000,1.19567,268.703,0.924544
220.5000,0.367729,269.198,0.930288
220.4000,1.98554,269.191,0.930198
220.3000,1.54664,268.739,0.924966
220.2000,1.13377,269.072,0.928819
220.1000,2.24285,269.22,0.930533
220.0000,1.27044,268.885,0.92666
219.9000,2.07125,268.923,0.927101
219.8000,1.2047,269.062,0.928712
219.7000,1.00234,269.186,0.930145
219.6000,1.31721,269.439,0.93307
219.5000,1.75544,269.428,0.932939
219.4000,1.31023,269.466,0.933379
219.3000,1.83178,269.096,0.929102
219.2000,1.7164,269.575,0.934641
219.1000,1.00796,269.528,0.934101
219.0000,1.58062,269.525,0.934066
218.9000,2.08362,269.78,0.937009
218.8000,2.63084,269.753,0.936703
218.7000,1.96341,269.835,0.93765
218.6000,2.37334,269.993,0.939469
218.5000,2.32719,269.775,0.936961
218.4000,1.47036,269.913,0.938553
218.3000,1.93264,269.731,0.936452
218.2000,2.13664,269.895,0.93834
218.1000,2.18675,270.102,0.940734
218.0000,1.64556,270.081,0.940487
217.9000,1.97022,270.281,0.942803
217.8000,1.2447,270.347,0.943559
217.7000,2.42031,270.415,0.944345
217.6000,1.4999,270.536,0.945742
217.5000,1.55025,270.574,0.946178
217.4000,2.00677,270.517,0.945517
217.3000,1.09825,270.701,0.947639
217.2000,1.55803,270.727,0.947936
217.1000,1.6745,270.633,0.946857
217.0000,1.54599,271.075,0.951947
216.9000,1.83113,270.977,0.950818
216.8000,2.6135,271.279,0.954292
216.7000,1.66681,271.154,0.952857
216.6000,1.93876,270.984,0.950899
216.5000,1.32818,271.043,0.95158
216.4000,2.3415,271.265,0.954134
216.3000,2.62511,271.308,0.954624
216.2000,2.83903,271.494,0.956765
216.1000,0.687525,271.52,0.957068
216.0000,2.28142,271.466,0.956449
215.9000,1.67128,271.212,0.953521
215.8000,1.25287,271.392,0.955597
215.7000,2.01993,271.945,0.961948
215.6000,2.86425,271.784,0.960104
215.5000,2.21116,271.456,0.956332
215.4000,1.78367,272.012,0.962713
215.3000,1.97522,271.966,0.962186
215.2000,2.44976,271.971,0.962247
215.1000,2.41162,272,0.962579
215.0000,1.48105,272.048,0.963124
214.9000,1.78746,272.029,0.962907
214.8000,1.69879,272.299,0.966012
214.7000,1.59093,272.065,0.963319
214.6000,2.05728,272.153,0.964328
214.5000,2.54656,272.47,0.967968
214.4000,1.75608,272.381,0.966948
214.3000,1.49425,272.371,0.966836
214.2000,2.56191,272.486,0.968156
214.1000,0.177396,272.609,0.969566
214.0000,1.87826,272.576,0.969178
213.9000,2.49884,272.527,0.968623
213.8000,2.58869,272.393,0.967087
213.7000,1.97268,272.296,0.965968
213.6000,1.27993,272.601,0.969472
213.5000,1.85002,272.763,0.971318
213.4000,1.36235,272.823,0.97201
213.3000,1.46325,272.927,0.9732
213.2000,0.927986,272.88,0.972669
213.1000,2.48137,272.831,0.972105
213.0000,1.94866,272.673,0.970297
212.9000,1.90859,273.027,0.974344
212.8000,2.14198,272.922,0.97314
212.7000,1.61075,272.943,0.973381
212.6000,2.15685,273.331,0.977816
212.5000,2.24906,273.41,0.978723
212.4000,1.94002,273.417,0.978803
212.3000,1.27037,273.289,0.977347
212.2000,1.65661,273.558,0.980415
212.1000,2.38069,273.462,0.979317
212.0000,2.23514,273.415,0.978787
211.9000,1.41521,273.757,0.982691
211.8000,1.69517,273.523,0.980021
211.7000,2.77988,273.997,0.985432
211.6000,1.19074,274.088,0.986469
211.5000,1.48976,274.163,0.987324
211.4000,1.53036,273.812,0.98332
211.3000,2.21277,274.175,0.987461
211.2000,1.59785,274.281,0.988668
211.1000,2.3125,274.806,0.99464
211.0000,2.43788,274.204,0.987789
210.9000,2.35993,274.549,0.991721
210.8000,1.57655,274.536,0.991575
210.7000,1.37125,274.373,0.989709
210.6000,2.19864,274.523,0.991417
210.5000,1.63963,274.321,0.989116
210.4000,1.11482,274.935,0.996105
210.3000,1.69495,275.047,0.997382
210.2000,1.56533,274.337,0.989307
210.1000,2.62462,274.837,0.994992
210.0000,1.75508,274.883,0.995521
209.9000,1.97889,274.982,0.996649
209.8000,2.68911,275.353,1.00086
209.7000,2.86611,275.368,1.00104
209.6000,1.31665,275.376,1.00113
209.5000,1.71202,275.573,1.00336
209.4000,2.47341,275.677,1.00454
209.3000,2.18253,275.681,1.00458
209.2000,2.83758,275.625,1.00396
209.1000,1.3071,275.859,1.00661
209.0000,1.63942,275.806,1.00601
208.9000,2.44581,275.908,1.00716
208.8000,2.36092,275.997,1.00817
208.7000,2.34132,275.968,1.00784
208.6000,1.63043,276.296,1.01156
208.5000,1.3964,276.138,1.00977
208.4000,2.41903,276.139,1.00978
208.3000,2.23784,276.383,1.01254
208.2000,2.66459,276.491,1.01377
208.1000,1.93848,276.473,1.01356
208.0000,1.87297,276.711,1.01626
207.9000,3.03984,276.943,1.01888
207.8000,1.95638,277.122,1.02091
207.7000,1.69093,277.134,1.02104
207.6000,1.9751,277.217,1.02198
207.5000,1.6423,277.48,1.02495
207.4000,3.02785,277.337,1.02333
207.3000,2.02099,277.554,1.02578
207.2000,2.677,277.581,1.02609
207.1000,3.01121,277.663,1.02702
207.0000,1.96209,277.465,1.02478
206.9000,2.32252,277.657,1.02695
206.8000,1.81055,277.856,1.02919
206.7000,2.01677,278.183,1.03288
206.6000,2.9632,278.102,1.03196
206.5000,2.19356,278.281,1.03398
206.4000,2.06423,278.269,1.03385
206.3000,2.73775,278.347,1.03472
206.2000,2.49677,278.669,1.03834
206.1000,1.93625,278.856,1.04045
206.0000,2.60162,278.523,1.0367
205.9000,0.888649,278.663,1.03827
205.8000,1.00542,279.086,1.04303
205.7000,3.54922,279.112,1.04333
205.6000,2.68057,278.958,1.04159
205.5000,2.72851,279.012,1.04221
205.4000,1.41087,278.973,1.04177
205.3000,2.18213,279.463,1.04727
205.2000,2.59304,279.669,1.04957
205.1000,1.42213,279.557,1.04832
205.0000,2.30835,280.127,1.05471
204.9000,2.5204,279.817,1.05123
204.8000,2.2019,279.935,1.05256
204.7000,1.35876,280.026,1.05358
204.6000,2.32907,280.489,1.05876
204.5000,1.60371,280.255,1.05614
204.4000,2.96287,280.53,1.05921
204.3000,1.77522,280.916,1.06353
204.2000,2.31393,280.844,1.06273
204.1000,1.70546,280.985,1.06431
204.0000,2.7533,281.054,1.06508
203.9000,2.66437,281.077,1.06534
203.8000,2.2799,281.266,1.06744
203.7000,2.14844,281.507,1.07013
203.6000,1.9823,281.635,1.07156
203.5000,2.22375,282.134,1.07712
203.4000,3.2818,281.807,1.07348
203.3000,2.52878,281.848,1.07394
203.2000,1.93858,282.239,1.07829
203.1000,1.73738,282.423,1.08033
203.0000,1.28025,282.559,1.08185
202.9000,2.07397,282.437,1.08049
202.8000,2.7518,282.782,1.08433
202.7000,3.08628,282.724,1.08368
202.6000,2.02163,282.636,1.08271
202.5000,2.60141,283.182,1.08877
202.4000,2.46574,283.285,1.08991
202.3000,2.39742,283.539,1.09273
202.2000,1.6723,283.543,1.09277
202.1000,2.8354,283.664,1.09412
202.0000,1.74881,283.852,1.0962
201.9000,2.79416,284.13,1.09927
201.8000,1.18899,284.185,1.09988
201.7000,1.53368,284.552,1.10394
201.6000,2.65648,284.693,1.1055
201.5000,2.46567,284.784,1.1065
201.4000,1.83416,284.794,1.10662
201.3000,1.675,285,1.10889
201.2000,3.05334,285.211,1.11122
201.1000,1.59732,285.298,1.11218
201.0000,2.58492,285.576,1.11524
200.9000,2.54632,285.55,1.11496
200.8000,2.52415,285.572,1.1152
200.7000,1.80852,285.911,1.11894
200.6000,1.93631,286.066,1.12064
200.5000,2.61015,286.357,1.12384
200.4000,1.52954,286.331,1.12356
200.3000,2.02263,286.651,1.12707
200.2000,1.44813,286.747,1.12813
200.1000,1.17446,287.023,1.13115
200.0000,1.4898,287.186,1.13295
199.9000,3.27181,287.354,1.13479
199.8000,1.93303,287.679,1.13835
199.7000,2.1811,287.773,1.13938
199.6000,2.26775,287.768,1.13933
199.5000,1.99183,287.738,1.139
199.4000,1.79918,287.914,1.14093
199.3000,1.23571,288.087,1.14282
199.2000,1.50797,288.191,1.14395
199.1000,1.99078,288.199,1.14404
199.0000,2.63164,288.501,1.14735
198.9000,2.07813,288.676,1.14925
198.8000,1.68861,288.807,1.15069
198.7000,2.49142,288.812,1.15074
198.6000,1.22942,289.09,1.15377
198.5000,0.674119,289.354,1.15665
198.4000,2.33503,289.466,1.15788
198.3000,1.53049,289.69,1.16032
198.2000,2.41614,289.948,1.16312
198.1000,1.95427,289.72,1.16064
198.0000,1.61615,289.89,1.16249
197.9000,2.0048,290.417,1.16823
197.8000,2.90903,290.377,1.16779
197.7000,2.44921,290.331,1.16729
197.6000,2.14845,290.703,1.17133
197.5000,1.53734,290.624,1.17047
197.4000,2.25754,290.65,1.17076
197.3000,2.74822,290.956,1.17408
197.2000,3.58863,291.168,1.17638
197.1000,3.06568,291.233,1.17708
197.0000,2.03178,291.545,1.18046
196.9000,1.77101,291.757,1.18276
196.8000,1.70711,292.178,1.18731
196.7000,3.3821,292.23,1.18788
196.6000,1.88766,292.32,1.18884
196.5000,1.94518,292.873,1.19482
196.4000,1.35427,292.852,1.19459
196.3000,2.73923,293.195,1.19829
196.2000,1.8409,293.523,1.20183
196.1000,2.99359,293.646,1.20315
196.0000,1.60628,293.851,1.20536
195.9000,2.71119,294.627,1.21371
195.8000,1.96094,294.496,1.21229
195.7000,1.05498,294.862,1.21623
195.6000,1.69187,295.024,1.21796
195.5000,3.72857,295.425,1.22226
195.4000,2.05607,295.563,1.22374
195.3000,2.86231,295.806,1.22634
195.2000,2.76145,295.98,1.22821
195.1000,3.00372,296.237,1.23095
195.0000,3.4561,296.599,1.23482
194.9000,1.0763,296.635,1.2352
194.8000,1.07472,297.1,1.24017
194.7000,2.27645,297.47,1.24411
194.6000,2.15874,297.859,1.24825
194.5000,2.84492,297.95,1.24922
194.4000,2.32562,298.415,1.25416
194.3000,2.08083,299.014,1.26052
194.2000,1.90637,299.456,1.26521
194.1000,2.96598,300.048,1.27148
194.0000,1.62327,300.67,1.27805
193.9000,2.02759,301.244,1.2841
193.8000,2.57036,301.701,1.28892
193.7000,2.21399,302.266,1.29486
193.6000,2.11352,302.854,1.30103
193.5000,2.39839,303.382,1.30658
193.4000,1.11932,303.607,1.30893
193.3000,2.57438,304.002,1.31307
193.2000,1.93341,304.512,1.3184
193.1000,2.54434,305.176,1.32533
193.0000,2.15411,305.713,1.33092
192.9000,1.83099,306.4,1.33807
192.8000,1.36425,306.986,1.34416
192.7000,1.44325,307.41,1.34856
192.6000,2.83665,308.536,1.3602
192.5000,1.57059,309.204,1.36711
192.4000,0.92122,309.991,1.37522
192.3000,2.37748,310.667,1.38216
192.2000,0.764182,311.553,1.39126
192.1000,2.56339,312.234,1.39823
192.0000,1.29485,312.874,1.40477
191.9000,2.12606,314.064,1.41691
191.8000,1.46259,314.283,1.41914
191.7000,0.593181,315.375,1.43024
191.6000,2.185,315.837,1.43492
191.5000,3.25306,317.089,1.44759
191.4000,0.981088,318.22,1.45899
191.3000,2.27294,319.229,1.46913
191.2000,0.564829,320.126,1.47813
191.1000,2.16354,321.425,1.49113
191.0000,2.26098,322.98,1.50663
190.9000,1.43181,324.512,1.52184
190.8000,1.82183,325.979,1.53634
190.7000,0.774934,327.196,1.54833
190.6000,0.723963,328.676,1.56287
190.5000,2.87054,329.674,1.57263
190.4000,1.61809,331.241,1.58793
190.3000,2.35715,332.289,1.59812
190.2000,1.01113,333.542,1.61027
190.1000,2.55154,334.707,1.62153
190.0000,0.803364,335.864,1.63269

##### Extended Information
[Comments]
Sample name,class
Comment
User
Division
Company,Saint Mary's College

[Detailed Information]
Creation date,9/30/2021 1:34 PM

Data array type,Linear data array * 3
Horizontal axis,Wavelength [nm]
Vertical axis(1),CD [mdeg]
Vertical axis(2),HT [V]
Vertical axis(3),Abs
Start,290 nm
End,190 nm
Data interval,0.1 nm
Data points,1001    

[Measurement Information]
Instrument name,J-1500
Model name,J-1500
Serial number,B051061638


