TITLE,class
DATA TYPE,
ORIGIN,JASCO
OWNER,
DATE,21/09/30
TIME,15:02:34
SPECTROMETER/DATA SYSTEM,
LOCALE,1033
RESOLUTION,
DELTAX,-0.1
XUNITS,NANOMETERS
YUNITS,CD [mdeg]
Y2UNITS,HT [V]
Y3UNITS,ABSORBANCE
FIRSTX,  290.0000
LASTX,  190.0000
NPOINTS,    1001
FIRSTY,     2.17205
MAXY,    11.18010
MINY,    -3.21896
XYDATA
290.0000,2.17205,253.597,0.745187
289.9000,1.9314,253.569,0.74485
289.8000,1.81676,253.754,0.747103
289.7000,1.35384,253.891,0.748764
289.6000,0.732051,253.635,0.745651
289.5000,2.44591,253.514,0.744189
289.4000,1.65442,253.774,0.747344
289.3000,1.77582,253.697,0.746411
289.2000,1.09449,253.686,0.746274
289.1000,1.59865,253.834,0.748071
289.0000,1.59664,253.513,0.74417
288.9000,1.48814,253.701,0.746456
288.8000,1.48599,253.566,0.744817
288.7000,1.71623,253.465,0.743589
288.6000,1.44111,253.349,0.742171
288.5000,0.806254,253.46,0.743526
288.4000,1.96056,253.336,0.742017
288.3000,1.91647,253.506,0.744091
288.2000,1.77508,253.313,0.74174
288.1000,0.974109,253.493,0.743924
288.0000,1.27092,253.342,0.742089
287.9000,1.85975,253.354,0.742235
287.8000,2.26426,253.373,0.742472
287.7000,1.27582,253.724,0.746742
287.6000,1.51362,253.76,0.747173
287.5000,2.34498,253.623,0.745506
287.4000,1.61352,253.191,0.740247
287.3000,1.98761,253.331,0.741957
287.2000,0.763382,253.431,0.743173
287.1000,1.27066,253.41,0.742918
287.0000,1.23069,253.197,0.740321
286.9000,1.7085,253.161,0.739881
286.8000,1.10797,252.9,0.736701
286.7000,1.99557,253.311,0.741718
286.6000,1.21241,253.101,0.73916
286.5000,1.95925,253.052,0.738561
286.4000,1.00216,253.566,0.744812
286.3000,1.41637,253.401,0.742808
286.2000,1.60426,253.188,0.740221
286.1000,1.3405,253.312,0.741729
286.0000,1.94677,253.182,0.740136
285.9000,1.88259,253.275,0.741277
285.8000,0.619566,253.388,0.742654
285.7000,2.07736,253.644,0.745767
285.6000,1.58493,253.497,0.743975
285.5000,2.59149,253.117,0.739345
285.4000,1.63123,253.371,0.742448
285.3000,1.77872,253.254,0.741023
285.2000,1.53468,253.101,0.739152
285.1000,1.15476,253.021,0.738186
285.0000,1.12854,253.139,0.739618
284.9000,2.06382,253.013,0.738079
284.8000,1.36421,253.074,0.738821
284.7000,1.68496,253.052,0.738555
284.6000,1.42528,253.249,0.740963
284.5000,1.27605,253.101,0.739156
284.4000,1.50024,253.032,0.738316
284.3000,1.36991,253.159,0.739861
284.2000,1.66653,252.914,0.736878
284.1000,2.08197,253.417,0.742999
284.0000,1.63666,253.024,0.738222
283.9000,1.45975,252.946,0.737263
283.8000,1.35986,253.34,0.742071
283.7000,1.26539,253.083,0.738935
283.6000,1.6002,252.772,0.735144
283.5000,0.830574,252.95,0.737316
283.4000,2.14171,252.937,0.737157
283.3000,2.00685,253.176,0.740069
283.2000,1.4964,253.1,0.739146
283.1000,2.06677,252.793,0.735401
283.0000,1.84876,252.908,0.736802
282.9000,1.5098,253.073,0.738814
282.8000,1.64138,252.705,0.734324
282.7000,1.45994,252.854,0.736142
282.6000,1.23545,252.68,0.734021
282.5000,1.75081,253.003,0.73796
282.4000,1.1715,252.958,0.737414
282.3000,1.39566,252.683,0.734059
282.2000,1.65207,252.789,0.735348
282.1000,0.652997,252.638,0.733515
282.0000,1.59879,252.767,0.735088
281.9000,1.64649,252.977,0.737638
281.8000,1.34998,252.957,0.737401
281.7000,2.02686,253.178,0.740092
281.6000,0.868186,252.718,0.734488
281.5000,1.57922,252.941,0.737205
281.4000,1.65364,252.746,0.734827
281.3000,1.42696,252.937,0.737154
281.2000,1.53481,252.862,0.736243
281.1000,0.943814,252.779,0.735232
281.0000,1.49436,252.916,0.736906
280.9000,0.887776,252.715,0.73445
280.8000,1.51355,252.554,0.732485
280.7000,1.52729,252.611,0.733186
280.6000,1.34133,252.597,0.733008
280.5000,2.16185,252.847,0.736055
280.4000,1.05228,252.749,0.73487
280.3000,1.04928,252.746,0.734833
280.2000,2.15983,252.499,0.731818
280.1000,1.84428,252.324,0.729673
280.0000,2.09287,252.404,0.730656
279.9000,1.10093,252.663,0.733815
279.8000,1.6894,252.444,0.731143
279.7000,1.6595,252.557,0.732527
279.6000,1.38506,252.844,0.736026
279.5000,1.38445,252.891,0.736594
279.4000,1.48973,252.499,0.73182
279.3000,1.36035,252.587,0.732887
279.2000,1.49402,252.442,0.731114
279.1000,0.850789,252.356,0.730073
279.0000,1.33151,252.41,0.730728
278.9000,1.69198,252.587,0.732882
278.8000,1.48816,252.404,0.730652
278.7000,0.933987,252.402,0.730629
278.6000,1.49604,252.702,0.73429
278.5000,1.59645,252.58,0.732799
278.4000,0.803283,252.488,0.731676
278.3000,1.28425,252.393,0.730518
278.2000,1.02235,252.681,0.734037
278.1000,1.02124,252.432,0.730998
278.0000,0.770401,252.446,0.731166
277.9000,0.828133,252.701,0.734283
277.8000,0.760647,252.669,0.733889
277.7000,1.04151,252.682,0.734049
277.6000,1.05983,252.246,0.728729
277.5000,1.50018,252.411,0.730737
277.4000,1.0668,252.134,0.727359
277.3000,1.05872,252.497,0.731795
277.2000,1.335,252.322,0.729647
277.1000,1.85886,252.293,0.729296
277.0000,1.70468,252.342,0.729893
276.9000,1.06538,252.319,0.729621
276.8000,1.54301,252.305,0.729448
276.7000,1.25862,252.391,0.730496
276.6000,0.919517,252.583,0.732834
276.5000,1.14585,252.572,0.732706
276.4000,0.837017,252.502,0.731851
276.3000,1.09242,252.117,0.727146
276.2000,1.01185,252.402,0.730629
276.1000,0.890375,252.174,0.72785
276.0000,0.881491,251.94,0.72499
275.9000,0.952463,252.239,0.728637
275.8000,0.953198,252.126,0.727252
275.7000,1.82288,252.459,0.731323
275.6000,1.98911,252.274,0.729066
275.5000,1.33285,252.326,0.729706
275.4000,1.21563,252.568,0.732652
275.3000,1.07912,252.272,0.72904
275.2000,1.23048,252.464,0.731392
275.1000,1.64737,252.237,0.728617
275.0000,0.661259,252.364,0.730171
274.9000,1.58229,252.445,0.731152
274.8000,1.21873,251.837,0.723721
274.7000,0.34577,252.099,0.726922
274.6000,0.817178,252.23,0.728524
274.5000,1.54945,252.309,0.729493
274.4000,1.32898,252.176,0.72787
274.3000,1.67391,252.14,0.727427
274.2000,1.43807,252.298,0.72936
274.1000,1.58579,252.336,0.729819
274.0000,1.15549,251.987,0.725554
273.9000,1.45007,251.975,0.725408
273.8000,1.38076,251.95,0.725102
273.7000,1.53056,251.967,0.72532
273.6000,1.16319,252.116,0.727136
273.5000,1.16733,252.025,0.726017
273.4000,1.06738,251.902,0.724517
273.3000,1.59557,252.027,0.72605
273.2000,1.13967,252.702,0.734286
273.1000,1.2944,252.023,0.726002
273.0000,1.08171,252.116,0.727131
272.9000,1.12579,252.357,0.730083
272.8000,1.3769,252.282,0.729159
272.7000,1.52384,251.678,0.721781
272.6000,0.982654,252.24,0.728648
272.5000,1.18692,252.166,0.727741
272.4000,1.3066,251.981,0.725484
272.3000,0.836789,252.21,0.728288
272.2000,0.712242,252.213,0.728324
272.1000,1.92206,251.943,0.725021
272.0000,0.42371,252.112,0.727092
271.9000,0.752885,252.11,0.727065
271.8000,1.06451,252.171,0.727811
271.7000,0.189596,252.041,0.726218
271.6000,1.31356,251.964,0.725278
271.5000,1.51425,252.005,0.72578
271.4000,0.930886,252.015,0.725904
271.3000,1.22242,252.163,0.727705
271.2000,1.52186,251.815,0.723455
271.1000,0.486147,251.951,0.725113
271.0000,0.941518,251.976,0.725423
270.9000,0.555073,251.979,0.725456
270.8000,1.49503,252.044,0.726252
270.7000,0.878839,252.087,0.726786
270.6000,1.0505,252.066,0.726523
270.5000,1.60784,251.863,0.724044
270.4000,1.0257,252.099,0.726931
270.3000,1.36792,252.1,0.726944
270.2000,1.53242,252.031,0.726099
270.1000,1.30808,252.039,0.726194
270.0000,1.38552,252.129,0.727298
269.9000,1.0198,252.062,0.726471
269.8000,0.847288,252.08,0.726696
269.7000,0.486069,252.112,0.72709
269.6000,0.491774,252.072,0.726598
269.5000,1.22001,252.145,0.727496
269.4000,1.02881,252.195,0.728106
269.3000,2.09115,252.155,0.727615
269.2000,1.58487,252.03,0.726085
269.1000,1.30557,252.146,0.7275
269.0000,1.05572,252.096,0.726896
268.9000,0.630028,251.959,0.725219
268.8000,0.923734,252.251,0.728784
268.7000,0.776808,252.064,0.7265
268.6000,0.779798,251.899,0.724487
268.5000,0.691589,252.087,0.72678
268.4000,1.52873,252.214,0.728329
268.3000,0.621268,252.07,0.726579
268.2000,0.914345,252.197,0.728128
268.1000,1.06023,252.232,0.728553
268.0000,1.03049,252.359,0.730105
267.9000,1.20393,252.053,0.726368
267.8000,0.700686,252.382,0.730387
267.7000,0.148441,252.083,0.726729
267.6000,1.1418,252.121,0.727202
267.5000,0.347516,252.116,0.72713
267.4000,1.28095,251.915,0.724674
267.3000,1.44072,252.02,0.725958
267.2000,1.02989,252.142,0.727453
267.1000,0.605094,252.421,0.730856
267.0000,1.30896,252.165,0.72773
266.9000,1.02086,252.136,0.727375
266.8000,1.10881,252.223,0.728442
266.7000,1.06117,252.332,0.729771
266.6000,1.53172,252.115,0.727129
266.5000,0.625664,252.136,0.727376
266.4000,0.442975,252.116,0.72713
266.3000,0.929989,252.184,0.727968
266.2000,1.34567,252.256,0.728847
266.1000,1.08156,252.538,0.732295
266.0000,0.964552,252.415,0.73079
265.9000,0.219515,252.416,0.730803
265.8000,1.30973,252.287,0.729229
265.7000,1.23038,252.417,0.730815
265.6000,1.00015,252.54,0.732316
265.5000,1.0941,252.732,0.734654
265.4000,0.908764,252.339,0.729859
265.3000,0.58608,252.365,0.730174
265.2000,0.818121,252.312,0.729534
265.1000,0.861067,252.428,0.730948
265.0000,0.900846,252.266,0.728972
264.9000,0.938475,252.218,0.728382
264.8000,0.805901,252.647,0.733623
264.7000,0.587282,252.675,0.733957
264.6000,0.265708,252.605,0.733114
264.5000,0.272543,252.58,0.732808
264.4000,0.907818,252.843,0.736009
264.3000,1.58623,252.755,0.734939
264.2000,1.12759,252.504,0.731869
264.1000,0.167474,252.511,0.731964
264.0000,1.09652,252.535,0.732252
263.9000,0.724423,252.744,0.734804
263.8000,0.646473,252.731,0.734642
263.7000,1.50053,252.721,0.734518
263.6000,1.15345,252.645,0.733596
263.5000,0.798555,252.454,0.731268
263.4000,1.03746,252.644,0.733587
263.3000,1.25383,253.041,0.738425
263.2000,0.193983,252.511,0.731966
263.1000,1.50911,252.702,0.734297
263.0000,0.805051,252.923,0.736986
262.9000,1.10192,253.014,0.73809
262.8000,0.537654,252.662,0.733799
262.7000,1.34031,253.013,0.738081
262.6000,1.26565,253.012,0.738071
262.5000,1.12514,253.024,0.738216
262.4000,1.04875,253.119,0.73937
262.3000,1.05377,253.061,0.738674
262.2000,0.649939,252.908,0.736806
262.1000,0.539233,253.026,0.738242
262.0000,0.888536,253.171,0.740003
261.9000,0.440813,252.965,0.737498
261.8000,0.59958,252.655,0.733715
261.7000,0.960968,252.989,0.737787
261.6000,1.48251,253.348,0.742162
261.5000,0.664634,253.28,0.74133
261.4000,0.908266,253.277,0.741295
261.3000,0.936905,252.935,0.737132
261.2000,0.853741,253.24,0.740853
261.1000,-0.232887,253.017,0.738134
261.0000,1.0463,253.1,0.73914
260.9000,0.951253,253.35,0.742186
260.8000,1.22068,253.253,0.741008
260.7000,0.6207,253.13,0.739512
260.6000,0.604119,253.372,0.742457
260.5000,1.5928,253.252,0.740997
260.4000,0.860958,253.396,0.742743
260.3000,1.03403,253.345,0.74213
260.2000,1.04049,253.483,0.743807
260.1000,1.02049,253.555,0.744681
260.0000,0.742701,253.483,0.743812
259.9000,0.0955603,253.817,0.747871
259.8000,1.46187,253.521,0.744272
259.7000,1.26311,253.715,0.746624
259.6000,1.33049,253.631,0.745612
259.5000,0.5533,253.587,0.745076
259.4000,0.105266,253.53,0.744374
259.3000,0.564694,253.422,0.743062
259.2000,0.12275,253.476,0.743719
259.1000,0.338677,253.8,0.747661
259.0000,1.06414,253.784,0.747469
258.9000,1.19005,253.591,0.745119
258.8000,0.95836,253.61,0.745346
258.7000,0.574444,253.576,0.744934
258.6000,1.06592,253.558,0.744719
258.5000,1.07578,253.645,0.745777
258.4000,0.561573,253.692,0.746345
258.3000,1.07713,253.346,0.742144
258.2000,0.426132,253.986,0.749922
258.1000,0.328321,253.825,0.74797
258.0000,0.654928,254.139,0.751783
257.9000,1.27754,254.201,0.752532
257.8000,1.3627,254.111,0.751445
257.7000,0.770612,254.108,0.751407
257.6000,0.888668,253.915,0.749057
257.5000,1.26971,254.507,0.756239
257.4000,0.681247,254.09,0.751185
257.3000,0.194246,254.248,0.753099
257.2000,0.791766,254.397,0.754912
257.1000,0.905587,254.191,0.752414
257.0000,1.16621,254.489,0.756033
256.9000,1.63443,254.259,0.753233
256.8000,0.784661,254.268,0.753344
256.7000,0.825123,254.494,0.756082
256.6000,0.0646059,254.189,0.752388
256.5000,-0.0157634,254.416,0.755139
256.4000,0.271957,254.61,0.757492
256.3000,1.27458,254.41,0.755066
256.2000,1.2151,254.36,0.754462
256.1000,0.683428,254.36,0.754457
256.0000,1.38746,254.599,0.757359
255.9000,1.04405,254.706,0.758652
255.8000,0.724656,254.522,0.756427
255.7000,1.05465,254.422,0.75522
255.6000,1.32678,254.695,0.758527
255.5000,0.863724,254.577,0.75709
255.4000,0.00436502,254.708,0.75868
255.3000,0.928872,254.546,0.756714
255.2000,0.168877,254.433,0.755349
255.1000,0.503474,254.482,0.755938
255.0000,-0.137914,254.684,0.75839
254.9000,0.818775,254.85,0.760408
254.8000,1.23749,254.708,0.758681
254.7000,0.791146,254.794,0.75972
254.6000,1.05943,254.713,0.758747
254.5000,1.11233,254.994,0.762147
254.4000,1.3119,254.48,0.755913
254.3000,1.35262,254.977,0.761942
254.2000,0.219171,254.941,0.761507
254.1000,0.942292,254.781,0.759568
254.0000,1.04834,254.859,0.760511
253.9000,0.697171,254.898,0.760988
253.8000,-0.0321863,255.122,0.763699
253.7000,0.390985,254.743,0.759101
253.6000,0.524548,254.946,0.761559
253.5000,1.72366,254.965,0.761789
253.4000,0.816246,255.058,0.762923
253.3000,0.905643,255.03,0.762578
253.2000,1.03986,255.231,0.765015
253.1000,0.730638,255.028,0.762561
253.0000,1.08092,255.05,0.76282
252.9000,0.868504,255.128,0.763771
252.8000,0.834865,255.275,0.765546
252.7000,1.21565,254.901,0.761025
252.6000,1.24072,254.979,0.761962
252.5000,0.83208,255.421,0.767311
252.4000,1.24958,255.027,0.762551
252.3000,1.69299,255.523,0.768542
252.2000,1.04935,254.985,0.762039
252.1000,1.48136,255.315,0.766035
252.0000,0.851522,255.649,0.770062
251.9000,1.76484,255.312,0.765997
251.8000,1.1401,255.177,0.764364
251.7000,1.06641,255.325,0.766146
251.6000,1.3105,255.448,0.767637
251.5000,0.123592,255.497,0.768237
251.4000,1.29055,255.192,0.764542
251.3000,1.08767,255.259,0.765355
251.2000,0.208689,255.467,0.767864
251.1000,1.15729,255.472,0.767931
251.0000,1.48683,255.534,0.768673
250.9000,0.695439,255.352,0.766482
250.8000,1.0215,255.411,0.767186
250.7000,0.413949,255.263,0.765404
250.6000,1.17192,255.517,0.768468
250.5000,2.18906,255.605,0.769539
250.4000,-0.229828,255.446,0.767614
250.3000,0.30839,255.541,0.768768
250.2000,1.20763,255.451,0.767681
250.1000,0.786675,255.335,0.766268
250.0000,1.09766,255.572,0.769136
249.9000,1.2609,255.341,0.766347
249.8000,1.03582,255.487,0.768105
249.7000,1.19484,255.325,0.766148
249.6000,0.692001,255.664,0.770251
249.5000,1.0357,255.249,0.765233
249.4000,1.89051,255.528,0.768602
249.3000,1.26825,255.474,0.76795
249.2000,0.996611,255.24,0.765123
249.1000,0.520414,255.376,0.766769
249.0000,0.546865,255.346,0.766411
248.9000,0.836937,255.31,0.76597
248.8000,0.826352,255.503,0.768299
248.7000,0.749605,255.302,0.765876
248.6000,0.183299,255.406,0.767128
248.5000,0.596145,255.578,0.769211
248.4000,1.4937,255.535,0.768686
248.3000,1.35493,255.537,0.768711
248.2000,1.21355,255.394,0.766985
248.1000,0.458056,255.008,0.762313
248.0000,1.3271,255.189,0.764506
247.9000,1.22165,255.438,0.767519
247.8000,0.61416,255.101,0.763445
247.7000,1.14453,255.304,0.765896
247.6000,0.17342,255.306,0.765919
247.5000,1.65322,255.524,0.768555
247.4000,0.584749,255.66,0.7702
247.3000,1.48138,255.025,0.762521
247.2000,0.745543,255.658,0.770172
247.1000,0.499076,255.676,0.770396
247.0000,0.620293,255.707,0.770771
246.9000,0.61602,255.821,0.772143
246.8000,1.49357,255.714,0.770855
246.7000,1.28169,255.783,0.771691
246.6000,1.05161,255.525,0.768564
246.5000,-0.066698,255.827,0.772219
246.4000,0.649168,255.932,0.773483
246.3000,1.39402,255.636,0.769915
246.2000,0.933427,255.757,0.771372
246.1000,1.8392,256.1,0.775517
246.0000,1.63279,256.292,0.777829
245.9000,0.402945,256.066,0.775099
245.8000,0.572833,255.944,0.773626
245.7000,0.49688,256.073,0.77519
245.6000,0.614032,255.665,0.770266
245.5000,0.670987,255.549,0.768861
245.4000,-0.046445,256.191,0.776609
245.3000,1.1525,256.024,0.774601
245.2000,0.443329,255.845,0.772432
245.1000,1.27809,255.584,0.76928
245.0000,0.533961,255.879,0.772852
244.9000,1.2309,256.133,0.775911
244.8000,1.36604,255.821,0.772142
244.7000,0.490546,255.583,0.769271
244.6000,0.467753,255.881,0.772872
244.5000,0.611321,255.913,0.773251
244.4000,0.660592,256.061,0.77504
244.3000,0.320527,256.363,0.778688
244.2000,1.53976,256.222,0.776989
244.1000,0.643726,255.89,0.772985
244.0000,1.36228,256.272,0.777582
243.9000,1.20745,256.128,0.775851
243.8000,0.303661,255.914,0.773267
243.7000,1.27183,255.952,0.773731
243.6000,0.240651,256.232,0.777111
243.5000,1.32291,255.926,0.773408
243.4000,0.576816,256.221,0.77697
243.3000,1.49331,256.141,0.776002
243.2000,1.02442,256.392,0.779034
243.1000,0.867198,256.541,0.780829
243.0000,1.10808,256.382,0.77891
242.9000,0.4476,256.421,0.779389
242.8000,1.14313,256.042,0.774811
242.7000,0.11081,256.392,0.779029
242.6000,0.687592,256.251,0.777339
242.5000,0.962743,256.327,0.778248
242.4000,0.554321,256.288,0.777779
242.3000,0.76492,256.342,0.778436
242.2000,0.298233,256.44,0.779608
242.1000,0.783045,256.788,0.783806
242.0000,0.783336,256.458,0.779834
241.9000,0.918395,256.417,0.779333
241.8000,0.852959,256.671,0.782397
241.7000,0.955226,256.626,0.781857
241.6000,1.55271,256.575,0.781236
241.5000,1.54994,256.863,0.784704
241.4000,0.689473,256.568,0.781158
241.3000,0.53826,256.423,0.779407
241.2000,1.20962,256.727,0.783071
241.1000,0.427711,256.785,0.783772
241.0000,0.090586,256.635,0.781967
240.9000,0.198252,256.696,0.782702
240.8000,0.749387,256.874,0.784844
240.7000,1.59376,256.841,0.784437
240.6000,0.773341,256.675,0.782446
240.5000,0.469307,256.873,0.784826
240.4000,1.14881,256.642,0.782049
240.3000,1.07789,257.021,0.786613
240.2000,0.232872,257.098,0.787535
240.1000,1.13577,256.949,0.785737
240.0000,0.379591,257.267,0.789568
239.9000,0.0537187,257.445,0.791704
239.8000,1.06777,257.313,0.790125
239.7000,0.462259,257.189,0.788631
239.6000,0.860687,257.209,0.788865
239.5000,0.416098,257.396,0.791112
239.4000,0.104825,257.421,0.791415
239.3000,-0.131974,257.24,0.78924
239.2000,0.641066,257.703,0.7948
239.1000,0.328655,257.811,0.796101
239.0000,0.134197,257.79,0.795848
238.9000,1.07294,257.794,0.795893
238.8000,1.09529,257.76,0.795482
238.7000,0.771115,258.114,0.799727
238.6000,0.157735,257.9,0.797169
238.5000,-0.22118,258.311,0.802097
238.4000,0.867393,257.919,0.797397
238.3000,0.0300762,257.944,0.797691
238.2000,-0.129572,258.212,0.800904
238.1000,0.0817246,258.408,0.803257
238.0000,-0.281661,258.054,0.799009
237.9000,0.0846051,258.278,0.801692
237.8000,0.85931,258.551,0.804963
237.7000,1.21085,258.693,0.806664
237.6000,0.132991,258.435,0.803582
237.5000,0.592347,258.546,0.804905
237.4000,1.19134,258.563,0.805105
237.3000,0.731779,258.57,0.805197
237.2000,0.194681,258.735,0.807164
237.1000,0.540323,259.017,0.810543
237.0000,0.00606617,258.808,0.808042
236.9000,0.822875,258.427,0.803477
236.8000,-0.297923,258.959,0.809846
236.7000,1.2215,259.039,0.810808
236.6000,-0.100295,258.991,0.810231
236.5000,0.522155,259.15,0.812129
236.4000,0.577213,258.99,0.810216
236.3000,0.241115,259.163,0.812286
236.2000,0.421072,259.311,0.81405
236.1000,0.876929,259.117,0.811732
236.0000,0.46875,259.441,0.815604
235.9000,0.0208769,259.482,0.816092
235.8000,0.791774,259.15,0.812127
235.7000,-0.0745992,259.599,0.817493
235.6000,-0.156592,259.5,0.816312
235.5000,-0.214795,259.582,0.817285
235.4000,-0.069261,259.496,0.816259
235.3000,-0.839697,260.011,0.822406
235.2000,-0.0428159,259.982,0.822059
235.1000,0.618435,260.049,0.822852
235.0000,-0.627442,260.083,0.823259
234.9000,-0.661765,260.055,0.822924
234.8000,-0.113229,260.005,0.822333
234.7000,0.33258,260.364,0.82661
234.6000,-0.2822,260.517,0.828425
234.5000,0.0116101,260.343,0.826356
234.4000,-0.773757,260.511,0.828349
234.3000,0.313881,260.249,0.825236
234.2000,0.00221862,260.584,0.829226
234.1000,-0.206884,260.56,0.828937
234.0000,0.791786,260.703,0.83064
233.9000,-0.152666,260.725,0.830901
233.8000,-0.260812,260.595,0.829354
233.7000,-0.0715612,261.038,0.834611
233.6000,0.27882,261.145,0.835881
233.5000,-1.21461,261.367,0.838518
233.4000,0.702439,261.27,0.837373
233.3000,-0.38655,261.351,0.838329
233.2000,-0.0710779,261.438,0.839366
233.1000,0.0618169,261.661,0.84201
233.0000,-0.727527,261.506,0.840169
232.9000,-0.791252,261.433,0.839303
232.8000,-0.00380009,261.458,0.839604
232.7000,-0.867913,261.984,0.845838
232.6000,-0.121838,261.984,0.845829
232.5000,-0.483506,261.76,0.843184
232.4000,-0.39404,261.701,0.842483
232.3000,-0.175249,261.924,0.845127
232.2000,-0.374635,261.768,0.84328
232.1000,-0.00366361,261.585,0.84111
232.0000,-1.37351,261.99,0.845907
231.9000,-0.676375,262.22,0.848631
231.8000,0.16947,262.55,0.852532
231.7000,-1.0052,262.236,0.848815
231.6000,-1.54305,262.475,0.851645
231.5000,-1.04871,262.701,0.85431
231.4000,-0.833491,262.616,0.853308
231.3000,-0.613539,262.719,0.854523
231.2000,-0.059113,262.805,0.85554
231.1000,-0.492626,262.876,0.856378
231.0000,-1.73348,262.556,0.852603
230.9000,-1.24526,262.727,0.854619
230.8000,-0.7335,262.687,0.854144
230.7000,-1.32827,263.031,0.858206
230.6000,-0.355905,262.995,0.857782
230.5000,-0.640379,262.738,0.854751
230.4000,-1.12105,262.973,0.857525
230.3000,-2.29159,262.938,0.857107
230.2000,-0.655495,263.046,0.858381
230.1000,-0.981854,262.9,0.856662
230.0000,-0.673413,262.893,0.85658
229.9000,-0.877709,262.748,0.85487
229.8000,-0.647204,262.769,0.855113
229.7000,-1.51312,262.693,0.854213
229.6000,-1.07561,262.843,0.855986
229.5000,-0.893907,263.173,0.859885
229.4000,-1.58674,263.34,0.861857
229.3000,-1.62943,263.323,0.861654
229.2000,-1.63422,263.397,0.862525
229.1000,-1.44693,263.489,0.863613
229.0000,-2.21812,263.592,0.864824
228.9000,-1.61028,263.769,0.866904
228.8000,-0.892235,263.902,0.868478
228.7000,-1.32236,264.188,0.871833
228.6000,-1.2434,264.347,0.873701
228.5000,-1.98561,264.483,0.875308
228.4000,-1.52241,264.342,0.873642
228.3000,-0.970268,264.56,0.876207
228.2000,-1.5462,264.666,0.877453
228.1000,-1.62978,264.285,0.87298
228.0000,-1.29307,264.969,0.881005
227.9000,-1.54112,264.917,0.880394
227.8000,-1.01066,265.154,0.88318
227.7000,-1.42586,265.416,0.886242
227.6000,-1.7875,265.492,0.887137
227.5000,-1.58251,265.402,0.886079
227.4000,-1.47763,265.477,0.886958
227.3000,-1.51777,265.825,0.89104
227.2000,-1.43964,265.557,0.887901
227.1000,-1.59022,265.78,0.890507
227.0000,-0.14005,265.534,0.887627
226.9000,-1.62493,265.952,0.892516
226.8000,-1.58285,265.863,0.891479
226.7000,-1.75319,266.096,0.894208
226.6000,-2.06697,266.041,0.893558
226.5000,-2.06389,266.175,0.895131
226.4000,-1.01731,265.981,0.892857
226.3000,-1.37753,266.513,0.899076
226.2000,-1.51535,266.16,0.894954
226.1000,-2.16743,266.447,0.898303
226.0000,-1.6168,266.485,0.898745
225.9000,-1.33708,266.495,0.898865
225.8000,-1.84365,266.801,0.902439
225.7000,-2.07328,266.868,0.903215
225.6000,-0.699154,266.944,0.904106
225.5000,-1.25418,266.971,0.904415
225.4000,-1.71559,266.985,0.904584
225.3000,-2.23734,267.191,0.906975
225.2000,-2.00376,267.305,0.908301
225.1000,-1.74136,267.15,0.906506
225.0000,-1.75389,267.328,0.908569
224.9000,-1.74147,267.668,0.912525
224.8000,-1.92702,267.662,0.912465
224.7000,-2.28419,267.865,0.914817
224.6000,-1.64211,267.768,0.913698
224.5000,-2.91494,267.665,0.9125
224.4000,-1.33878,268.022,0.916651
224.3000,-2.49233,268.007,0.916471
224.2000,-0.830236,268.079,0.917309
224.1000,-2.72892,268.094,0.917487
224.0000,-2.19322,268.344,0.920388
223.9000,-2.18502,268.53,0.922546
223.8000,-2.56274,268.398,0.921016
223.7000,-1.17939,268.316,0.920056
223.6000,-1.72059,268.52,0.922428
223.5000,-2.13012,268.744,0.925028
223.4000,-1.88277,268.52,0.922422
223.3000,-1.88782,268.721,0.924757
223.2000,-1.78836,269.113,0.929295
223.1000,-3.21896,268.84,0.926133
223.0000,-1.22751,269.179,0.930061
222.9000,-2.13149,269.105,0.929209
222.8000,-2.222,269.252,0.930904
222.7000,-2.2314,269.371,0.93229
222.6000,-2.11977,269.336,0.931876
222.5000,-2.10858,269.589,0.934811
222.4000,-1.48962,269.37,0.932277
222.3000,-1.918,269.584,0.934749
222.2000,-1.63091,269.628,0.935252
222.1000,-2.11963,269.407,0.932703
222.0000,-2.2244,269.688,0.93595
221.9000,-2.59793,269.893,0.93832
221.8000,-1.54346,269.944,0.938909
221.7000,-1.77352,269.86,0.937937
221.6000,-1.61243,270.054,0.940178
221.5000,-2.35048,270.144,0.941213
221.4000,-1.83995,270.295,0.942958
221.3000,-1.96181,270.15,0.941289
221.2000,-1.73086,270.385,0.943998
221.1000,-2.2046,270.715,0.947802
221.0000,-2.67772,270.555,0.945958
220.9000,-3.04503,270.401,0.944178
220.8000,-1.88911,270.708,0.947722
220.7000,-1.5492,270.836,0.949198
220.6000,-1.45378,270.605,0.946538
220.5000,-1.86624,270.948,0.950481
220.4000,-2.35018,270.733,0.948013
220.3000,-1.95313,270.883,0.949733
220.2000,-2.03445,271.127,0.952547
220.1000,-2.8213,270.989,0.950962
220.0000,-1.95868,271.169,0.953025
219.9000,-1.99575,271.278,0.954282
219.8000,-2.10936,271.256,0.95403
219.7000,-2.12252,271.524,0.957108
219.6000,-2.06109,271.537,0.957266
219.5000,-1.72697,271.428,0.956006
219.4000,-1.40193,271.477,0.956569
219.3000,-2.17543,271.742,0.95962
219.2000,-2.43583,271.833,0.96066
219.1000,-1.55668,271.761,0.959836
219.0000,-1.66363,271.895,0.961369
218.9000,-2.08169,271.851,0.960862
218.8000,-2.17638,271.863,0.961002
218.7000,-1.14388,271.833,0.960667
218.6000,-1.85207,271.872,0.961107
218.5000,-1.54328,271.973,0.962272
218.4000,-1.57642,272.365,0.966762
218.3000,-1.11383,272.332,0.966386
218.2000,-2.37813,272.165,0.964475
218.1000,-2.70975,272.448,0.967714
218.0000,-2.55902,272.783,0.971549
217.9000,-1.69759,272.633,0.969839
217.8000,-1.2273,272.725,0.970891
217.7000,-1.91306,272.443,0.967658
217.6000,-2.52215,272.926,0.973192
217.5000,-2.29309,272.596,0.969416
217.4000,-1.67521,273.215,0.976495
217.3000,-1.30261,273.066,0.974794
217.2000,-2.91002,273.213,0.976476
217.1000,-2.47525,273.246,0.976849
217.0000,-2.56628,273.538,0.98019
216.9000,-1.29212,273.46,0.979295
216.8000,-1.33285,273.867,0.983944
216.7000,-1.91154,273.582,0.980695
216.6000,-2.048,273.733,0.982411
216.5000,-1.94594,273.78,0.982955
216.4000,-1.4918,273.636,0.981308
216.3000,-0.637559,273.731,0.982395
216.2000,-1.65358,273.708,0.982123
216.1000,-2.61742,273.937,0.984741
216.0000,-1.72762,273.895,0.984258
215.9000,-2.44608,274.043,0.985946
215.8000,-2.03256,274.113,0.986747
215.7000,-2.35627,274.193,0.987664
215.6000,-1.95506,274.193,0.987664
215.5000,-1.55934,274.196,0.987697
215.4000,-1.8776,274.49,0.991041
215.3000,-1.56059,274.484,0.990976
215.2000,-1.01402,274.598,0.992275
215.1000,-2.20968,274.687,0.993294
215.0000,-2.31338,274.746,0.993964
214.9000,-1.63351,274.804,0.994625
214.8000,-2.16512,274.903,0.995751
214.7000,-1.49362,275.029,0.997177
214.6000,-2.29943,274.988,0.996708
214.5000,-2.10225,274.989,0.996728
214.4000,-1.26113,275.29,1.00014
214.3000,-1.70927,275.212,0.999263
214.2000,-2.19629,275.132,0.998356
214.1000,-1.3012,275.131,0.998336
214.0000,-2.00241,275.371,1.00106
213.9000,-2.52887,275.359,1.00093
213.8000,-1.5932,275.291,1.00016
213.7000,-2.1813,275.3,1.00026
213.6000,-0.790499,275.58,1.00344
213.5000,-1.09641,275.728,1.00512
213.4000,-0.819436,275.6,1.00367
213.3000,-2.51224,276.127,1.00965
213.2000,-1.48752,275.965,1.00781
213.1000,-1.22617,275.945,1.00758
213.0000,-2.37952,276.037,1.00863
212.9000,-1.05179,275.703,1.00483
212.8000,-1.05519,275.967,1.00783
212.7000,-0.817728,276.04,1.00866
212.6000,-1.91468,276.104,1.00938
212.5000,-1.46522,276.318,1.01181
212.4000,-2.57485,276.469,1.01351
212.3000,-0.640198,276.523,1.01413
212.2000,-0.934656,276.483,1.01368
212.1000,-1.62608,276.715,1.0163
212.0000,-2.3238,276.985,1.01936
211.9000,-1.80776,276.894,1.01832
211.8000,-1.73041,277.293,1.02284
211.7000,-2.08938,277.172,1.02147
211.6000,-1.53384,277.12,1.02088
211.5000,-2.33128,277.232,1.02215
211.4000,-2.12481,277.606,1.02637
211.3000,-2.46149,277.572,1.02599
211.2000,-2.08235,277.461,1.02474
211.1000,-0.555597,277.811,1.02869
211.0000,-1.8171,277.723,1.02769
210.9000,-2.37637,277.919,1.0299
210.8000,-1.92122,277.941,1.03014
210.7000,-1.33215,277.958,1.03034
210.6000,-2.4969,278.095,1.03189
210.5000,-2.26812,278.58,1.03734
210.4000,-1.76508,278.307,1.03427
210.3000,-1.94285,278.284,1.03401
210.2000,-2.43033,278.591,1.03747
210.1000,-2.16523,278.523,1.0367
210.0000,-1.92814,278.553,1.03704
209.9000,-2.12771,278.995,1.04201
209.8000,-1.43022,278.818,1.04002
209.7000,-2.02393,279.049,1.04261
209.6000,-1.32392,279.127,1.04349
209.5000,-2.05866,279.108,1.04328
209.4000,-1.88197,279.642,1.04928
209.3000,-2.0568,279.446,1.04708
209.2000,-1.50023,279.749,1.05047
209.1000,-1.68972,279.776,1.05077
209.0000,-1.803,279.984,1.0531
208.9000,-1.87095,279.92,1.05239
208.8000,-1.24637,279.856,1.05167
208.7000,-1.19304,280.004,1.05333
208.6000,-2.72313,280.288,1.05651
208.5000,-2.29727,280.389,1.05764
208.4000,-1.93893,280.495,1.05882
208.3000,-2.01714,280.24,1.05597
208.2000,-2.02993,280.267,1.05627
208.1000,-0.919622,281.091,1.06549
208.0000,-2.39255,280.902,1.06338
207.9000,-1.72154,281.051,1.06504
207.8000,-1.4958,281.27,1.06749
207.7000,-2.65825,281.736,1.07269
207.6000,-2.5806,281.629,1.07149
207.5000,-1.44232,282.098,1.07672
207.4000,-1.1052,281.956,1.07514
207.3000,-1.36123,281.795,1.07335
207.2000,-1.84426,281.944,1.075
207.1000,-0.681602,282.213,1.078
207.0000,-1.62629,282.645,1.0828
206.9000,-1.26853,282.314,1.07912
206.8000,-1.46864,282.618,1.0825
206.7000,-1.28004,282.772,1.08421
206.6000,-0.986147,282.871,1.08531
206.5000,-1.60735,282.836,1.08493
206.4000,-1.93368,283.773,1.09532
206.3000,-0.343799,283.185,1.0888
206.2000,-1.19525,283.401,1.09119
206.1000,-1.2771,283.816,1.09579
206.0000,-0.916457,283.935,1.09711
205.9000,-0.572424,284.191,1.09995
205.8000,-1.15121,284.309,1.10126
205.7000,-0.489377,284.145,1.09944
205.6000,-1.10419,284.208,1.10014
205.5000,-0.7355,284.572,1.10416
205.4000,-1.03148,284.737,1.10598
205.3000,-0.686403,285.108,1.11008
205.2000,-0.677777,285.498,1.11438
205.1000,-0.288216,285.835,1.1181
205.0000,0.104318,285.496,1.11436
204.9000,0.848144,285.747,1.11713
204.8000,0.420467,286.005,1.11997
204.7000,-0.0703287,286.364,1.12391
204.6000,0.0256002,286.378,1.12407
204.5000,-0.308773,286.658,1.12714
204.4000,-0.717548,286.493,1.12533
204.3000,0.789529,287.021,1.13114
204.2000,0.908383,287.161,1.13267
204.1000,-0.222276,287.262,1.13378
204.0000,0.407916,287.683,1.1384
203.9000,0.864928,287.172,1.13279
203.8000,-0.602841,288.181,1.14384
203.7000,0.441657,288.07,1.14263
203.6000,2.5853,287.943,1.14124
203.5000,0.81589,288.714,1.14967
203.4000,0.657423,288.832,1.15096
203.3000,1.10795,288.832,1.15096
203.2000,1.55853,289.126,1.15416
203.1000,1.77791,289.155,1.15448
203.0000,1.27705,289.19,1.15487
202.9000,1.93669,289.527,1.15854
202.8000,1.20761,289.834,1.16188
202.7000,1.35105,290.11,1.16489
202.6000,-0.397484,289.972,1.16338
202.5000,2.11719,290.21,1.16598
202.4000,1.31508,290.419,1.16824
202.3000,2.6639,290.73,1.17163
202.2000,2.28423,291.472,1.17968
202.1000,2.12754,291.373,1.1786
202.0000,1.55485,291.408,1.17897
201.9000,3.07237,291.86,1.18388
201.8000,3.04249,292.264,1.18825
201.7000,3.37169,292.137,1.18687
201.6000,2.19233,292.416,1.18988
201.5000,2.30708,292.686,1.19281
201.4000,2.68135,293.214,1.1985
201.3000,0.941399,293.301,1.19943
201.2000,2.23859,293.662,1.20333
201.1000,2.4553,293.877,1.20564
201.0000,3.26704,293.79,1.2047
200.9000,4.37766,294.232,1.20946
200.8000,2.60637,294.766,1.2152
200.7000,2.62514,294.394,1.2112
200.6000,2.88371,295.134,1.21914
200.5000,3.93423,295.415,1.22216
200.4000,3.82184,295.56,1.22371
200.3000,3.11398,296.057,1.22903
200.2000,4.54177,295.902,1.22737
200.1000,4.02332,296.262,1.23122
200.0000,4.38347,296.432,1.23303
199.9000,3.4144,297.073,1.23988
199.8000,5.23629,297.032,1.23944
199.7000,6.83939,297.231,1.24156
199.6000,6.15605,297.306,1.24236
199.5000,4.31778,297.548,1.24495
199.4000,4.73237,297.945,1.24917
199.3000,5.82147,298.324,1.2532
199.2000,6.22835,298.336,1.25333
199.1000,5.53303,298.364,1.25363
199.0000,6.7323,298.829,1.25856
198.9000,4.91993,299.062,1.26103
198.8000,6.37208,298.819,1.25846
198.7000,5.88372,299.124,1.26169
198.6000,7.18414,299.789,1.26874
198.5000,5.68942,299.964,1.27059
198.4000,6.03828,300.115,1.27218
198.3000,7.1162,300.41,1.2753
198.2000,5.35627,300.756,1.27895
198.1000,7.15171,300.789,1.2793
198.0000,7.12638,301.232,1.28398
197.9000,7.32133,301.49,1.2867
197.8000,7.80023,301.712,1.28903
197.7000,6.85254,301.964,1.29169
197.6000,7.1311,302.084,1.29295
197.5000,7.58277,302.229,1.29448
197.4000,7.22025,302.781,1.30027
197.3000,9.09765,302.553,1.29787
197.2000,9.06125,303.223,1.3049
197.1000,9.3659,303.286,1.30557
197.0000,7.55771,304.036,1.31342
196.9000,7.78866,303.632,1.30919
196.8000,8.82954,304.783,1.32123
196.7000,8.07139,304.718,1.32055
196.6000,8.31963,304.928,1.32274
196.5000,7.80746,305.15,1.32506
196.4000,7.74059,306.037,1.3343
196.3000,7.99588,306.229,1.33629
196.2000,9.13474,306.529,1.33941
196.1000,9.43551,306.632,1.34049
196.0000,8.88834,307.106,1.34541
195.9000,9.01031,307.83,1.3529
195.8000,8.50279,308.122,1.35593
195.7000,9.34689,307.905,1.35369
195.6000,8.74679,308.518,1.36002
195.5000,9.23253,308.562,1.36048
195.4000,10.0446,309.125,1.36628
195.3000,9.35484,309.424,1.36937
195.2000,7.80759,309.495,1.3701
195.1000,8.66771,310.051,1.37583
195.0000,9.19205,310.248,1.37785
194.9000,8.61083,310.704,1.38254
194.8000,8.36714,311.049,1.38609
194.7000,8.22412,311.527,1.39099
194.6000,9.17921,311.897,1.39479
194.5000,8.89473,312.285,1.39875
194.4000,9.98252,312.702,1.40301
194.3000,7.90363,313.227,1.40837
194.2000,9.39067,313.786,1.41408
194.1000,9.7047,314.431,1.42065
194.0000,10.8087,314.906,1.42547
193.9000,8.73023,315.935,1.43591
193.8000,10.1995,316.479,1.44141
193.7000,9.12459,317.321,1.44992
193.6000,9.32986,317.844,1.4552
193.5000,7.56541,318.243,1.45922
193.4000,8.02504,318.921,1.46605
193.3000,11.1268,319.261,1.46946
193.2000,9.3685,319.609,1.47296
193.1000,11.1801,320.446,1.48134
193.0000,10.3133,321.122,1.48811
192.9000,8.84418,321.825,1.49513
192.8000,10.8149,322.535,1.5022
192.7000,8.27666,323.379,1.51059
192.6000,9.62063,324.302,1.51975
192.5000,9.23906,325.153,1.52818
192.4000,9.90997,326.19,1.53842
192.3000,9.64275,326.885,1.54527
192.2000,7.64875,327.872,1.55498
192.1000,8.56853,328.491,1.56105
192.0000,10.4966,328.968,1.56573
191.9000,9.21903,330.459,1.58031
191.8000,9.43895,331.174,1.58728
191.7000,8.53889,332.084,1.59613
191.6000,9.46904,332.736,1.60245
191.5000,10.0519,334.26,1.61722
191.4000,8.2895,335.29,1.62716
191.3000,9.32941,335.845,1.63251
191.2000,8.26781,337.606,1.64942
191.1000,10.7864,338.883,1.66164
191.0000,8.22159,340.392,1.67603
190.9000,10.4305,342.098,1.69224
190.8000,8.66202,343.914,1.70942
190.7000,8.44984,345.228,1.72179
190.6000,8.35516,346.842,1.73695
190.5000,9.23169,348.1,1.74871
190.4000,10.1756,349.693,1.76357
190.3000,8.70127,350.72,1.77312
190.2000,9.37652,352.253,1.78732
190.1000,8.43643,353.474,1.7986
190.0000,8.66312,355.159,1.81411

##### Extended Information
[Comments]
Sample name,class
Comment
User
Division
Company,Saint Mary's College

[Detailed Information]
Creation date,9/30/2021 2:02 PM

Data array type,Linear data array * 3
Horizontal axis,Wavelength [nm]
Vertical axis(1),CD [mdeg]
Vertical axis(2),HT [V]
Vertical axis(3),Abs
Start,290 nm
End,190 nm
Data interval,0.1 nm
Data points,1001    

[Measurement Information]
Instrument name,J-1500
Model name,J-1500
Serial number,B051061638


