TITLE,class
DATA TYPE,
ORIGIN,JASCO
OWNER,
DATE,21/09/28
TIME,14:47:23
SPECTROMETER/DATA SYSTEM,
LOCALE,1033
RESOLUTION,
DELTAX,-0.1
XUNITS,NANOMETERS
YUNITS,CD [mdeg]
Y2UNITS,HT [V]
Y3UNITS,ABSORBANCE
FIRSTX,  320.0000
LASTX,  190.0000
NPOINTS,    1301
FIRSTY,    -0.54658
MAXY,     8.97451
MINY,    -5.31787
XYDATA
320.0000,-0.546578,254.525,0.756469
319.9000,2.0296,254.99,0.762098
319.8000,2.47244,254.215,0.752702
319.7000,5.42805,255.367,0.766663
319.6000,2.47745,253.846,0.748216
319.5000,2.41774,255.212,0.764786
319.4000,3.40937,255.084,0.763236
319.3000,4.13398,254.175,0.752221
319.2000,2.07691,254.779,0.759545
319.1000,3.79722,254.425,0.755246
319.0000,3.11027,254.723,0.758859
318.9000,2.49426,254.766,0.759381
318.8000,4.36189,255.339,0.766321
318.7000,2.21546,254.876,0.760712
318.6000,1.7956,255.064,0.76299
318.5000,-2.03208,254.446,0.755507
318.4000,5.78212,255.278,0.765581
318.3000,-2.74962,254.444,0.755479
318.2000,1.07767,254.392,0.754847
318.1000,0.57107,254.476,0.755864
318.0000,0.65847,254.978,0.761947
317.9000,0.920378,254.957,0.7617
317.8000,0.260607,254.851,0.76041
317.7000,5.2517,254.642,0.757884
317.6000,3.08551,254.742,0.759092
317.5000,1.85487,253.786,0.747486
317.4000,-0.109969,254.711,0.758722
317.3000,1.46474,254.34,0.754215
317.2000,2.71624,255.043,0.762743
317.1000,1.78389,254.411,0.755081
317.0000,3.03871,254.76,0.759312
316.9000,3.88488,254.637,0.757815
316.8000,3.66432,254.572,0.757032
316.7000,-1.3483,254.821,0.760053
316.6000,1.60382,254.18,0.752276
316.5000,0.167043,254.631,0.757746
316.4000,-0.277995,255.014,0.762386
316.3000,0.566459,253.983,0.749882
316.2000,0.526526,254.614,0.75754
316.1000,0.561831,254.302,0.753761
316.0000,0.390445,254.561,0.756895
315.9000,4.43496,254.005,0.750157
315.8000,0.930141,254.555,0.756826
315.7000,-2.27197,254.987,0.762057
315.6000,1.13028,253.995,0.750033
315.5000,2.34698,254.844,0.760328
315.4000,4.66095,254.455,0.755617
315.3000,0.798172,254.031,0.750474
315.2000,3.76327,253.886,0.748711
315.1000,1.53173,254.24,0.753005
315.0000,3.74168,254.138,0.751767
314.9000,3.12249,254.361,0.754476
314.8000,-0.393017,254.924,0.761302
314.7000,-0.777811,254.335,0.75416
314.6000,2.80074,254.737,0.759037
314.5000,-0.224253,253.55,0.74462
314.4000,3.14417,254.46,0.755672
314.3000,-0.268463,254.324,0.754022
314.2000,2.17047,253.407,0.742883
314.1000,4.29469,254.434,0.755356
314.0000,1.2086,253.852,0.748298
313.9000,4.00945,253.869,0.748505
313.8000,1.54211,253.729,0.746797
313.7000,-1.09068,254.523,0.756441
313.6000,1.80816,254.174,0.752207
313.5000,2.49005,252.949,0.737308
313.4000,2.21479,254.179,0.752262
313.3000,1.40131,252.896,0.736658
313.2000,4.31727,254.431,0.755328
313.1000,3.47418,254.303,0.753775
313.0000,3.02551,253.939,0.749345
312.9000,2.48024,253.569,0.744854
312.8000,1.99639,253.357,0.742276
312.7000,3.24754,252.33,0.729745
312.6000,3.10926,253.847,0.74823
312.5000,0.515396,253.433,0.7432
312.4000,0.276776,253.789,0.747527
312.3000,-0.485822,253.297,0.741545
312.2000,0.475322,253.763,0.74721
312.1000,2.63554,253.26,0.74109
312.0000,2.47593,253.668,0.746053
311.9000,0.192421,254.271,0.753376
311.8000,1.34346,253.841,0.748161
311.7000,2.20645,254.139,0.751781
311.6000,-0.812505,254.012,0.750239
311.5000,3.60144,254.429,0.755301
311.4000,0.668524,254.634,0.757788
311.3000,2.09992,253.686,0.746274
311.2000,1.60508,253.731,0.746825
311.1000,2.62281,254.086,0.751134
311.0000,2.08753,254.407,0.755026
310.9000,2.93741,254.654,0.758021
310.8000,2.88613,253.976,0.749799
310.7000,3.11368,253.984,0.749895
310.6000,5.15783,253.627,0.745557
310.5000,1.36739,254.281,0.7535
310.4000,1.02384,255.24,0.765129
310.3000,3.59621,254.215,0.752702
310.2000,3.5812,254.227,0.752853
310.1000,1.80683,254.207,0.752606
310.0000,1.28518,253.924,0.749166
309.9000,-0.314754,254.618,0.757595
309.8000,3.95015,253.962,0.749634
309.7000,3.49047,253.907,0.748959
309.6000,2.99839,253.764,0.747224
309.5000,5.6097,253.994,0.750019
309.4000,0.274933,254.114,0.751478
309.3000,3.1957,254.47,0.755796
309.2000,0.909949,253.052,0.738564
309.1000,3.65214,253.199,0.740345
309.0000,1.11126,253.655,0.745902
308.9000,0.78929,253.779,0.747403
308.8000,2.97934,253.956,0.749551
308.7000,0.600591,254.087,0.751148
308.6000,1.48028,254.109,0.751409
308.5000,2.21467,254.259,0.753239
308.4000,1.34826,253.78,0.747417
308.3000,0.96572,253.961,0.74962
308.2000,-1.1797,254.416,0.755136
308.1000,2.09697,254.145,0.751849
308.0000,2.36078,254.294,0.753665
307.9000,4.03431,253.724,0.746742
307.8000,1.3872,253.406,0.742869
307.7000,-1.16298,253.653,0.745874
307.6000,1.56539,253.53,0.744372
307.5000,4.62925,253.182,0.740138
307.4000,-0.172145,253.233,0.740759
307.3000,2.76035,253.838,0.748119
307.2000,2.52105,254.408,0.75504
307.1000,-0.202325,253.259,0.741076
307.0000,1.70958,253.557,0.744703
306.9000,4.38042,253.015,0.738108
306.8000,0.992038,253.491,0.743903
306.7000,2.48937,253.46,0.743531
306.6000,0.601801,254.405,0.755012
306.5000,3.97173,253.695,0.746384
306.4000,1.25251,253.718,0.746659
306.3000,3.4324,252.785,0.735304
306.2000,3.6142,253.149,0.739737
306.1000,3.47515,253.851,0.748285
306.0000,2.68985,253.781,0.747431
305.9000,0.22244,253.459,0.743517
305.8000,-0.685542,253.967,0.749689
305.7000,0.971791,253.039,0.738398
305.6000,1.46688,253.182,0.740138
305.5000,1.34366,254.004,0.750143
305.4000,1.32453,252.941,0.737211
305.3000,1.80505,253.119,0.739379
305.2000,1.13428,253.442,0.74331
305.1000,0.707496,252.804,0.735539
305.0000,1.00525,253.282,0.741365
304.9000,1.07453,253.434,0.743214
304.8000,2.06623,253.22,0.740607
304.7000,0.418751,253.706,0.746522
304.6000,1.52815,252.849,0.736078
304.5000,2.18282,253.596,0.745185
304.4000,3.8103,253.919,0.749111
304.3000,1.71566,252.889,0.736575
304.2000,1.75159,254.322,0.753995
304.1000,-0.451342,253.671,0.746095
304.0000,2.99665,253.931,0.749248
303.9000,1.46576,252.696,0.734213
303.8000,2.35151,253.001,0.737943
303.7000,1.86854,253.045,0.738467
303.6000,2.3933,252.989,0.737791
303.5000,3.217,253.234,0.740772
303.4000,2.76229,253.126,0.739461
303.3000,-1.54368,253.162,0.739903
303.2000,3.17469,253.255,0.741035
303.1000,1.84589,253.518,0.744234
303.0000,0.278615,253.431,0.743173
302.9000,0.992876,252.75,0.734876
302.8000,2.15269,252.895,0.736645
302.7000,2.06048,253.557,0.744703
302.6000,2.43261,252.861,0.73623
302.5000,2.3473,253.021,0.738177
302.4000,3.25931,253.433,0.7432
302.3000,2.21169,253.127,0.739475
302.2000,3.18599,253.199,0.740345
302.1000,1.70836,252.504,0.731876
302.0000,2.49789,253.159,0.739862
301.9000,0.720954,253.215,0.740538
301.8000,4.07708,253.092,0.739047
301.7000,4.5844,252.961,0.737446
301.6000,1.7567,253.115,0.739323
301.5000,3.7649,252.926,0.737017
301.4000,1.82618,253.235,0.740786
301.3000,3.02685,253.592,0.74513
301.2000,4.69429,252.316,0.729579
301.1000,3.51802,253.013,0.738081
301.0000,2.45388,253.183,0.740151
300.9000,1.17677,253.704,0.746494
300.8000,-0.488008,252.764,0.735042
300.7000,3.58651,253.313,0.741738
300.6000,6.58135,253.201,0.740372
300.5000,1.46941,252.526,0.732139
300.4000,3.18733,252.921,0.736962
300.3000,3.02271,252.685,0.734088
300.2000,0.339417,252.093,0.726852
300.1000,2.87882,252.573,0.732719
300.0000,3.82272,253.208,0.740455
299.9000,1.16132,253.173,0.740027
299.8000,0.381855,253.137,0.739599
299.7000,3.19308,253.373,0.742469
299.6000,2.74822,252.606,0.73312
299.5000,1.41608,253.627,0.745557
299.4000,0.650409,252.345,0.729939
299.3000,1.41921,251.182,0.7157
299.2000,0.300501,253.02,0.738164
299.1000,2.88535,252.324,0.729676
299.0000,4.29243,253.486,0.743848
298.9000,2.43203,252.94,0.737197
298.8000,2.41499,252.672,0.733922
298.7000,2.23339,252.606,0.73312
298.6000,-0.127943,252.033,0.726118
298.5000,2.83165,253.792,0.747568
298.4000,3.64278,252.429,0.730963
298.3000,3.0339,252.199,0.728153
298.2000,0.451243,252.489,0.731696
298.1000,2.49108,253.448,0.743379
298.0000,0.644524,252.304,0.729427
297.9000,4.4772,252.901,0.736714
297.8000,2.58533,251.892,0.7244
297.7000,-1.01062,252.606,0.73312
297.6000,0.175801,253.807,0.747748
297.5000,1.8559,252.807,0.735567
297.4000,0.083346,251.848,0.723859
297.3000,2.93042,252.686,0.734102
297.2000,4.10655,252.208,0.728264
297.1000,-0.671667,251.998,0.725688
297.0000,0.602232,252.454,0.731267
296.9000,1.23398,251.621,0.721086
296.8000,0.833545,251.616,0.721017
296.7000,1.59019,252.663,0.733812
296.6000,1.30002,252.071,0.726589
296.5000,3.72661,252.783,0.735277
296.4000,2.55123,252.886,0.736534
296.3000,4.43314,252.48,0.731586
296.2000,1.73567,252.141,0.727447
296.1000,1.84763,252.317,0.729593
296.0000,0.796192,253.184,0.740165
295.9000,1.13685,251.804,0.723318
295.8000,0.806264,252.829,0.735843
295.7000,1.50361,252.432,0.730991
295.6000,3.55227,252.16,0.727669
295.5000,0.193794,252.616,0.733245
295.4000,3.71272,252.843,0.736009
295.3000,3.51282,252.489,0.731696
295.2000,3.83334,252.677,0.733992
295.1000,2.12619,252.462,0.731364
295.0000,2.42863,252.727,0.734599
294.9000,4.14644,252.375,0.730299
294.8000,3.08367,252.043,0.726243
294.7000,3.78635,252.234,0.728583
294.6000,2.85498,251.881,0.724261
294.5000,2.54334,252.19,0.728043
294.4000,1.63243,252.514,0.732
294.3000,2.63346,252.62,0.733286
294.2000,5.61911,252.42,0.730852
294.1000,0.52675,252.223,0.728444
294.0000,2.70048,251.787,0.72311
293.9000,3.22384,252.476,0.73153
293.8000,2.19594,251.662,0.721585
293.7000,6.01234,251.515,0.719782
293.6000,1.76906,251.932,0.724885
293.5000,3.245,251.831,0.723651
293.4000,2.0742,251.599,0.720808
293.3000,1.386,251.714,0.722223
293.2000,1.90359,251.602,0.72085
293.1000,4.17662,251.985,0.725536
293.0000,2.04161,252.24,0.728652
292.9000,1.78537,251.653,0.721474
292.8000,1.43443,251.816,0.723471
292.7000,3.7866,251.891,0.724386
292.6000,1.12348,251.943,0.725023
292.5000,6.54303,251.703,0.722085
292.4000,0.39321,251.836,0.723707
292.3000,0.0385519,252.619,0.733272
292.2000,1.19159,251.296,0.717103
292.1000,1.28071,252.152,0.727572
292.0000,0.392202,251.446,0.718935
291.9000,2.00937,251.826,0.723596
291.8000,5.86664,250.594,0.708484
291.7000,-1.29866,251.414,0.718547
291.6000,1.28798,251.166,0.715506
291.5000,2.33478,251.603,0.720864
291.4000,1.31314,250.435,0.706535
291.3000,3.56371,250.744,0.710334
291.2000,-1.1517,250.919,0.712476
291.1000,2.50032,251.235,0.716353
291.0000,0.167346,250.923,0.712532
290.9000,2.55079,250.973,0.713143
290.8000,4.96356,250.855,0.711697
290.7000,2.86026,250.608,0.708664
290.6000,3.19462,251.787,0.72311
290.5000,2.04213,250.808,0.711113
290.4000,0.56175,251.662,0.721585
290.3000,2.91519,252.402,0.730631
290.2000,3.00135,251.206,0.715992
290.1000,0.923849,250.732,0.710181
290.0000,1.00144,251.156,0.715381
289.9000,1.07178,251.589,0.720684
289.8000,0.381086,250.902,0.712267
289.7000,2.74113,251.921,0.724746
289.6000,0.733365,252.052,0.726353
289.5000,2.47956,251.445,0.718921
289.4000,-0.0163661,251.644,0.721363
289.3000,2.69109,251.793,0.72318
289.2000,0.280155,251.275,0.716839
289.1000,0.177983,251.88,0.724247
289.0000,0.945122,251.119,0.714936
288.9000,0.00160753,250.889,0.712114
288.8000,1.07444,251.68,0.721807
288.7000,-0.481909,251.434,0.718796
288.6000,-0.61565,251.381,0.718144
288.5000,0.31422,251.362,0.717908
288.4000,3.61776,250.814,0.711183
288.3000,2.13624,252.543,0.732346
288.2000,2.38492,251.919,0.724732
288.1000,2.82532,250.903,0.712281
288.0000,1.15297,251.762,0.722806
287.9000,2.32314,251.813,0.723429
287.8000,4.14678,252.138,0.727406
287.7000,-1.62159,252.155,0.727613
287.6000,5.45186,251.546,0.720157
287.5000,2.03527,251.203,0.715964
287.4000,2.69081,251.223,0.7162
287.3000,4.16675,250.913,0.712406
287.2000,1.78835,251.108,0.714797
287.1000,4.30337,250.815,0.711197
287.0000,3.41849,251.268,0.716756
286.9000,-1.37177,251.458,0.719088
286.8000,0.811092,250.846,0.711586
286.7000,2.04666,250.892,0.712142
286.6000,2.45148,251.019,0.713699
286.5000,0.953982,251.328,0.717492
286.4000,0.0767395,250.86,0.711753
286.3000,2.78025,251.626,0.721141
286.2000,0.534775,251.706,0.722126
286.1000,4.44511,251.756,0.722736
286.0000,2.87006,251.633,0.721225
285.9000,3.17087,251.26,0.716658
285.8000,3.99437,251.434,0.718796
285.7000,2.7042,250.998,0.713449
285.6000,2.90343,251.302,0.717172
285.5000,0.443508,251.359,0.717867
285.4000,-0.914716,250.97,0.713101
285.3000,0.150009,251.351,0.717769
285.2000,0.136591,251.569,0.720448
285.1000,2.02122,251.395,0.718311
285.0000,3.98922,251.727,0.722376
284.9000,3.66247,250.875,0.711934
284.8000,1.67551,250.99,0.713352
284.7000,1.26716,251.451,0.719005
284.6000,2.32617,251.004,0.713518
284.5000,1.56259,251.454,0.719033
284.4000,1.50236,250.484,0.707133
284.3000,0.5067,250.906,0.712323
284.2000,0.663107,251.087,0.714533
284.1000,2.30076,251.197,0.715881
284.0000,1.89854,250.339,0.705351
283.9000,0.268872,251.337,0.717603
283.8000,0.735336,250.829,0.711377
283.7000,1.46471,250.67,0.709416
283.6000,4.45698,250.402,0.706131
283.5000,0.552172,250.954,0.712907
283.4000,0.266298,251.016,0.713671
283.3000,1.25792,250.889,0.712114
283.2000,1.26504,250.82,0.711266
283.1000,3.34974,250.763,0.710557
283.0000,-0.0498923,250.364,0.705657
282.9000,1.66941,251.067,0.714297
282.8000,4.08719,251.607,0.720906
282.7000,-0.0036094,251.135,0.71513
282.6000,-0.0125152,249.981,0.700946
282.5000,1.92587,250.23,0.704013
282.4000,3.74282,251.064,0.714255
282.3000,0.456621,250.884,0.712045
282.2000,0.529493,250.917,0.712448
282.1000,1.40932,250.995,0.713407
282.0000,1.50262,250.607,0.70865
281.9000,-0.717573,250.843,0.711544
281.8000,-1.47248,250.776,0.710724
281.7000,2.60357,250.124,0.702703
281.6000,2.2837,250.61,0.708678
281.5000,-0.105353,251.288,0.717005
281.4000,2.58383,251.05,0.714088
281.3000,-0.758848,250.315,0.705058
281.2000,2.62012,250.579,0.708303
281.1000,1.92367,250.853,0.71167
281.0000,0.290298,251.157,0.715394
280.9000,2.49147,249.993,0.7011
280.8000,2.68877,250.465,0.706897
280.7000,5.22976,250.968,0.713074
280.6000,0.875697,251.099,0.714686
280.5000,0.270766,250.528,0.707676
280.4000,0.850492,250.585,0.708372
280.3000,2.99717,251.082,0.714477
280.2000,-0.119486,250.218,0.70386
280.1000,1.28012,250.519,0.707565
280.0000,1.95264,251.038,0.713935
279.9000,2.6643,250.394,0.706033
279.8000,2.88632,249.804,0.69877
279.7000,-0.243799,250.75,0.710404
279.6000,0.160862,249.959,0.700681
279.5000,2.33513,250.918,0.712462
279.4000,-0.171415,250.646,0.709124
279.3000,1.29053,250.193,0.703553
279.2000,2.67383,250.913,0.712406
279.1000,0.142715,250.158,0.703121
279.0000,-0.531282,250.316,0.705072
278.9000,0.47587,250.417,0.706312
278.8000,3.63475,250.713,0.709945
278.7000,0.924341,250.242,0.704166
278.6000,3.16138,250.161,0.703163
278.5000,4.3882,250.195,0.703581
278.4000,3.28497,249.873,0.699621
278.3000,0.599471,250.476,0.707036
278.2000,0.999501,250.637,0.709012
278.1000,-0.730415,250.593,0.70847
278.0000,0.8587,250.761,0.710543
277.9000,1.96132,250.812,0.711169
277.8000,0.500698,250.086,0.702243
277.7000,2.14519,249.999,0.701169
277.6000,2.6037,250.195,0.703581
277.5000,-0.252496,249.848,0.699314
277.4000,0.0233489,250.127,0.702745
277.3000,1.92843,250.623,0.708845
277.2000,0.882888,249.991,0.701072
277.1000,2.28132,249.464,0.694581
277.0000,4.20497,250.369,0.705727
276.9000,3.46049,248.857,0.687085
276.8000,1.21298,251.221,0.716186
276.7000,3.37963,250.141,0.702912
276.6000,1.7409,250.47,0.706966
276.5000,1.97126,250.292,0.70478
276.4000,1.59854,250.375,0.705796
276.3000,-1.63307,250.348,0.705462
276.2000,3.11505,250.071,0.702062
276.1000,1.669,249.838,0.699188
276.0000,2.58048,250.733,0.710195
275.9000,0.259656,250.375,0.705796
275.8000,3.44713,249.972,0.700835
275.7000,1.86416,249.753,0.698142
275.6000,0.221955,249.704,0.697542
275.5000,2.59073,250.359,0.705601
275.4000,1.25702,250.19,0.703525
275.3000,1.80177,250.462,0.706869
275.2000,0.365193,249.333,0.69296
275.1000,0.962094,250.164,0.703205
275.0000,1.70517,250.423,0.706381
274.9000,1.14635,251.081,0.714464
274.8000,-1.12104,250.5,0.707328
274.7000,0.627329,250.538,0.707801
274.6000,1.89191,250.455,0.706785
274.5000,1.57072,250.071,0.702062
274.4000,-0.537349,250.338,0.705337
274.3000,0.352893,250.066,0.701992
274.2000,-2.12359,249.678,0.697221
274.1000,0.0338284,249.373,0.693463
274.0000,4.06137,249.899,0.699942
273.9000,2.96229,250.343,0.705406
273.8000,2.2247,249.973,0.700848
273.7000,4.28763,249.665,0.697053
273.6000,1.06713,249.899,0.699942
273.5000,1.70974,249.948,0.700542
273.4000,1.19608,250.073,0.702076
273.3000,1.48588,250.339,0.705351
273.2000,2.67368,249.634,0.696676
273.1000,3.52929,249.653,0.696913
273.0000,2.10492,249.976,0.70089
272.9000,0.131508,249.867,0.699551
272.8000,0.0649117,249.627,0.696592
272.7000,3.70716,249.748,0.698086
272.6000,0.644088,249.695,0.69743
272.5000,-2.1713,249.089,0.689954
272.4000,2.71715,250.074,0.70209
272.3000,3.28599,250.316,0.705072
272.2000,-0.00983695,250.125,0.702717
272.1000,0.028381,249.426,0.694106
272.0000,0.117119,250.551,0.707955
271.9000,-0.0040494,249.575,0.69595
271.8000,3.16558,250.016,0.701379
271.7000,0.00842022,249.815,0.698909
271.6000,-0.463236,249.856,0.699412
271.5000,0.882293,249.167,0.690919
271.4000,1.79162,249.708,0.697583
271.3000,0.61447,250.09,0.702285
271.2000,1.70266,249.649,0.696858
271.1000,1.8706,248.963,0.688401
271.0000,-0.38051,249.367,0.693379
270.9000,2.36582,250.479,0.707078
270.8000,0.888974,250.25,0.704264
270.7000,0.303994,249.603,0.696299
270.6000,-0.148543,250.129,0.702773
270.5000,5.00774,249.109,0.690206
270.4000,2.58323,250.224,0.703944
270.3000,2.05889,249.63,0.69662
270.2000,0.169384,249.605,0.696313
270.1000,-0.744561,250.392,0.706005
270.0000,2.71795,250.177,0.703358
269.9000,1.6942,248.713,0.685307
269.8000,1.74709,249.499,0.695014
269.7000,3.20599,249.702,0.697514
269.6000,3.48203,250.465,0.706897
269.5000,1.95788,249.917,0.700165
269.4000,1.61112,250.23,0.704013
269.3000,2.30274,250.453,0.706757
269.2000,-1.15263,249.842,0.699244
269.1000,0.951567,249.811,0.698854
269.0000,0.434432,249.355,0.69324
268.9000,5.17721,250.333,0.705281
268.8000,3.48173,250.009,0.701295
268.7000,-1.80697,248.985,0.688667
268.6000,2.899,249.842,0.699244
268.5000,2.22644,249.943,0.700486
268.4000,1.03564,250.742,0.710306
268.3000,0.698906,249.809,0.698826
268.2000,1.74087,250.125,0.702717
268.1000,1.72854,249.844,0.699258
268.0000,2.94389,249.901,0.69997
267.9000,0.828763,250.086,0.702243
267.8000,1.68058,249.344,0.6931
267.7000,-1.31062,249.501,0.695042
267.6000,2.16397,250.233,0.704055
267.5000,-0.152583,250.241,0.704153
267.4000,3.61018,250.444,0.706646
267.3000,-1.01938,249.848,0.699314
267.2000,3.1609,249.803,0.698756
267.1000,0.847717,249.697,0.697458
267.0000,0.254815,250.196,0.703595
266.9000,-0.641603,250.925,0.712545
266.8000,3.07114,250.057,0.70188
266.7000,-1.18225,250.461,0.706855
266.6000,1.23799,250.191,0.703539
266.5000,1.51146,250.763,0.710557
266.4000,0.390464,250.736,0.710237
266.3000,0.00172897,250.806,0.711085
266.2000,0.101342,249.702,0.697514
266.1000,3.16734,250.256,0.704334
266.0000,0.505457,250.355,0.705546
265.9000,2.42344,250.45,0.706715
265.8000,-0.771928,250.313,0.70503
265.7000,1.33171,251.306,0.717228
265.6000,2.67228,250.385,0.705922
265.5000,3.01756,250.387,0.705949
265.4000,4.92567,250.436,0.706548
265.3000,0.986521,251.3,0.717144
265.2000,0.407354,250.504,0.707384
265.1000,1.86014,250.892,0.712142
265.0000,5.23694,250.496,0.707286
264.9000,-0.0491999,251.581,0.720587
264.8000,2.92782,249.727,0.697821
264.7000,0.124144,250.301,0.704891
264.6000,1.68437,250.41,0.706228
264.5000,0.455087,250.855,0.711697
264.4000,-1.59124,251.276,0.716853
264.3000,0.901938,250.747,0.710362
264.2000,2.55175,250.129,0.702773
264.1000,3.05548,250.619,0.70879
264.0000,-0.84935,249.822,0.698993
263.9000,-1.05329,250.649,0.709166
263.8000,0.135407,251.09,0.714575
263.7000,0.127781,251.124,0.714991
263.6000,2.6263,250.138,0.702884
263.5000,3.06474,251.131,0.715075
263.4000,3.65849,250.578,0.708289
263.3000,-0.341598,250.641,0.709068
263.2000,1.2059,250.465,0.706897
263.1000,2.0792,251.272,0.716811
263.0000,1.49657,250.773,0.710682
262.9000,3.27321,250.418,0.706326
262.8000,-1.83971,250.667,0.709388
262.7000,1.50617,251.672,0.72171
262.6000,1.53656,250.709,0.709903
262.5000,0.827014,251.049,0.714074
262.4000,3.01238,251.033,0.71388
262.3000,-0.641141,250.594,0.708484
262.2000,-3.38241,250.122,0.702689
262.1000,0.286639,251.309,0.717256
262.0000,3.70287,251.277,0.716867
261.9000,0.459872,250.799,0.711002
261.8000,2.63771,250.637,0.709012
261.7000,2.77954,251.227,0.716256
261.6000,0.644197,250.514,0.707509
261.5000,4.42859,251.033,0.71388
261.4000,0.0116599,250.706,0.709861
261.3000,0.366901,250.487,0.707175
261.2000,2.28187,251.141,0.7152
261.1000,2.03423,251.907,0.72458
261.0000,0.382258,250.961,0.71299
260.9000,2.38242,250.892,0.712142
260.8000,0.599281,251.423,0.718658
260.7000,3.05621,251.415,0.718561
260.6000,1.08688,251.219,0.716158
260.5000,0.15467,251.663,0.721599
260.4000,0.460259,251.278,0.716881
260.3000,0.76163,251.615,0.721003
260.2000,-0.49953,251.992,0.725619
260.1000,1.5251,251.433,0.718783
260.0000,0.453311,251.422,0.718644
259.9000,0.570904,251.278,0.716881
259.8000,2.22601,251.479,0.719338
259.7000,2.42382,251.478,0.719324
259.6000,-0.771665,251.945,0.725051
259.5000,0.365004,251.643,0.721349
259.4000,0.449854,252,0.725716
259.3000,-0.391251,251.594,0.720753
259.2000,2.99918,251.688,0.721904
259.1000,-0.542288,251.45,0.718991
259.0000,2.39279,251.573,0.72049
258.9000,1.07044,250.925,0.712545
258.8000,1.93341,252.243,0.728693
258.7000,2.18346,251.619,0.721058
258.6000,0.919726,251.826,0.723596
258.5000,-0.505079,252.189,0.728029
258.4000,0.031923,252.221,0.728417
258.3000,2.97353,251.475,0.719296
258.2000,1.90672,251.791,0.723166
258.1000,2.6911,251.987,0.725564
258.0000,3.00145,251.828,0.72361
257.9000,2.09783,251.943,0.725023
257.8000,1.49281,251.653,0.721474
257.7000,-0.57752,251.632,0.721211
257.6000,-1.2387,250.981,0.71324
257.5000,1.98867,251.394,0.718297
257.4000,3.11489,251.388,0.718227
257.3000,-0.18651,251.583,0.720614
257.2000,-1.46518,251.579,0.720573
257.1000,1.24901,251.845,0.723818
257.0000,0.874931,252.429,0.730963
256.9000,0.258037,251.961,0.725245
256.8000,0.281735,252.779,0.735235
256.7000,3.21307,252.389,0.730465
256.6000,2.70846,252.411,0.730742
256.5000,-0.803745,252.178,0.72789
256.4000,2.69157,252.523,0.732111
256.3000,3.19455,251.836,0.723707
256.2000,2.72045,253.236,0.7408
256.1000,0.857564,252.366,0.730188
256.0000,1.95986,252.263,0.728929
255.9000,4.00637,251.685,0.721863
255.8000,3.45146,252.098,0.726921
255.7000,3.12681,252.901,0.736714
255.6000,1.84982,252.651,0.733673
255.5000,1.45998,252.57,0.732678
255.4000,0.813077,252.592,0.732955
255.3000,3.75615,252.956,0.73739
255.2000,-0.96843,252.531,0.732208
255.1000,1.53872,252.362,0.730147
255.0000,1.28136,252.724,0.734558
254.9000,0.797312,252.575,0.732747
254.8000,1.25012,252.766,0.735069
254.7000,4.17596,252.94,0.737197
254.6000,0.935162,252.11,0.727059
254.5000,0.569507,252.836,0.735926
254.4000,-0.965682,253.135,0.739572
254.3000,0.990526,252.145,0.727489
254.2000,2.34088,251.698,0.722029
254.1000,0.223869,252.326,0.729704
254.0000,2.26555,253.114,0.73931
253.9000,-0.421527,252.597,0.73301
253.8000,2.43478,252.382,0.730382
253.7000,-1.39496,252.277,0.729109
253.6000,2.19374,252.982,0.737708
253.5000,0.914732,252.007,0.725799
253.4000,-0.209721,253.381,0.742566
253.3000,0.720337,252.691,0.734157
253.2000,0.148486,252.722,0.73453
253.1000,-0.0334746,253.437,0.743241
253.0000,3.44342,252.905,0.736769
252.9000,-0.0925434,253.333,0.741986
252.8000,-0.694013,253.159,0.739862
252.7000,3.18474,253.187,0.740207
252.6000,1.52402,253.213,0.740524
252.5000,0.552512,253.302,0.7416
252.4000,-0.254453,252.527,0.732153
252.3000,3.10379,252.883,0.736493
252.2000,1.72209,252.815,0.735664
252.1000,3.73696,252.818,0.735705
252.0000,2.15496,253.5,0.744013
251.9000,2.61332,252.764,0.735042
251.8000,0.00329705,251.984,0.725522
251.7000,0.873907,252.225,0.728472
251.6000,0.92163,253.625,0.74553
251.5000,1.80755,253.79,0.747541
251.4000,4.01994,253.277,0.741297
251.3000,3.93896,253.207,0.740441
251.2000,3.12992,253.245,0.74091
251.1000,1.43177,253.286,0.741407
251.0000,0.507658,253.326,0.74189
250.9000,3.44463,253.251,0.740979
250.8000,-2.02855,253.482,0.743793
250.7000,-0.00651823,253.706,0.746522
250.6000,1.17698,253.63,0.745599
250.5000,2.09864,252.701,0.734282
250.4000,3.30898,252.863,0.736258
250.3000,1.83719,253.152,0.739779
250.2000,1.72957,253.358,0.74229
250.1000,2.80877,253.261,0.741104
250.0000,0.852988,253.265,0.741159
249.9000,-1.09487,252.564,0.732609
249.8000,1.89782,253.178,0.740096
249.7000,0.28122,252.33,0.729745
249.6000,1.04147,252.496,0.731779
249.5000,1.29563,252.981,0.737694
249.4000,2.09905,253.369,0.742414
249.3000,-0.39633,253.694,0.74637
249.2000,0.446371,253.522,0.744276
249.1000,3.55151,252.741,0.734765
249.0000,2.05984,253.057,0.738619
248.9000,2.11005,252.904,0.736755
248.8000,1.97939,253.395,0.742731
248.7000,0.823321,253.474,0.743696
248.6000,0.678464,254.105,0.751368
248.5000,4.94485,252.997,0.737888
248.4000,2.70797,253.108,0.739241
248.3000,2.0972,253.267,0.741173
248.2000,4.83233,253.374,0.742483
248.1000,2.64632,253.341,0.742083
248.0000,2.26471,253.276,0.741283
247.9000,1.06333,253.568,0.744841
247.8000,2.66446,252.713,0.73442
247.7000,4.00039,252.373,0.730271
247.6000,3.26863,253.383,0.742593
247.5000,2.66889,253.169,0.739986
247.4000,2.11282,253.032,0.738315
247.3000,0.630337,253.156,0.73982
247.2000,0.97159,252.834,0.735898
247.1000,2.13639,252.822,0.73576
247.0000,-0.608859,253.823,0.74794
246.9000,2.71905,253.788,0.747514
246.8000,1.71252,253.715,0.746632
246.7000,1.5662,254.465,0.755741
246.6000,-1.29593,253.247,0.740938
246.5000,2.2847,253.288,0.741435
246.4000,1.69289,253.43,0.743159
246.3000,1.09231,253.392,0.742704
246.2000,1.58951,253.433,0.7432
246.1000,0.22595,253.676,0.74615
246.0000,0.910687,253.508,0.74411
245.9000,-2.47719,253.309,0.741683
245.8000,1.00358,253.254,0.741021
245.7000,1.31368,253.306,0.741655
245.6000,0.565575,253.976,0.749799
245.5000,2.06387,253.709,0.746549
245.4000,-0.596371,253.201,0.740372
245.3000,0.184341,253.661,0.74597
245.2000,-1.1069,254.374,0.754627
245.1000,3.25339,253.661,0.74597
245.0000,2.29418,253.449,0.743393
244.9000,3.2991,253.647,0.745805
244.8000,0.648199,253.758,0.747155
244.7000,-1.62587,253.663,0.745998
244.6000,3.96241,254.403,0.754985
244.5000,-0.620714,253.029,0.738274
244.4000,2.22242,253.285,0.741393
244.3000,2.31963,254.306,0.753802
244.2000,3.46865,253.687,0.746287
244.1000,0.348565,253.781,0.747431
244.0000,0.726149,253.882,0.748656
243.9000,-1.5326,254.22,0.752757
243.8000,0.603567,253.672,0.746108
243.7000,2.62566,253.694,0.74637
243.6000,0.181876,254.734,0.758996
243.5000,3.30151,253.629,0.745585
243.4000,1.22532,253.677,0.746163
243.3000,2.48945,253.456,0.743476
243.2000,0.889471,254.043,0.750611
243.1000,0.847054,254.365,0.754517
243.0000,0.346753,254.058,0.75079
242.9000,1.27328,253.586,0.745061
242.8000,3.32879,253.995,0.750033
242.7000,3.284,254.311,0.753871
242.6000,1.72482,254.188,0.752372
242.5000,-1.19484,253.932,0.749262
242.4000,3.19305,253.835,0.748092
242.3000,-0.778686,254.499,0.756153
242.2000,2.50132,254.423,0.755232
242.1000,3.02609,253.103,0.739185
242.0000,-0.928104,253.607,0.745309
241.9000,2.1441,254.147,0.751877
241.8000,-0.106021,253.92,0.749125
241.7000,2.30853,254.462,0.755699
241.6000,1.57632,254.205,0.752578
241.5000,1.95015,253.593,0.745144
241.4000,3.98921,253.945,0.749427
241.3000,0.694902,254.537,0.756606
241.2000,-0.0527446,255.296,0.7658
241.1000,1.63107,254.8,0.759792
241.0000,2.82982,254.356,0.754407
240.9000,-0.258176,253.392,0.742704
240.8000,-0.245893,253.96,0.749606
240.7000,2.47227,254.254,0.75317
240.6000,1.68071,254.26,0.753252
240.5000,2.86006,254.915,0.761192
240.4000,-1.42314,254.018,0.750308
240.3000,0.990054,253.914,0.749042
240.2000,2.04267,255.034,0.762633
240.1000,2.63218,253.903,0.748918
240.0000,0.886742,254.516,0.756359
239.9000,-0.357421,254.425,0.755246
239.8000,0.114658,255.205,0.764704
239.7000,0.702858,255.477,0.767993
239.6000,2.5194,254.902,0.761028
239.5000,0.88619,254.647,0.757939
239.4000,3.16253,254.556,0.75684
239.3000,0.0378192,254.878,0.76074
239.2000,2.32833,255.277,0.765567
239.1000,-0.853014,255.221,0.764896
239.0000,0.577819,254.59,0.757252
238.9000,1.9736,255.108,0.763525
238.8000,-0.23893,255.495,0.768212
238.7000,-1.45901,255.245,0.765184
238.6000,-0.287262,255.192,0.764539
238.5000,0.481518,254.745,0.759134
238.4000,-0.482533,255.177,0.764361
238.3000,3.82352,255.321,0.766102
238.2000,2.58807,256.014,0.77448
238.1000,1.68649,256.057,0.774999
238.0000,4.5705,255.609,0.769581
237.9000,2.03881,255.31,0.765965
237.8000,1.56215,256.327,0.778251
237.7000,2.231,255.917,0.773303
237.6000,1.82363,256.062,0.775054
237.5000,3.30006,255.975,0.774001
237.4000,0.319568,255.926,0.773413
237.3000,-0.607736,256.222,0.776981
237.2000,-0.53759,256.04,0.774794
237.1000,-1.03258,256.458,0.779836
237.0000,2.37425,256.624,0.781829
236.9000,2.96907,255.256,0.765321
236.8000,2.28775,256.326,0.778238
236.7000,1.41937,256.124,0.775806
236.6000,-0.529423,256.148,0.776092
236.5000,-1.02694,256.341,0.778415
236.4000,-0.227133,256.086,0.775341
236.3000,0.612821,256.284,0.777732
236.2000,1.64131,256.141,0.776011
236.1000,1.7857,256.316,0.778115
236.0000,3.24278,256.718,0.782961
235.9000,4.18676,257.356,0.790634
235.8000,3.80719,256.321,0.778183
235.7000,2.32032,257.127,0.787883
235.6000,1.17446,257.339,0.79043
235.5000,2.04803,256.613,0.781692
235.4000,3.046,256.253,0.777363
235.3000,4.60883,257.095,0.787501
235.2000,1.0245,257.278,0.789694
235.1000,2.55297,257.316,0.790157
235.0000,1.69959,257.025,0.786656
234.9000,0.0767701,257.476,0.792077
234.8000,3.70716,257.224,0.789054
234.7000,-3.49216,257.385,0.790988
234.6000,-0.200426,257.128,0.787896
234.5000,1.47868,257.371,0.790811
234.4000,0.651699,257.578,0.793302
234.3000,3.39999,257.212,0.788904
234.2000,0.0667097,257.844,0.796497
234.1000,1.83913,258.245,0.801306
234.0000,3.52049,258.271,0.801618
233.9000,2.7073,258.319,0.802188
233.8000,0.43613,257.882,0.796946
233.7000,4.70201,258.558,0.805051
233.6000,1.54209,258.44,0.80364
233.5000,0.309708,258.558,0.805051
233.4000,1.05338,258.475,0.804061
233.3000,1.12804,257.95,0.797761
233.2000,2.59721,258.704,0.8068
233.1000,4.08308,258.335,0.802378
233.0000,3.0561,259.044,0.810864
232.9000,4.12109,259.088,0.811393
232.8000,1.65595,257.976,0.798074
232.7000,3.48896,257.465,0.791941
232.6000,1.01074,258.311,0.802093
232.5000,-2.51315,258.976,0.810052
232.4000,1.63673,258.966,0.80993
232.3000,1.76987,259.338,0.81437
232.2000,5.41751,259.527,0.816629
232.1000,1.95721,258.948,0.809713
232.0000,-2.942,259.359,0.814627
231.9000,1.48406,259.504,0.816358
231.8000,-0.368038,258.172,0.800423
231.7000,2.10553,259.247,0.813288
231.6000,2.03702,259.755,0.819345
231.5000,5.11907,260.525,0.828521
231.4000,2.22701,259.972,0.821938
231.3000,1.67209,259.055,0.811
231.2000,-0.449319,259.248,0.813301
231.1000,2.0767,259.651,0.818116
231.0000,-0.171507,259.487,0.816155
230.9000,4.2583,258.948,0.809713
230.8000,2.45841,259.301,0.813937
230.7000,1.86268,259.452,0.815736
230.6000,-0.471116,260.121,0.823706
230.5000,1.3088,259.428,0.815452
230.4000,0.779948,260.099,0.82345
230.3000,1.9677,259.9,0.821074
230.2000,2.90249,259.931,0.821452
230.1000,3.80599,259.398,0.815087
230.0000,0.502441,260.332,0.826229
229.9000,1.17073,259.977,0.821992
229.8000,0.392383,259.169,0.812354
229.7000,0.46158,259.596,0.817453
229.6000,1.30974,259.301,0.813937
229.5000,1.45085,259.993,0.822181
229.4000,3.43137,260.179,0.824408
229.3000,0.930016,260.184,0.824462
229.2000,1.00053,260.032,0.822654
229.1000,0.772012,260.226,0.824961
229.0000,2.78708,260.423,0.827308
228.9000,0.914294,260.973,0.83384
228.8000,4.128,261.002,0.83419
228.7000,0.956326,260.662,0.830151
228.6000,-0.252432,261.385,0.838736
228.5000,2.51222,260.636,0.829841
228.4000,2.98698,261.003,0.834204
228.3000,-0.716924,261.598,0.841262
228.2000,3.71439,262.127,0.847529
228.1000,0.535457,262.105,0.847261
228.0000,0.899905,261.967,0.845638
227.9000,0.628094,261.907,0.844927
227.8000,1.75028,262.05,0.846617
227.7000,0.517418,262.092,0.847113
227.6000,1.54728,261.549,0.840684
227.5000,2.53706,261.714,0.842632
227.4000,-1.15628,262.116,0.847395
227.3000,-0.30915,262.518,0.852152
227.2000,-1.6693,262.305,0.849633
227.1000,0.434613,262.719,0.854522
227.0000,0.340638,262.297,0.84954
226.9000,1.04901,262.449,0.851335
226.8000,5.26286,262.884,0.856475
226.7000,1.25606,261.881,0.844618
226.6000,4.78725,262.134,0.847609
226.5000,-0.351771,263.226,0.860513
226.4000,0.873635,262.5,0.851938
226.3000,3.7315,262.486,0.851777
226.2000,1.15638,262.669,0.853933
226.1000,4.01203,262.855,0.856127
226.0000,2.9901,263.042,0.858334
225.9000,0.506257,263.016,0.858026
225.8000,2.75887,262.944,0.857184
225.7000,3.63091,263.402,0.862583
225.6000,4.24345,263.034,0.85824
225.5000,3.38091,263.638,0.86536
225.4000,4.07228,263.753,0.866721
225.3000,2.31616,264.27,0.872799
225.2000,0.849326,263.065,0.858615
225.1000,3.48684,263.171,0.859858
225.0000,2.08432,263.742,0.866588
224.9000,0.468159,263.537,0.864172
224.8000,1.74089,264.767,0.878641
224.7000,0.882056,264.816,0.879213
224.6000,3.74857,264.562,0.876234
224.5000,-1.92002,264.405,0.874384
224.4000,4.31288,264.619,0.876899
224.3000,4.19273,263.989,0.869495
224.2000,0.736566,264.339,0.873611
224.1000,4.14727,264.698,0.87783
224.0000,1.6331,265.069,0.882177
223.9000,1.47785,264.767,0.878641
223.8000,3.97726,264.978,0.881114
223.7000,0.666074,264.078,0.870548
223.6000,2.64025,265.248,0.884275
223.5000,3.43756,264.195,0.87192
223.4000,0.858018,264.83,0.879373
223.3000,4.48357,264.883,0.879997
223.2000,-0.579968,265.38,0.885828
223.1000,4.5686,264.773,0.878708
223.0000,3.65118,264.728,0.878176
222.9000,-0.234987,265.722,0.889834
222.8000,0.547712,265.838,0.891187
222.7000,2.10051,264.861,0.879745
222.6000,4.16219,265.956,0.892565
222.5000,0.404594,265.666,0.889171
222.4000,-1.83639,266.091,0.894141
222.3000,3.68436,265.741,0.890046
222.2000,-0.0484753,266.148,0.894816
222.1000,3.56048,265.956,0.892565
222.0000,3.8495,266.066,0.89385
221.9000,3.57225,265.256,0.884368
221.8000,2.91458,266.13,0.894604
221.7000,3.11396,265.684,0.889384
221.6000,3.36261,266.028,0.893412
221.5000,3.23489,265.822,0.891001
221.4000,-0.0525024,266.683,0.90106
221.3000,6.36827,265.781,0.890524
221.2000,3.49377,266.25,0.896007
221.1000,1.12845,266.196,0.895372
221.0000,1.34904,266.244,0.895928
220.9000,4.39003,266.342,0.89708
220.8000,2.22122,266.866,0.903188
220.7000,3.24933,266.902,0.903611
220.6000,4.18849,265.799,0.890736
220.5000,1.94649,267.45,0.909998
220.4000,0.559976,267.438,0.909853
220.3000,7.78191,267.67,0.912556
220.2000,5.45794,267.005,0.904813
220.1000,1.49394,267.081,0.905697
220.0000,1.71314,267.735,0.913307
219.9000,-0.0922507,266.985,0.904575
219.8000,3.93492,267.645,0.912266
219.7000,-0.0328711,267.457,0.910078
219.6000,4.42697,267.591,0.911633
219.5000,0.915339,267.428,0.909735
219.4000,0.728104,267.323,0.908521
219.3000,4.31052,267.726,0.913202
219.2000,1.38666,267.407,0.909497
219.1000,2.46382,268.225,0.919007
219.0000,4.731,268.655,0.92399
218.9000,-0.163275,268.387,0.920888
218.8000,4.43632,267.614,0.911897
218.7000,4.15871,267.535,0.910987
218.6000,4.29846,267.406,0.909484
218.5000,3.85931,267.929,0.915559
218.4000,5.18814,268.273,0.91956
218.3000,3.18961,268.095,0.917494
218.2000,0.810011,268.369,0.920678
218.1000,7.04084,268.3,0.919876
218.0000,0.912753,267.94,0.915691
217.9000,1.9814,268.229,0.919047
217.8000,4.07707,268.387,0.920888
217.7000,2.39035,267.992,0.916297
217.6000,4.04154,268.825,0.92596
217.5000,2.59426,268.619,0.923569
217.4000,5.68231,268.713,0.92466
217.3000,3.11561,268.81,0.925789
217.2000,1.06269,268.838,0.926118
217.1000,2.83429,269.204,0.930356
217.0000,4.02861,269.396,0.932572
216.9000,3.72511,268.658,0.924029
216.8000,5.16621,269.787,0.937092
216.7000,5.95349,268.649,0.923924
216.6000,-1.56422,268.727,0.924831
216.5000,4.76507,268.512,0.922334
216.4000,4.17971,269.194,0.930238
216.3000,2.38169,270.301,0.943031
216.2000,2.36241,269.622,0.935193
216.1000,-0.971472,269.459,0.933306
216.0000,0.796046,270.028,0.939879
215.9000,5.26676,270.343,0.943514
215.8000,4.52321,269.346,0.931996
215.7000,-1.87583,269.926,0.938702
215.6000,4.56497,269.521,0.934014
215.5000,2.52177,269.05,0.928572
215.4000,0.672758,270.085,0.940533
215.3000,7.34817,269.502,0.933804
215.2000,1.97444,270.341,0.943488
215.1000,3.32238,269.934,0.938793
215.0000,1.05301,270.264,0.942599
214.9000,-0.392669,269.839,0.937694
214.8000,2.94655,269.951,0.93899
214.7000,5.64047,269.838,0.937681
214.6000,0.852441,270.608,0.946571
214.5000,7.14306,269.909,0.938505
214.4000,-0.710238,269.545,0.934302
214.3000,1.49324,269.625,0.935219
214.2000,3.02803,270.776,0.948504
214.1000,3.37126,270.972,0.950761
214.0000,-0.321783,271.409,0.955793
213.9000,2.81153,271.254,0.954008
213.8000,5.60974,271.081,0.952013
213.7000,6.03148,270.126,0.941004
213.6000,3.72383,270.505,0.945383
213.5000,2.64166,271.074,0.951935
213.4000,1.39205,271.209,0.953486
213.3000,4.08642,270.313,0.943161
213.2000,0.112456,271.364,0.955272
213.1000,4.20039,271.074,0.951935
213.0000,4.54309,270.59,0.946362
212.9000,3.16585,271.432,0.956053
212.8000,6.88951,271.197,0.953356
212.7000,-0.476416,271.325,0.954829
212.6000,2.76137,271.673,0.958827
212.5000,1.77508,272.073,0.963419
212.4000,-2.43543,270.982,0.950879
212.3000,1.38697,272.266,0.965628
212.2000,1.32444,271.628,0.958306
212.1000,-0.80631,271.96,0.962118
212.0000,1.74675,272.051,0.963159
211.9000,-0.419171,271.993,0.962496
211.8000,4.56721,271.822,0.960532
211.7000,3.17594,271.776,0.960011
211.6000,3.23285,272.864,0.972482
211.5000,2.2775,272.425,0.967447
211.4000,2.36441,272.9,0.972897
211.3000,0.842088,272.098,0.963705
211.2000,3.76141,272.792,0.971652
211.1000,3.1403,272.031,0.962938
211.0000,-0.358943,272.089,0.963601
210.9000,5.37872,273.048,0.974583
210.8000,7.02431,272.837,0.972171
210.7000,4.74599,272.84,0.97221
210.6000,3.60908,272.793,0.971665
210.5000,3.11375,273.464,0.979337
210.4000,1.81694,272.854,0.972365
210.3000,-0.164923,272.465,0.967914
210.2000,6.63352,273.083,0.974984
210.1000,2.43632,273.169,0.975969
210.0000,4.48834,273.435,0.979013
209.9000,2.04445,274.011,0.985584
209.8000,1.63394,273.33,0.977809
209.7000,2.15982,274.525,0.991447
209.6000,1.67932,273.709,0.982145
209.5000,0.619122,274.334,0.989266
209.4000,-1.26589,274.133,0.98698
209.3000,-0.717237,274.291,0.988775
209.2000,1.24898,274.506,0.991228
209.1000,4.20161,274.624,0.99257
209.0000,2.24624,272.81,0.97186
208.9000,1.46621,274.803,0.994607
208.8000,1.41651,274.168,0.98738
208.7000,2.0533,275.304,1.0003
208.6000,-1.28349,274.372,0.989705
208.5000,3.8116,274.035,0.985855
208.4000,2.10729,275.53,1.00288
208.3000,6.53176,274.41,0.990131
208.2000,0.872863,275.144,0.998486
208.1000,-0.20159,276.068,1.00898
208.0000,3.87217,275.981,1.00799
207.9000,4.12204,275.27,0.999915
207.8000,2.31646,274.977,0.996592
207.7000,3.44821,275.826,1.00623
207.6000,2.11785,276.666,1.01574
207.5000,2.489,275.671,1.00447
207.4000,0.712589,275.892,1.00698
207.3000,3.57551,276.267,1.01123
207.2000,2.51985,276.201,1.01048
207.1000,1.90884,275.673,1.0045
207.0000,3.16177,276.547,1.0144
206.9000,8.97451,275.708,1.00489
206.8000,7.21311,276.635,1.0154
206.7000,7.98589,275.743,1.00529
206.6000,-0.340747,277.068,1.02029
206.5000,5.11767,276.787,1.01712
206.4000,3.41862,276.831,1.01762
206.3000,3.56576,277.462,1.02475
206.2000,1.21339,278.564,1.03716
206.1000,2.49547,278.219,1.03328
206.0000,3.49538,275.395,1.00134
205.9000,1.83539,277.323,1.02317
205.8000,2.66543,277.084,1.02047
205.7000,6.49541,276.637,1.01542
205.6000,2.5808,278.426,1.03562
205.5000,4.33457,277.461,1.02473
205.4000,0.748588,277.435,1.02444
205.3000,1.36989,278.499,1.03643
205.2000,1.78906,279.068,1.04283
205.1000,4.36778,277.715,1.0276
205.0000,2.68754,278.309,1.03429
204.9000,2.98373,279.882,1.05197
204.8000,1.40943,279.206,1.04438
204.7000,5.662,280.653,1.06059
204.6000,3.26261,278.071,1.03161
204.5000,6.64562,278.857,1.04046
204.4000,4.06342,279.603,1.04883
204.3000,2.09607,279.359,1.0461
204.2000,6.58635,280.128,1.05472
204.1000,5.52666,279.462,1.04725
204.0000,6.92466,279.944,1.05265
203.9000,3.71389,280.702,1.06114
203.8000,-1.42788,279.158,1.04385
203.7000,0.623552,280.902,1.06338
203.6000,4.62081,281.141,1.06605
203.5000,4.60352,281.066,1.06521
203.4000,4.84231,280.848,1.06277
203.3000,6.1919,280.37,1.05742
203.2000,4.97993,281.401,1.06895
203.1000,1.98633,281.242,1.06718
203.0000,2.90634,282.058,1.07627
202.9000,0.524105,280.907,1.06343
202.8000,0.936918,279.635,1.0492
202.7000,-0.183126,281.028,1.06478
202.6000,5.15335,281.613,1.07131
202.5000,2.28928,281.673,1.07198
202.4000,7.74571,282.109,1.07684
202.3000,2.51783,282.122,1.07699
202.2000,6.07439,281.768,1.07304
202.1000,-0.664526,282.856,1.08514
202.0000,2.82927,282.85,1.08508
201.9000,6.5159,283.199,1.08895
201.8000,1.83566,283.176,1.0887
201.7000,3.16256,283.319,1.09029
201.6000,3.22754,283.573,1.0931
201.5000,6.64587,283.236,1.08937
201.4000,4.34983,284.753,1.10617
201.3000,7.54167,285.528,1.11472
201.2000,-0.386766,283.897,1.09669
201.1000,2.50829,283.882,1.09653
201.0000,1.57647,285.152,1.11057
200.9000,-1.2826,284.553,1.10395
200.8000,2.67742,284.579,1.10424
200.7000,4.54269,285.139,1.11042
200.6000,5.53476,284.715,1.10574
200.5000,6.05716,285.076,1.10973
200.4000,4.77147,286.577,1.12625
200.3000,4.22955,286.086,1.12086
200.2000,4.50726,285.797,1.11768
200.1000,7.43524,286.404,1.12436
200.0000,6.31827,286.468,1.12506
199.9000,7.84125,286.956,1.13042
199.8000,0.094989,287.199,1.13308
199.7000,2.05561,286.817,1.12889
199.6000,1.26341,287.818,1.13988
199.5000,5.93133,287.354,1.13479
199.4000,7.46542,287.388,1.13516
199.3000,0.78645,286.579,1.12628
199.2000,7.63105,287.16,1.13266
199.1000,3.99188,287.574,1.1372
199.0000,4.2436,287.316,1.13438
198.9000,5.33085,288.005,1.14192
198.8000,-2.98641,288.568,1.14808
198.7000,3.88777,288.435,1.14662
198.6000,-1.05173,288.447,1.14676
198.5000,3.20964,289.188,1.15485
198.4000,6.74834,288.978,1.15255
198.3000,-0.814738,288.72,1.14974
198.2000,1.30134,288.862,1.15129
198.1000,-0.196444,289.317,1.15626
198.0000,2.90687,289.566,1.15896
197.9000,-2.9803,289.513,1.15839
197.8000,2.41615,289.534,1.15861
197.7000,1.01425,290.055,1.16429
197.6000,8.2217,290.18,1.16564
197.5000,4.33111,290.415,1.16821
197.4000,4.1502,290.18,1.16564
197.3000,1.50964,290.777,1.17213
197.2000,4.51078,290.845,1.17287
197.1000,2.8398,290.892,1.17339
197.0000,1.71522,291.019,1.17476
196.9000,4.48542,290.682,1.1711
196.8000,4.89216,290.15,1.16532
196.7000,5.76333,292.15,1.18701
196.6000,0.823843,292.942,1.19557
196.5000,0.761794,291.884,1.18413
196.4000,3.91534,293.162,1.19794
196.3000,2.86758,292.878,1.19487
196.2000,3.64992,293.819,1.20502
196.1000,6.37812,293.008,1.19628
196.0000,3.59048,293.812,1.20495
195.9000,1.22357,294.091,1.20794
195.8000,3.60067,293.885,1.20573
195.7000,3.5421,295.065,1.21841
195.6000,4.88618,295.003,1.21774
195.5000,-0.0241009,294.996,1.21767
195.4000,2.06346,294.722,1.21473
195.3000,3.68313,295.269,1.2206
195.2000,3.17343,295.218,1.22005
195.1000,6.1174,295.301,1.22094
195.0000,6.26606,296.712,1.23603
194.9000,-2.45253,296.289,1.23151
194.8000,4.76847,296.157,1.23009
194.7000,1.74866,296.545,1.23425
194.6000,-3.24415,297.873,1.2484
194.5000,6.21738,297.783,1.24744
194.4000,2.67754,298.232,1.25222
194.3000,3.66239,298.141,1.25125
194.2000,2.26704,298.492,1.25498
194.1000,8.70835,299.199,1.26248
194.0000,2.17054,299.907,1.26998
193.9000,6.36662,299.934,1.27027
193.8000,2.05718,301.15,1.28311
193.7000,1.17975,300.657,1.27791
193.6000,-1.50195,302.04,1.29248
193.5000,0.946133,302.424,1.29652
193.4000,4.48785,303.48,1.3076
193.3000,6.06544,302.574,1.2981
193.2000,1.73706,303.42,1.30697
193.1000,-0.842705,305.191,1.32548
193.0000,2.72327,304.009,1.31314
192.9000,5.16425,304.691,1.32027
192.8000,8.72779,305.665,1.33043
192.7000,4.5692,306.319,1.33723
192.6000,0.0136652,306.414,1.33822
192.5000,0.895248,307.501,1.3495
192.4000,0.308023,307.903,1.35366
192.3000,7.93541,309.295,1.36804
192.2000,5.85313,309.664,1.37185
192.1000,-0.728365,309.763,1.37286
192.0000,5.41427,310.643,1.38192
191.9000,1.6587,311.697,1.39273
191.8000,2.04171,312.478,1.40073
191.7000,0.925853,313.188,1.40798
191.6000,1.0154,314.089,1.41716
191.5000,-5.10702,314.01,1.41636
191.4000,1.44879,315.231,1.42877
191.3000,4.21739,315.977,1.43634
191.2000,-0.532719,316.761,1.44427
191.1000,-0.618607,317.819,1.45495
191.0000,8.18327,319.353,1.47038
190.9000,-0.374735,319.807,1.47494
190.8000,-0.774991,321.971,1.49658
190.7000,-5.31787,323.519,1.51199
190.6000,7.91827,324.792,1.5246
190.5000,6.76306,324.991,1.52658
190.4000,5.07302,325.851,1.53508
190.3000,-0.194929,327.421,1.55055
190.2000,5.29216,328.699,1.5631
190.1000,-1.63538,328.331,1.55949
190.0000,6.25737,329.559,1.57152

##### Extended Information
[Comments]
Sample name,class
Comment
User
Division
Company,Saint Mary's College

[Detailed Information]
Creation date,9/28/2021 1:47 PM

Data array type,Linear data array * 3
Horizontal axis,Wavelength [nm]
Vertical axis(1),CD [mdeg]
Vertical axis(2),HT [V]
Vertical axis(3),Abs
Start,320 nm
End,190 nm
Data interval,0.1 nm
Data points,1301    

[Measurement Information]
Instrument name,J-1500
Model name,J-1500
Serial No.,B051061638

Detector,PM-539
Detector S/N,B051061638
  Lock-in amp.,X mode
  HT volt,Auto

Accessory,PTC-517
Accessory S/N,B026561646
  Temperature,23.20 C
  Control sensor,Holder
  Monitor sensor,Holder

Measurement date,9/28/2021 1:39 PM

CD Overload detect,1158
Photometric mode,CD, HT, Abs
Measure range,320 - 190 nm
Data pitch,0.1 nm
CD scale,20 mdeg/0.05 dOD
FL scale,20 mdeg/0.05 dOD
D.I.T.,8 msec
Bandwidth,1.00 nm
Start mode,Immediately
Scanning mode,Continuous
Scanning speed,50 nm/min
Baseline correction,None
Shutter control,Auto
No. of cycle,1/1
N2 Flowmeter,Manual


