TITLE,class
DATA TYPE,
ORIGIN,JASCO
OWNER,
DATE,21/09/28
TIME,14:49:29
SPECTROMETER/DATA SYSTEM,
LOCALE,1033
RESOLUTION,
DELTAX,-0.1
XUNITS,NANOMETERS
YUNITS,CD [mdeg]
Y2UNITS,HT [V]
Y3UNITS,ABSORBANCE
FIRSTX,  320.0000
LASTX,  190.0000
NPOINTS,    1301
FIRSTY,     1.44793
MAXY,    10.39188
MINY,    -4.19390
XYDATA
320.0000,1.44793,255.066,0.763017
319.9000,0.512459,253.74,0.746935
319.8000,0.699609,253.936,0.749317
319.7000,1.83058,254.731,0.758955
319.6000,2.28078,254.831,0.760177
319.5000,3.44344,255.952,0.773727
319.4000,2.8632,255.012,0.762359
319.3000,-0.941947,254.945,0.761549
319.2000,5.0475,255.295,0.765787
319.1000,2.58963,255.457,0.767746
319.0000,2.48826,255.651,0.770087
318.9000,1.74154,256.361,0.778661
318.8000,5.02977,256.29,0.777801
318.7000,1.87019,255.623,0.769759
318.6000,5.76341,255.424,0.767349
318.5000,4.31362,255.375,0.76676
318.4000,3.16429,255.281,0.765622
318.3000,0.240417,255.538,0.768732
318.2000,0.99345,254.378,0.754682
318.1000,0.914805,255.849,0.772482
318.0000,-1.42628,256.368,0.778743
317.9000,4.46851,255.237,0.765087
317.8000,1.36376,254.549,0.756757
317.7000,-1.14226,254.823,0.760081
317.6000,2.68918,255.805,0.771949
317.5000,3.51391,254.691,0.758474
317.4000,1.90666,254.396,0.754902
317.3000,-2.46243,254.307,0.753816
317.2000,0.372147,255.408,0.767157
317.1000,-0.345549,255.091,0.763319
317.0000,0.625577,254.846,0.760355
316.9000,0.298085,255.884,0.772907
316.8000,-3.49769,255.06,0.762948
316.7000,4.03246,254.583,0.757169
316.6000,-0.294343,254.671,0.758227
316.5000,1.8402,254.165,0.752097
316.4000,2.0657,255.52,0.768513
316.3000,2.64966,254.683,0.758378
316.2000,4.80743,254.417,0.75515
316.1000,2.54226,255.676,0.770389
316.0000,0.266314,254.399,0.75493
315.9000,1.04498,255.163,0.764196
315.8000,2.22754,254.941,0.761508
315.7000,2.42515,255.401,0.767075
315.6000,0.0792357,254.693,0.758502
315.5000,3.70388,255.478,0.768006
315.4000,3.69525,254.201,0.752537
315.3000,-0.800442,255.552,0.768896
315.2000,3.8206,255.084,0.763236
315.1000,2.11198,254.273,0.753404
315.0000,3.00539,254.514,0.756332
314.9000,0.698749,255.497,0.768225
314.8000,-1.30776,254.359,0.754448
314.7000,1.89839,254.733,0.758982
314.6000,2.67967,254.273,0.753404
314.5000,1.71633,254.467,0.755754
314.4000,4.33515,254.221,0.752771
314.3000,2.04936,254.339,0.754201
314.2000,2.40072,254.885,0.760822
314.1000,1.09368,254.135,0.751726
314.0000,3.60486,254.342,0.754242
313.9000,2.36975,254.649,0.757966
313.8000,1.63098,254.416,0.755136
313.7000,2.25092,255.152,0.764059
313.6000,1.36245,254.339,0.754201
313.5000,0.479763,254.396,0.754902
313.4000,2.69467,254.801,0.759806
313.3000,4.71979,254.349,0.754325
313.2000,0.0160845,255.83,0.77225
313.1000,0.534169,254.367,0.754545
313.0000,2.38992,254.803,0.759834
312.9000,4.39921,254.399,0.75493
312.8000,2.51403,254.715,0.758763
312.7000,5.61639,253.959,0.749593
312.6000,-1.11135,254.213,0.752675
312.5000,3.32213,253.798,0.747637
312.4000,-1.96895,254.844,0.760328
312.3000,1.38338,254.663,0.758131
312.2000,5.08288,254.155,0.751973
312.1000,-1.00098,255.134,0.76384
312.0000,2.12566,254.948,0.76159
311.9000,-1.77172,254.293,0.753651
311.8000,2.53312,254.62,0.757609
311.7000,0.364612,253.959,0.749593
311.6000,3.07514,254.754,0.759243
311.5000,1.86704,254.23,0.752881
311.4000,1.79489,254.187,0.752358
311.3000,2.53328,254.825,0.760095
311.2000,6.01216,254.29,0.75361
311.1000,1.64996,254.983,0.762016
311.0000,4.95646,254.065,0.750886
310.9000,-0.079943,253.218,0.740579
310.8000,2.4112,254.37,0.754586
310.7000,1.20871,254.289,0.753596
310.6000,2.01841,254.457,0.755644
310.5000,4.16005,254.911,0.761138
310.4000,2.5223,254.51,0.756276
310.3000,2.91459,254.299,0.75372
310.2000,0.401229,255.021,0.762468
310.1000,0.514562,254.317,0.75394
310.0000,-0.434588,254.453,0.755589
309.9000,-0.872489,254.944,0.761536
309.8000,1.23182,254.522,0.756428
309.7000,-1.85375,254.462,0.755699
309.6000,0.300248,255.498,0.768239
309.5000,5.01726,254.281,0.7535
309.4000,3.83375,253.846,0.748216
309.3000,2.89943,254.589,0.757238
309.2000,3.98894,254.305,0.753789
309.1000,4.17288,254.92,0.761247
309.0000,0.961367,255.135,0.763853
308.9000,1.40883,254.423,0.755232
308.8000,6.00988,253.988,0.74995
308.7000,0.464722,254.092,0.751203
308.6000,2.87387,254.933,0.761412
308.5000,-0.365787,253.897,0.748835
308.4000,0.412486,254.264,0.753294
308.3000,2.68359,254.584,0.757183
308.2000,1.42195,253.515,0.744193
308.1000,2.7569,254.094,0.75123
308.0000,2.93698,253.583,0.74502
307.9000,1.82933,254.306,0.753802
307.8000,2.19155,254.965,0.761796
307.7000,2.0636,254.546,0.756716
307.6000,1.65818,254.311,0.753871
307.5000,1.42625,254.536,0.756593
307.4000,2.29659,253.712,0.74659
307.3000,4.69421,254.102,0.751327
307.2000,1.97161,253.963,0.749648
307.1000,0.292008,253.872,0.748532
307.0000,0.885339,253.737,0.746894
306.9000,-1.97336,253.331,0.741959
306.8000,1.63188,253.633,0.745626
306.7000,-0.511587,254.048,0.75068
306.6000,3.03042,254.312,0.753885
306.5000,2.44361,254.316,0.753926
306.4000,0.385288,254.448,0.755534
306.3000,2.50561,253.716,0.746646
306.2000,2.93741,254.555,0.756826
306.1000,-0.13047,253.602,0.745254
306.0000,2.30733,254.879,0.760753
305.9000,1.73991,253.809,0.747775
305.8000,1.50986,254.133,0.751712
305.7000,1.99073,254.067,0.7509
305.6000,0.676051,253.967,0.749689
305.5000,2.10806,254.319,0.753967
305.4000,3.28211,253.959,0.749593
305.3000,-0.534001,253.477,0.743738
305.2000,0.161909,253.96,0.749606
305.1000,0.747868,254.007,0.750171
305.0000,2.20179,253.145,0.739696
304.9000,0.563797,253.822,0.747927
304.8000,3.50958,253.629,0.745585
304.7000,1.11445,253.618,0.745447
304.6000,0.67126,253.305,0.741641
304.5000,2.49119,253.651,0.745846
304.4000,1.30894,254.249,0.753115
304.3000,0.822266,253.162,0.739903
304.2000,3.63723,253.805,0.74772
304.1000,4.58775,253.746,0.747004
304.0000,0.540524,253.516,0.744207
303.9000,2.58986,253.168,0.739972
303.8000,1.44189,253.618,0.745447
303.7000,1.3572,253.968,0.749703
303.6000,-0.865268,253.135,0.739572
303.5000,-0.343186,253.167,0.739958
303.4000,1.59892,253.987,0.749937
303.3000,0.687361,254.058,0.75079
303.2000,3.07377,253.48,0.743765
303.1000,-0.708178,253.969,0.749717
303.0000,-1.3081,253.386,0.742621
302.9000,4.05382,253.548,0.744592
302.8000,1.07188,253.77,0.747293
302.7000,2.64001,253.756,0.747128
302.6000,3.52681,254.106,0.751382
302.5000,0.0381375,253.319,0.741807
302.4000,1.19159,253.837,0.748106
302.3000,1.32941,253.737,0.746894
302.2000,1.44283,253.563,0.744785
302.1000,1.21745,253.023,0.738205
302.0000,0.591355,253.481,0.743779
301.9000,0.868733,253.89,0.748753
301.8000,2.90242,252.969,0.737542
301.7000,4.1632,253.849,0.748257
301.6000,0.768897,253.576,0.744937
301.5000,3.55073,252.896,0.736658
301.4000,1.28468,253.945,0.749427
301.3000,-0.628855,253.63,0.745599
301.2000,2.71624,253.594,0.745157
301.1000,2.32018,253.443,0.743324
301.0000,0.671002,253.293,0.74149
300.9000,2.56017,253.388,0.742648
300.8000,1.59668,252.473,0.731503
300.7000,0.298264,253.857,0.748354
300.6000,2.41345,253.195,0.740303
300.5000,3.57054,252.715,0.734447
300.4000,2.11426,253.67,0.746081
300.3000,1.834,253.132,0.73953
300.2000,0.51303,253.275,0.741269
300.1000,1.87454,253.151,0.739765
300.0000,-0.697666,253.102,0.739172
299.9000,1.96438,253.345,0.742124
299.8000,1.17352,252.877,0.736424
299.7000,2.37874,253.174,0.740041
299.6000,2.12488,253.664,0.746012
299.5000,4.34296,253.681,0.746219
299.4000,-0.813916,252.99,0.737805
299.3000,3.03239,252.718,0.734489
299.2000,0.673576,252.93,0.737073
299.1000,2.6726,252.628,0.733383
299.0000,2.46904,253.175,0.740055
298.9000,0.299295,253.922,0.749138
298.8000,2.49042,252.657,0.733743
298.7000,2.91634,253.441,0.743296
298.6000,-1.27567,252.383,0.730396
298.5000,-0.522539,252.801,0.735498
298.4000,1.65633,253.175,0.740055
298.3000,-0.8015,253.018,0.73815
298.2000,0.131879,253.496,0.743958
298.1000,1.34564,253.535,0.744441
298.0000,1.38295,253.015,0.738108
297.9000,3.24786,252.536,0.732263
297.8000,2.54945,253.043,0.738454
297.7000,1.02293,251.672,0.72171
297.6000,1.42884,253.134,0.739558
297.5000,1.04939,253.722,0.746715
297.4000,1.45989,252.061,0.726464
297.3000,3.72956,253.397,0.742759
297.2000,2.42937,252.46,0.731336
297.1000,1.8947,253.698,0.746425
297.0000,2.26748,252.856,0.736175
296.9000,3.12,252.585,0.732858
296.8000,3.37122,252.17,0.727794
296.7000,-0.968497,252.957,0.737404
296.6000,-0.097418,253.237,0.740814
296.5000,3.20256,252.876,0.73641
296.4000,0.819306,253.114,0.73931
296.3000,3.85835,252.335,0.729814
296.2000,2.16204,253.133,0.739544
296.1000,0.818715,253.241,0.740855
296.0000,2.75989,252.544,0.73236
295.9000,1.10421,253.337,0.742028
295.8000,3.85334,252.607,0.733134
295.7000,3.82244,253.157,0.739834
295.6000,1.48895,253.006,0.737998
295.5000,-0.65812,253.273,0.741255
295.4000,1.87428,252.859,0.736203
295.3000,-0.777719,253.076,0.738854
295.2000,2.63856,252.485,0.731641
295.1000,-1.16219,252.517,0.732028
295.0000,1.00608,253.009,0.738039
294.9000,2.13807,253.006,0.737998
294.8000,0.471566,252.478,0.731558
294.7000,0.890582,251.781,0.723041
294.6000,-0.410158,252.585,0.732858
294.5000,0.680495,252.81,0.735608
294.4000,4.22963,252.958,0.737418
294.3000,-0.550478,252.838,0.735954
294.2000,3.80937,252.527,0.732153
294.1000,-0.691558,251.936,0.72494
294.0000,2.55869,252.145,0.727489
293.9000,1.4381,252.522,0.732097
293.8000,2.02947,252.688,0.734116
293.7000,1.88983,252.083,0.726727
293.6000,2.36527,252.229,0.728513
293.5000,2.37831,252.592,0.732955
293.4000,2.29614,252.408,0.7307
293.3000,2.19874,252.084,0.726741
293.2000,3.15841,251.584,0.720628
293.1000,-1.6119,253.203,0.7404
293.0000,2.55575,252.579,0.732789
292.9000,3.84592,252.654,0.733701
292.8000,1.45972,251.914,0.724663
292.7000,2.54896,252.129,0.727295
292.6000,1.86752,251.863,0.724039
292.5000,3.00915,252.713,0.73442
292.4000,2.77218,252.217,0.728375
292.3000,-0.398659,251.85,0.723887
292.2000,3.27923,252.088,0.726797
292.1000,0.9419,251.82,0.723513
292.0000,1.62002,251.632,0.721211
291.9000,2.31111,252.067,0.726533
291.8000,1.74566,252.213,0.72832
291.7000,2.99961,251.347,0.717728
291.6000,4.05162,251.68,0.721807
291.5000,2.64214,251.56,0.720337
291.4000,0.125525,251.143,0.715228
291.3000,-0.765203,251.6,0.720822
291.2000,1.65033,250.948,0.712837
291.1000,2.77586,251.877,0.724219
291.0000,2.02183,251.134,0.715117
290.9000,1.74757,250.418,0.706326
290.8000,0.15313,251.501,0.719615
290.7000,3.26113,251.387,0.718214
290.6000,4.18563,251.274,0.716825
290.5000,3.18797,251.653,0.721474
290.4000,5.23234,251.964,0.725273
290.3000,2.17129,251.518,0.719823
290.2000,-0.799154,251.96,0.725231
290.1000,1.30685,251.25,0.716534
290.0000,1.42138,252.966,0.737515
289.9000,0.833692,251.802,0.723291
289.8000,3.15364,251.755,0.722722
289.7000,3.62334,252.147,0.727517
289.6000,1.57804,252.221,0.728417
289.5000,-0.756783,252.004,0.725771
289.4000,4.40339,251.693,0.72196
289.3000,1.44735,252.271,0.729026
289.2000,2.52677,251.755,0.722722
289.1000,1.16866,251.789,0.723138
289.0000,4.2251,251.596,0.720781
288.9000,3.44441,251.984,0.725522
288.8000,2.53697,252.471,0.731475
288.7000,2.1549,251.139,0.715172
288.6000,0.114519,251.715,0.722237
288.5000,1.91166,252.2,0.728167
288.4000,2.01907,251.569,0.720448
288.3000,1.32801,251.705,0.722112
288.2000,2.58258,251.098,0.714672
288.1000,3.96914,251.889,0.724358
288.0000,2.70066,251.894,0.724427
287.9000,1.65703,252.801,0.735498
287.8000,-1.42731,250.573,0.708233
287.7000,1.98001,251.608,0.72092
287.6000,-0.336804,252.907,0.736796
287.5000,3.81756,251.708,0.72214
287.4000,1.62911,252.047,0.726298
287.3000,2.16346,252.021,0.725979
287.2000,2.27539,251.181,0.715686
287.1000,2.29949,252.169,0.72778
287.0000,2.19102,253.489,0.743876
286.9000,0.31022,252.046,0.726284
286.8000,0.878992,251.405,0.718436
286.7000,3.77314,251.819,0.723499
286.6000,4.29444,251.662,0.721585
286.5000,0.536919,250.977,0.713185
286.4000,4.24948,251.437,0.718824
286.3000,2.54813,251.875,0.724192
286.2000,0.656206,251.602,0.72085
286.1000,2.25366,251.667,0.721641
286.0000,3.0944,253.925,0.74918
285.9000,4.14883,252.009,0.725827
285.8000,1.86437,252.11,0.727059
285.7000,0.450614,251.209,0.716033
285.6000,3.85249,251.641,0.721322
285.5000,1.45889,251.353,0.717797
285.4000,1.20607,251.76,0.722778
285.3000,1.75077,252.45,0.731212
285.2000,1.19074,251.985,0.725536
285.1000,1.87484,253.217,0.740565
285.0000,1.34308,251.035,0.713894
284.9000,4.24465,251.454,0.719033
284.8000,-0.0713761,251.212,0.716075
284.7000,1.63198,251.612,0.720975
284.6000,0.195249,250.91,0.712365
284.5000,2.14225,251.572,0.720475
284.4000,1.1777,251.652,0.721461
284.3000,5.20618,251.022,0.713741
284.2000,2.48946,250.829,0.711377
284.1000,0.77966,251.799,0.723263
284.0000,-0.924321,251.633,0.721225
283.9000,1.44889,250.861,0.711767
283.8000,1.15624,250.401,0.706117
283.7000,0.871529,251.182,0.7157
283.6000,1.51386,252.74,0.734752
283.5000,3.25982,250.526,0.707648
283.4000,0.761058,251.637,0.72128
283.3000,3.52,249.589,0.696117
283.2000,1.68498,251.547,0.72017
283.1000,0.463588,251.897,0.724455
283.0000,2.0922,251.275,0.716839
282.9000,2.07057,250.606,0.708637
282.8000,-0.0106753,251.478,0.719324
282.7000,0.129922,251.075,0.714394
282.6000,0.345461,251.366,0.717964
282.5000,3.23285,250.606,0.708637
282.4000,6.16575,251.264,0.716714
282.3000,2.87971,252.084,0.726741
282.2000,3.1257,250.363,0.705643
282.1000,0.520183,251.936,0.72494
282.0000,1.26706,251.079,0.714436
281.9000,1.35654,250.886,0.712073
281.8000,3.64275,251.654,0.721488
281.7000,1.87127,250.869,0.711864
281.6000,1.27285,250.769,0.71064
281.5000,4.15451,251.24,0.716408
281.4000,6.54712,251.121,0.71495
281.3000,3.22138,250.795,0.71096
281.2000,3.61071,250.501,0.707342
281.1000,2.40686,250.555,0.70801
281.0000,-0.21058,251.074,0.71438
280.9000,0.466021,251.406,0.718449
280.8000,2.23803,250.278,0.704598
280.7000,2.67407,251.359,0.717867
280.6000,-0.067614,250.929,0.712601
280.5000,3.45869,250.75,0.710404
280.4000,1.1277,249.938,0.700416
280.3000,2.68518,250.625,0.708873
280.2000,-0.84153,250.255,0.70432
280.1000,2.84203,249.995,0.701127
280.0000,-1.45283,251.54,0.720087
279.9000,1.81513,250.75,0.710404
279.8000,-1.59979,250.313,0.70503
279.7000,1.13416,251.449,0.718977
279.6000,2.4514,249.897,0.699914
279.5000,3.52478,251.37,0.718005
279.4000,0.078585,250.79,0.71089
279.3000,0.113023,250.821,0.71128
279.2000,0.982044,250.836,0.711461
279.1000,-0.553996,250.929,0.712601
279.0000,0.593987,250.97,0.713101
278.9000,1.10981,250.865,0.711809
278.8000,1.24506,250.425,0.706409
278.7000,1.11134,250.671,0.70943
278.6000,0.553993,250.764,0.710571
278.5000,3.08366,250.707,0.709875
278.4000,3.76991,251.399,0.718366
278.3000,0.379209,250.843,0.711544
278.2000,2.51451,251.175,0.715617
278.1000,2.96045,250.499,0.707314
278.0000,1.69403,250.922,0.712518
277.9000,-2.06915,251.697,0.722015
277.8000,1.90272,251.19,0.715797
277.7000,2.93188,249.904,0.699998
277.6000,1.52075,250.894,0.71217
277.5000,0.792782,251.804,0.723318
277.4000,-0.486726,250.036,0.701629
277.3000,4.10271,250.974,0.713157
277.2000,-0.453345,250.212,0.70379
277.1000,-0.154848,250.074,0.70209
277.0000,2.75358,250.787,0.710863
276.9000,-0.686629,251.42,0.718616
276.8000,1.34698,250.641,0.709068
276.7000,2.15253,250.793,0.710932
276.6000,1.3498,250.636,0.708998
276.5000,-0.268326,250.526,0.707648
276.4000,1.18575,250.974,0.713157
276.3000,2.7178,250.154,0.703079
276.2000,-0.284617,250.404,0.706158
276.1000,2.08798,250.252,0.704278
276.0000,0.960853,249.938,0.700416
275.9000,1.52517,250.411,0.706242
275.8000,1.65358,250.241,0.704153
275.7000,-0.540273,250.042,0.701699
275.6000,3.38521,250.7,0.709792
275.5000,0.0260366,251.361,0.717894
275.4000,-0.464869,249.844,0.699258
275.3000,2.29134,250.53,0.707704
275.2000,-0.74026,250.301,0.704891
275.1000,0.861962,251.042,0.713991
275.0000,0.88162,250.688,0.709638
274.9000,1.21646,251.063,0.714241
274.8000,-0.0596815,249.828,0.699063
274.7000,3.47622,250.73,0.710153
274.6000,-0.0779318,250.062,0.70195
274.5000,1.12011,249.639,0.696732
274.4000,3.65212,250.359,0.705601
274.3000,0.884515,250.866,0.711822
274.2000,0.798208,250.273,0.704543
274.1000,2.06104,249.882,0.699733
274.0000,2.19661,250.986,0.713296
273.9000,4.96468,250.562,0.708094
273.8000,0.529835,250.153,0.703065
273.7000,1.92136,250.474,0.707008
273.6000,0.723926,249.803,0.698756
273.5000,0.547555,249.957,0.700653
273.4000,1.59387,250.437,0.706562
273.3000,2.14,249.475,0.694721
273.2000,2.48329,250.467,0.706924
273.1000,2.41194,250.146,0.702982
273.0000,2.47285,250.17,0.703274
272.9000,2.37186,249.622,0.696522
272.8000,2.81599,250.618,0.708776
272.7000,2.59267,249.925,0.700263
272.6000,3.0624,250.409,0.706214
272.5000,-3.15733,250.798,0.710988
272.4000,2.66911,250.424,0.706395
272.3000,1.91154,249.964,0.700737
272.2000,2.21234,250.502,0.707356
272.1000,0.247999,249.967,0.700779
272.0000,0.992396,250.381,0.705866
271.9000,0.728262,250.448,0.706688
271.8000,0.578209,250.008,0.701281
271.7000,1.48044,250.491,0.707217
271.6000,1.02787,250.817,0.711224
271.5000,2.33289,250.039,0.701657
271.4000,6.61264,251.133,0.715103
271.3000,-0.119341,249.93,0.700319
271.2000,-0.0191083,249.988,0.70103
271.1000,1.07371,250.206,0.70372
271.0000,0.121543,250.491,0.707217
270.9000,1.08148,249.892,0.699858
270.8000,0.343402,250.191,0.703539
270.7000,0.254552,250.883,0.712031
270.6000,0.318861,249.957,0.700653
270.5000,1.04008,248.877,0.687337
270.4000,0.271278,250.104,0.702466
270.3000,1.70538,250.85,0.711628
270.2000,0.168975,249.691,0.697374
270.1000,3.55189,250.675,0.709485
270.0000,-2.08652,250.846,0.711586
269.9000,2.71214,250.272,0.704529
269.8000,-0.916877,250.52,0.707579
269.7000,0.0443394,249.958,0.700667
269.6000,5.25068,250.611,0.708692
269.5000,0.451186,250.261,0.704389
269.4000,1.74602,250.21,0.703762
269.3000,0.413033,250.181,0.703414
269.2000,1.40218,249.845,0.699272
269.1000,0.16425,250.075,0.702103
269.0000,0.231599,250.506,0.707412
268.9000,3.01296,249.797,0.698686
268.8000,3.78257,251.075,0.714394
268.7000,1.13371,250.751,0.710418
268.6000,0.632091,250.184,0.703442
268.5000,0.763215,251.948,0.725079
268.4000,-0.592664,250.453,0.706757
268.3000,3.007,250.22,0.703888
268.2000,0.756227,250.642,0.709082
268.1000,2.16961,249.398,0.693771
268.0000,2.30496,250.224,0.703944
267.9000,2.11941,251.14,0.715186
267.8000,0.581526,250.518,0.707551
267.7000,2.15408,250.675,0.709485
267.6000,2.64109,250.797,0.710974
267.5000,1.64471,250.391,0.705991
267.4000,4.07752,250.164,0.703205
267.3000,-0.0513293,249.813,0.698882
267.2000,1.9978,250.865,0.711809
267.1000,0.757905,250.514,0.707509
267.0000,-1.2422,249.735,0.697918
266.9000,0.777129,250.943,0.712768
266.8000,3.07162,249.575,0.69595
266.7000,-1.81904,249.976,0.70089
266.6000,-0.319549,251.291,0.717033
266.5000,0.111376,249.261,0.69208
266.4000,1.4962,250.724,0.710084
266.3000,0.109246,250.929,0.712601
266.2000,1.21718,251.084,0.714505
266.1000,-1.55277,251.615,0.721003
266.0000,0.467247,250.051,0.701811
265.9000,1.47778,250.036,0.701629
265.8000,0.334799,250.78,0.710766
265.7000,-1.73282,250.465,0.706897
265.6000,-0.192683,250.026,0.701504
265.5000,1.99002,249.691,0.697374
265.4000,2.06552,251.355,0.717825
265.3000,0.884388,250.928,0.712587
265.2000,2.64575,250.801,0.71103
265.1000,1.07277,249.762,0.698254
265.0000,3.89719,250.82,0.711266
264.9000,0.609635,250.569,0.708177
264.8000,2.74207,251.412,0.718519
264.7000,2.1311,251.147,0.715269
264.6000,-1.27723,250.76,0.710529
264.5000,-0.660169,251.051,0.714102
264.4000,-0.331909,251.353,0.717797
264.3000,-1.26667,251.28,0.716908
264.2000,4.16182,251.033,0.71388
264.1000,0.905352,251.327,0.717478
264.0000,1.78838,250.334,0.705295
263.9000,2.25525,249.939,0.70043
263.8000,2.18041,250.704,0.709833
263.7000,-0.237436,251.122,0.714964
263.6000,-0.99082,250.875,0.711934
263.5000,-0.431522,250.897,0.712212
263.4000,0.63935,251.283,0.716936
263.3000,0.693936,250.173,0.703316
263.2000,1.07729,251.54,0.720087
263.1000,3.01641,251.027,0.713796
263.0000,-0.453523,250.781,0.710779
262.9000,3.45936,251.053,0.714116
262.8000,-0.378218,251.423,0.718658
262.7000,1.17592,251.315,0.717339
262.6000,2.34869,251.209,0.716033
262.5000,-0.971743,251.044,0.714005
262.4000,3.75424,251.269,0.71677
262.3000,-1.07015,251.376,0.718075
262.2000,1.02971,250.819,0.711252
262.1000,-0.00937635,250.772,0.710668
262.0000,-2.33049,250.746,0.710348
261.9000,2.22185,251.759,0.722764
261.8000,1.50618,251.461,0.719116
261.7000,0.724175,251.778,0.723
261.6000,0.1796,252.725,0.734572
261.5000,1.71274,251.521,0.719851
261.4000,3.82415,252.214,0.728334
261.3000,2.10584,252.197,0.728126
261.2000,0.919901,251.039,0.713949
261.1000,0.526051,252.177,0.727877
261.0000,2.17339,251.022,0.713741
260.9000,1.40153,250.682,0.709569
260.8000,1.17628,251.313,0.717311
260.7000,0.0118737,251.61,0.720947
260.6000,4.05035,251.414,0.718547
260.5000,1.857,251.63,0.721197
260.4000,0.915416,250.809,0.711127
260.3000,2.98769,251.692,0.721946
260.2000,1.25528,250.814,0.711183
260.1000,-2.71749,251.508,0.719699
260.0000,2.98068,252.736,0.73471
259.9000,3.57769,251.567,0.72042
259.8000,2.49944,251.805,0.723333
259.7000,3.55697,251.296,0.717103
259.6000,3.16243,250.88,0.712003
259.5000,1.17349,251.674,0.721724
259.4000,-1.32151,251.961,0.725245
259.3000,-1.32649,251.956,0.725176
259.2000,0.51569,251.798,0.723249
259.1000,1.59604,251.956,0.725176
259.0000,0.772246,251.773,0.722944
258.9000,0.391815,252.345,0.729939
258.8000,0.0334172,252.485,0.731641
258.7000,-1.34961,252.236,0.728597
258.6000,0.621781,252.711,0.734406
258.5000,4.05642,251.949,0.725093
258.4000,0.623851,252.335,0.729814
258.3000,4.82303,252.246,0.728721
258.2000,2.80608,251.601,0.720836
258.1000,0.875514,252.191,0.728057
258.0000,4.00286,251.583,0.720614
257.9000,2.25775,252.815,0.735664
257.8000,0.976051,252.421,0.730866
257.7000,0.408369,251.951,0.72512
257.6000,1.47848,252.114,0.727115
257.5000,1.99429,252.485,0.731641
257.4000,1.73149,252.2,0.728167
257.3000,0.659183,252.104,0.72699
257.2000,0.837842,252.361,0.730133
257.1000,1.08966,252.494,0.731751
257.0000,2.02894,252.294,0.729316
256.9000,2.0265,252.527,0.732153
256.8000,0.0521779,252.051,0.726339
256.7000,1.52687,253.296,0.741531
256.6000,2.88271,252.416,0.730797
256.5000,-1.10234,252.01,0.725841
256.4000,1.04383,253.414,0.742966
256.3000,-1.25894,252.339,0.729856
256.2000,4.54257,251.737,0.722501
256.1000,3.50635,252.211,0.728292
256.0000,2.71269,252.606,0.73312
255.9000,1.59428,253.052,0.738564
255.8000,3.07696,251.38,0.71813
255.7000,0.699021,253.102,0.739172
255.6000,1.4653,252.711,0.734406
255.5000,-1.8998,253.366,0.742386
255.4000,0.342188,253.364,0.742359
255.3000,1.07311,253.618,0.745447
255.2000,0.0552175,253.643,0.74575
255.1000,-1.0301,251.91,0.724621
255.0000,2.43205,252.938,0.73717
254.9000,4.13141,252.888,0.736562
254.8000,1.09768,252.074,0.726616
254.7000,1.09007,252.597,0.73301
254.6000,2.6743,251.431,0.718755
254.5000,2.73618,252.603,0.733079
254.4000,2.48712,252.67,0.733895
254.3000,0.814589,252.979,0.737667
254.2000,-1.79181,252.398,0.730576
254.1000,0.754554,252.977,0.737639
254.0000,-0.787711,254.139,0.751781
253.9000,3.8672,253.428,0.743131
253.8000,1.30152,255.189,0.764512
253.7000,3.94516,252.937,0.737155
253.6000,-3.56131,252.686,0.734102
253.5000,1.62644,253.162,0.739903
253.4000,1.17741,252.164,0.727724
253.3000,2.34641,252.522,0.732097
253.2000,2.44703,252.703,0.734309
253.1000,1.84546,253.001,0.737943
253.0000,-2.31659,252.873,0.736382
252.9000,2.27492,253.261,0.741104
252.8000,1.71136,253.348,0.742166
252.7000,-0.822707,252.249,0.728763
252.6000,1.38724,252.827,0.735816
252.5000,2.99322,252.858,0.736189
252.4000,2.13938,253.584,0.745034
252.3000,4.08862,254.195,0.752455
252.2000,-0.785315,254.033,0.750487
252.1000,4.43326,254.052,0.750721
252.0000,1.36903,253.749,0.747045
251.9000,3.07592,251.712,0.722195
251.8000,2.40307,254.166,0.752111
251.7000,2.40413,252.608,0.733148
251.6000,0.595539,253.837,0.748106
251.5000,0.49849,253.375,0.742497
251.4000,1.91991,253.277,0.741297
251.3000,4.82474,254.528,0.756496
251.2000,0.743703,254.009,0.750198
251.1000,4.52194,253.975,0.749785
251.0000,-0.979982,253.582,0.745006
250.9000,4.63099,253.17,0.74
250.8000,0.0469502,253.392,0.742704
250.7000,1.48036,253.35,0.742193
250.6000,0.0758313,253.864,0.748436
250.5000,4.46123,253.04,0.738412
250.4000,3.11359,253.534,0.744427
250.3000,2.05373,253.89,0.748753
250.2000,0.266079,253.711,0.746577
250.1000,3.38946,253.422,0.743062
250.0000,3.64469,253.635,0.745654
249.9000,1.86153,253.068,0.738757
249.8000,0.285215,253.288,0.741435
249.7000,3.83406,253.86,0.748395
249.6000,3.59347,253.048,0.738509
249.5000,-0.971704,253.103,0.739185
249.4000,-0.334391,253.933,0.749276
249.3000,4.5808,253.732,0.746839
249.2000,-0.884224,253.377,0.74251
249.1000,3.19838,253.456,0.743476
249.0000,1.92549,253.499,0.744
248.9000,1.99387,253.403,0.742828
248.8000,0.870517,253.69,0.746329
248.7000,-0.304646,253.548,0.744592
248.6000,2.16242,253.296,0.741531
248.5000,0.976882,253.17,0.74
248.4000,2.66544,253.343,0.742097
248.3000,-0.735255,253.416,0.742993
248.2000,3.23224,253.411,0.742924
248.1000,-0.0313671,253.663,0.745998
248.0000,-1.28626,253.692,0.746343
247.9000,-1.30629,253.224,0.740648
247.8000,2.67086,253.389,0.742662
247.7000,2.13822,253.08,0.738895
247.6000,1.91111,253.782,0.747445
247.5000,0.908738,253.472,0.743669
247.4000,3.82173,253.49,0.743889
247.3000,1.9458,253.595,0.745171
247.2000,1.45712,253.577,0.744951
247.1000,1.35041,253.952,0.74951
247.0000,1.26568,253.348,0.742166
246.9000,1.43582,254.137,0.751753
246.8000,3.15955,254.178,0.752248
246.7000,1.19937,253.692,0.746343
246.6000,1.1137,253.566,0.744813
246.5000,0.415491,253.962,0.749634
246.4000,3.38002,254.396,0.754902
246.3000,3.0427,254.367,0.754545
246.2000,1.36481,254.569,0.756991
246.1000,2.97949,254.041,0.750583
246.0000,1.91277,254.299,0.75372
245.9000,-1.41968,254.192,0.752427
245.8000,-0.109324,254.414,0.755122
245.7000,2.26094,253.771,0.747307
245.6000,2.5019,254.307,0.753816
245.5000,2.73303,254.183,0.752317
245.4000,3.63714,253.59,0.745102
245.3000,3.23109,254.229,0.752867
245.2000,0.977879,253.651,0.745846
245.1000,2.92617,254.314,0.753899
245.0000,0.345135,254.051,0.750707
244.9000,1.86312,254.317,0.75394
244.8000,1.10166,253.653,0.745874
244.7000,0.128002,253.942,0.749386
244.6000,1.10201,253.753,0.747086
244.5000,0.556878,253.871,0.748519
244.4000,1.46956,254.513,0.756318
244.3000,1.64581,254.113,0.751464
244.2000,0.41465,253.605,0.745295
244.1000,2.43715,254.099,0.751299
244.0000,2.54304,254.209,0.752633
243.9000,1.67291,254.537,0.756606
243.8000,1.89984,254.218,0.752744
243.7000,1.09186,254.461,0.755685
243.6000,2.81173,253.32,0.741821
243.5000,2.50481,254.489,0.756029
243.4000,1.47285,253.873,0.748546
243.3000,2.88407,254.437,0.755397
243.2000,2.94703,253.889,0.748739
243.1000,0.0880918,253.801,0.747679
243.0000,1.73222,253.855,0.748326
242.9000,1.38856,254.23,0.752881
242.8000,-0.665948,254.353,0.75438
242.7000,4.18705,254.193,0.752441
242.6000,3.07337,254.552,0.756785
242.5000,1.91246,254.532,0.756551
242.4000,4.02465,254.593,0.757293
242.3000,1.37757,253.988,0.74995
242.2000,1.42249,254.44,0.755438
242.1000,3.32374,253.829,0.748009
242.0000,0.135031,254.673,0.758255
241.9000,-0.553011,254.357,0.754421
241.8000,2.15257,254.385,0.754765
241.7000,-0.518929,253.91,0.749001
241.6000,-1.84996,254.242,0.753032
241.5000,0.795936,254.83,0.760163
241.4000,0.0525312,254.285,0.753555
241.3000,4.18642,254.923,0.761288
241.2000,1.99308,253.747,0.747017
241.1000,0.948577,255.54,0.768746
241.0000,0.546115,256.049,0.774903
240.9000,-1.13566,254.332,0.754119
240.8000,4.57653,255.413,0.767212
240.7000,0.00338103,254.529,0.75651
240.6000,2.82687,254.342,0.754242
240.5000,0.545307,255.379,0.766801
240.4000,1.15299,255.286,0.765677
240.3000,0.448353,254.683,0.758378
240.2000,1.05413,255.35,0.766458
240.1000,1.45886,256.148,0.776092
240.0000,4.22428,254.85,0.760396
239.9000,0.504606,254.71,0.758708
239.8000,1.00354,255.825,0.772195
239.7000,2.38616,255.51,0.76839
239.6000,2.60381,255.032,0.762605
239.5000,-1.55572,255.176,0.764347
239.4000,3.81157,255.396,0.767006
239.3000,0.624713,254.981,0.761988
239.2000,3.19825,255.331,0.766225
239.1000,-0.175893,256.129,0.77586
239.0000,-0.784468,255.133,0.763826
238.9000,2.95118,254.823,0.760081
238.8000,-4.1939,255.655,0.770142
238.7000,2.95862,255.043,0.762743
238.6000,-0.743384,255.253,0.765279
238.5000,0.399956,255.699,0.770676
238.4000,3.49791,255.885,0.77292
238.3000,-0.535561,255.638,0.769937
238.2000,1.53223,256.324,0.77821
238.1000,3.62398,255.557,0.768951
238.0000,4.7803,255.958,0.773796
237.9000,0.287021,256.861,0.78468
237.8000,-0.833443,256.826,0.784257
237.7000,3.39562,256.063,0.775067
237.6000,4.12384,256.913,0.785307
237.5000,-2.24431,256.021,0.774562
237.4000,1.88947,256.125,0.775819
237.3000,1.79415,257.073,0.787229
237.2000,2.29417,257.252,0.789381
237.1000,2.51505,256.139,0.775983
237.0000,3.22184,255.961,0.773837
236.9000,3.32181,257.988,0.798223
236.8000,2.01955,255.889,0.772961
236.7000,-2.08515,255.8,0.771894
236.6000,1.67138,256.547,0.780901
236.5000,-1.48334,256.262,0.777473
236.4000,3.57403,255.838,0.772346
236.3000,-1.86498,256.375,0.778825
236.2000,-0.281209,257.205,0.788823
236.1000,3.18113,256.604,0.781583
236.0000,1.02413,256.618,0.78176
235.9000,2.59943,257.321,0.790212
235.8000,2.56507,257.142,0.78806
235.7000,0.892439,256.301,0.777937
235.6000,0.72997,257.689,0.794634
235.5000,2.18113,256.965,0.785934
235.4000,3.79485,258.623,0.805824
235.3000,2.13504,257.315,0.790144
235.2000,0.866198,257.572,0.793233
235.1000,0.134414,258.453,0.803789
235.0000,1.17045,258.299,0.801944
234.9000,2.99255,255.717,0.770895
234.8000,1.16598,256.483,0.780136
234.7000,-0.907202,258.07,0.799201
234.6000,1.67838,259.025,0.810634
234.5000,2.0449,258.225,0.801062
234.4000,-0.223699,257.011,0.786493
234.3000,-2.28782,258.058,0.799065
234.2000,-1.10643,257.437,0.791614
234.1000,1.78733,258.768,0.807559
234.0000,1.34477,259.302,0.813951
233.9000,0.933659,258.462,0.803898
233.8000,1.79029,258.191,0.800654
233.7000,1.22726,258.756,0.807424
233.6000,-0.101267,258.795,0.807884
233.5000,0.790244,258.168,0.800383
233.4000,-1.5523,258.998,0.810309
233.3000,-0.807067,258.835,0.808359
233.2000,1.12366,259.179,0.812476
233.1000,0.462247,258.862,0.808684
233.0000,-2.26023,258.919,0.809375
232.9000,1.83285,259.377,0.814843
232.8000,0.945944,259.152,0.812151
232.7000,3.71467,258.79,0.80783
232.6000,2.59815,259.65,0.818102
232.5000,3.072,258.431,0.803532
232.4000,0.13606,259.495,0.81625
232.3000,5.30691,259.632,0.817886
232.2000,-0.501166,259.285,0.813748
232.1000,1.20623,260.249,0.825231
232.0000,3.65853,259.344,0.814451
231.9000,0.883792,260.62,0.829653
231.8000,0.277615,260.516,0.828413
231.7000,0.897894,259.913,0.821236
231.6000,0.647062,259.278,0.813653
231.5000,-0.515166,259.285,0.813748
231.4000,0.804915,260.109,0.823571
231.3000,0.119144,260.235,0.825069
231.2000,2.49225,259.903,0.821114
231.1000,2.23685,260.326,0.826148
231.0000,4.86976,260.42,0.827267
230.9000,3.3365,260.034,0.822681
230.8000,0.225861,259.781,0.819656
230.7000,0.0228391,260.311,0.825973
230.6000,-2.02877,260.225,0.824948
230.5000,-0.556079,260.556,0.828885
230.4000,3.59598,260.287,0.825689
230.3000,3.5716,259.98,0.822033
230.2000,3.68702,260.24,0.825123
230.1000,3.35971,260.456,0.827699
230.0000,3.55426,260.465,0.827806
229.9000,4.62952,259.791,0.819777
229.8000,5.44108,259.537,0.81675
229.7000,4.7839,260.615,0.829585
229.6000,-0.226783,260.93,0.833329
229.5000,0.58682,259.74,0.819169
229.4000,4.44186,259.613,0.817656
229.3000,2.35923,260.441,0.827523
229.2000,1.52369,261.181,0.836316
229.1000,-0.113037,261.026,0.834473
229.0000,2.25744,260.545,0.828763
228.9000,-0.719539,260.739,0.831067
228.8000,4.58611,261.152,0.835966
228.7000,1.12705,260.746,0.831148
228.6000,0.693226,261.813,0.843813
228.5000,2.45175,261.68,0.842229
228.4000,-0.226133,260.921,0.833221
228.3000,2.96419,261.114,0.835522
228.2000,1.65878,259.698,0.81867
228.1000,-2.31071,260.617,0.829612
228.0000,2.19734,261.327,0.83805
227.9000,2.75497,261.651,0.841893
227.8000,0.493372,262.233,0.848776
227.7000,0.161416,261.967,0.845638
227.6000,2.44164,263.304,0.861434
227.5000,1.80772,262.182,0.848172
227.4000,4.90903,262.611,0.85325
227.3000,4.91062,262.718,0.854508
227.2000,4.06966,262.365,0.850344
227.1000,6.35875,262.539,0.852393
227.0000,3.27283,262.621,0.85337
226.9000,1.67444,262.448,0.851322
226.8000,-1.49493,262.733,0.854696
226.7000,3.1792,264.005,0.869681
226.6000,3.01211,263.478,0.863478
226.5000,4.9645,263.365,0.862143
226.4000,1.24057,263.823,0.867548
226.3000,2.87013,262.583,0.852915
226.2000,3.50576,263.903,0.868481
226.1000,1.09115,262.645,0.853652
226.0000,2.66533,263.427,0.862877
225.9000,0.31066,263.423,0.862837
225.8000,1.84855,263.721,0.866347
225.7000,2.14785,263.743,0.866601
225.6000,1.9314,263.848,0.867841
225.5000,3.19891,263.787,0.867121
225.4000,0.149674,264.137,0.87124
225.3000,2.31816,262.757,0.854977
225.2000,2.25235,263.682,0.86588
225.1000,3.21112,264.402,0.874357
225.0000,-2.23321,264.663,0.877418
224.9000,-2.70759,264.806,0.879093
224.8000,1.1464,265.09,0.882429
224.7000,0.644411,264.211,0.872106
224.6000,3.19294,264.277,0.872879
224.5000,6.45046,265.341,0.885364
224.4000,6.36465,264.743,0.878362
224.3000,2.51127,264.164,0.87156
224.2000,2.15887,264.092,0.870707
224.1000,1.07134,264.307,0.873238
224.0000,-0.209229,264.067,0.870414
223.9000,1.19976,264.631,0.877045
223.8000,1.83157,264.509,0.875608
223.7000,2.44035,263.792,0.867174
223.6000,4.62712,264.322,0.873412
223.5000,2.87776,266.308,0.896683
223.4000,0.0140843,264.878,0.879944
223.3000,2.71064,265.874,0.891611
223.2000,3.24526,265.636,0.888827
223.1000,0.586634,265.664,0.889145
223.0000,4.33423,265.901,0.891929
222.9000,3.06606,266.703,0.901285
222.8000,1.97901,265.367,0.885669
222.7000,2.6996,265.521,0.887474
222.6000,2.71153,266.164,0.895001
222.5000,2.37876,264.596,0.876633
222.4000,-0.0445231,267.558,0.911251
222.3000,1.30577,266.08,0.894022
222.2000,2.02594,266.266,0.896193
222.1000,1.31052,266.424,0.898032
222.0000,2.85097,267.049,0.905327
221.9000,4.06975,266.628,0.900413
221.8000,4.5629,266.269,0.896219
221.7000,4.99706,266.05,0.893664
221.6000,7.07087,267.66,0.912437
221.5000,1.47805,266.869,0.903228
221.4000,2.74377,267.663,0.912477
221.3000,5.68618,267.056,0.905407
221.2000,1.76293,266.213,0.895571
221.1000,2.67262,267.475,0.910289
221.0000,3.47505,267.295,0.908192
220.9000,3.02846,266.754,0.90188
220.8000,4.21815,267.045,0.905275
220.7000,3.60672,267.186,0.906925
220.6000,6.1844,266.928,0.903914
220.5000,3.42141,267.344,0.908759
220.4000,2.09452,267.14,0.906384
220.3000,1.1229,266.937,0.90402
220.2000,3.49982,267.547,0.911119
220.1000,1.24663,267.515,0.91075
220.0000,2.00721,267.338,0.908693
219.9000,1.6303,266.867,0.903201
219.8000,0.767484,266.667,0.900875
219.7000,2.11776,267.109,0.906027
219.6000,-0.24479,267.302,0.908271
219.5000,3.13769,268.255,0.919349
219.4000,2.82002,267.872,0.914901
219.3000,0.799217,269.141,0.929622
219.2000,0.931041,269.424,0.9329
219.1000,3.96669,268.255,0.919349
219.0000,3.90753,267.347,0.908798
218.9000,3.76908,267.882,0.915019
218.8000,4.31163,268.31,0.919994
218.7000,-0.199781,268.294,0.91981
218.6000,2.82709,269.34,0.93193
218.5000,4.04338,268.986,0.927824
218.4000,-0.201384,268.352,0.92048
218.3000,3.90113,268.75,0.925094
218.2000,3.79513,268.566,0.922965
218.1000,4.15951,269.131,0.929504
218.0000,4.8841,268.611,0.923478
217.9000,-0.192569,269.037,0.928415
217.8000,-0.105963,268.272,0.919547
217.7000,2.38592,270.626,0.94678
217.6000,3.38935,270.427,0.944481
217.5000,-0.252189,270.188,0.941723
217.4000,3.96646,268.478,0.92194
217.3000,-0.154313,269.423,0.932887
217.2000,0.8034,268.74,0.924975
217.1000,3.3494,269.653,0.935547
217.0000,3.34639,268.855,0.926315
216.9000,3.9474,271.172,0.953069
216.8000,2.59187,270.655,0.947107
216.7000,3.43959,271.319,0.95475
216.6000,0.565279,270.223,0.942129
216.5000,3.73356,270.927,0.950239
216.4000,-0.50441,269.63,0.935285
216.3000,-0.313566,269.83,0.937589
216.2000,2.72293,271.246,0.953916
216.1000,4.7544,270.26,0.94256
216.0000,5.66702,271.027,0.9514
215.9000,2.21594,270.71,0.947747
215.8000,3.21657,270.044,0.940062
215.7000,4.25414,270.645,0.946989
215.6000,6.2796,269.917,0.938597
215.5000,-4.03311,270.706,0.947694
215.4000,5.34373,270.978,0.950826
215.3000,0.203191,271.884,0.961247
215.2000,2.90845,270.672,0.947303
215.1000,3.25173,271.504,0.956887
215.0000,0.966895,271.124,0.952509
214.9000,1.75733,271.197,0.953356
214.8000,3.38524,270.969,0.950722
214.7000,2.0353,271.495,0.956783
214.6000,3.05399,271.412,0.955819
214.5000,0.405035,271.797,0.960245
214.4000,1.04047,270.749,0.94819
214.3000,5.79742,271.706,0.959204
214.2000,4.07623,272.4,0.967161
214.1000,3.44265,271.486,0.956679
214.0000,1.3696,271.015,0.951257
213.9000,5.39864,272.514,0.968473
213.8000,2.21158,272.173,0.964563
213.7000,4.63128,271.517,0.95703
213.6000,1.04329,272.801,0.971756
213.5000,6.19471,271.934,0.961819
213.4000,3.85083,271.841,0.960753
213.3000,-0.122852,272.238,0.965303
213.2000,4.47593,272.117,0.963926
213.1000,3.68823,272.158,0.964394
213.0000,-0.00799652,272.033,0.962951
212.9000,2.93873,271.555,0.957473
212.8000,-0.980193,272.795,0.971691
212.7000,2.48208,272.333,0.966395
212.6000,2.83409,272.614,0.969615
212.5000,4.57935,272.117,0.963926
212.4000,-1.52112,272.545,0.968823
212.3000,2.73919,272.327,0.96633
212.2000,1.28826,273.453,0.97922
212.1000,4.30058,273.164,0.975918
212.0000,1.17159,273.053,0.974647
211.9000,3.56651,272.94,0.973351
211.8000,4.40074,272.777,0.971483
211.7000,3.29283,274.699,0.993421
211.6000,-0.052138,273.629,0.981226
211.5000,5.15644,274.163,0.987316
211.4000,-0.588832,273.867,0.983943
211.3000,5.10829,273.802,0.983205
211.2000,-0.350028,274.131,0.986954
211.1000,1.50229,274.754,0.994053
211.0000,2.79579,274.143,0.987096
210.9000,2.97887,274.275,0.988594
210.8000,1.92226,274.395,0.989963
210.7000,1.47843,274.245,0.988259
210.6000,3.43413,273.843,0.983671
210.5000,1.68543,274.617,0.992492
210.4000,1.36735,274.423,0.990286
210.3000,2.07732,274.088,0.986463
210.2000,4.20723,275.121,0.998228
210.1000,-0.248531,273.672,0.981718
210.0000,4.7932,274,0.985455
209.9000,2.17043,274.001,0.985468
209.8000,0.474216,274.679,0.993202
209.7000,-0.380484,273.799,0.983167
209.6000,5.99092,275.182,0.998924
209.5000,5.50998,274.918,0.995922
209.4000,1.1585,275.253,0.999722
209.3000,1.73177,275.832,1.0063
209.2000,1.24253,275.492,1.00244
209.1000,-0.539344,277.086,1.0205
209.0000,0.0841329,275.578,1.00342
208.9000,3.2016,276.734,1.01651
208.8000,5.78346,275.777,1.00568
208.7000,2.60206,275.235,0.999516
208.6000,4.6966,275.73,1.00514
208.5000,1.21499,275.785,1.00577
208.4000,6.03413,275.158,0.998641
208.3000,7.15019,276.59,1.01488
208.2000,5.06326,276.228,1.01079
208.1000,4.28326,276.218,1.01068
208.0000,6.90252,276.536,1.01428
207.9000,1.75832,276.649,1.01555
207.8000,-0.545522,276.938,1.01882
207.7000,2.83084,277.872,1.02937
207.6000,-3.58431,276.728,1.01645
207.5000,1.24641,277.152,1.02124
207.4000,0.864233,277.193,1.0217
207.3000,3.69529,277.813,1.02871
207.2000,2.04848,276.335,1.012
207.1000,8.86689,276.618,1.01521
207.0000,0.105156,277.861,1.02925
206.9000,2.11129,278.126,1.03223
206.8000,5.84591,278.212,1.0332
206.7000,5.44673,278.824,1.04009
206.6000,3.48425,278.09,1.03183
206.5000,3.72946,277.97,1.03047
206.4000,5.47131,278.779,1.03958
206.3000,3.71449,278.14,1.03239
206.2000,1.28496,278.46,1.036
206.1000,5.34365,278.693,1.03861
206.0000,4.23944,278.558,1.03709
205.9000,3.0108,279.107,1.04327
205.8000,0.838232,279.204,1.04435
205.7000,1.17953,279.388,1.04643
205.6000,1.19945,278.481,1.03623
205.5000,-4.09388,279.623,1.04906
205.4000,2.08196,280.273,1.05635
205.3000,-0.630531,278.91,1.04106
205.2000,2.34385,279.836,1.05145
205.1000,-2.06563,279.976,1.05302
205.0000,3.03231,279.906,1.05224
204.9000,1.85326,279.997,1.05325
204.8000,9.53533,280.298,1.05663
204.7000,1.33443,280.781,1.06202
204.6000,6.72404,280.699,1.06111
204.5000,2.56534,280.678,1.06087
204.4000,1.40557,282.372,1.07976
204.3000,6.20944,281.318,1.06802
204.2000,3.49234,280.976,1.0642
204.1000,0.101243,280.395,1.0577
204.0000,5.6009,281.917,1.07471
203.9000,1.41336,281.72,1.07251
203.8000,4.90944,281.787,1.07325
203.7000,0.236333,282.03,1.07596
203.6000,3.15906,282.681,1.0832
203.5000,1.06257,282.246,1.07836
203.4000,3.86283,282.503,1.08123
203.3000,6.81317,283.736,1.09491
203.2000,3.02393,281.581,1.07096
203.1000,4.10535,282.886,1.08548
203.0000,2.15573,283.974,1.09755
202.9000,0.491044,282.746,1.08392
202.8000,2.93164,283.375,1.0909
202.7000,2.21558,283.56,1.09296
202.6000,-0.417327,283.985,1.09767
202.5000,3.55532,284.329,1.10147
202.4000,2.37153,283.651,1.09397
202.3000,-0.666328,284.87,1.10746
202.2000,1.18445,284.573,1.10418
202.1000,0.860727,284.214,1.1002
202.0000,5.39126,284.624,1.10474
201.9000,2.83298,284.7,1.10558
201.8000,3.52435,285.51,1.11452
201.7000,4.70284,285.809,1.11782
201.6000,2.25174,284.902,1.10781
201.5000,2.22875,285.014,1.10905
201.4000,4.7391,285.539,1.11483
201.3000,5.92147,286.407,1.12439
201.2000,5.85438,286.192,1.12203
201.1000,10.3919,286.097,1.12098
201.0000,2.52072,286.063,1.12061
200.9000,-3.36164,286.915,1.12998
200.8000,0.704361,284.799,1.10667
200.7000,1.79425,285.676,1.11634
200.6000,6.25389,288.11,1.14306
200.5000,0.54804,287.994,1.1418
200.4000,3.30909,288.095,1.1429
200.3000,8.14377,287.695,1.13852
200.2000,5.09106,288.883,1.15152
200.1000,6.60817,288.479,1.1471
200.0000,0.738223,288.199,1.14404
199.9000,9.92068,288.474,1.14705
199.8000,2.33279,288.201,1.14407
199.7000,8.25944,288.238,1.14446
199.6000,1.32867,289.762,1.16109
199.5000,1.5633,288.284,1.14497
199.4000,3.1535,288.46,1.14689
199.3000,1.00484,290.024,1.16396
199.2000,-2.40744,289.909,1.1627
199.1000,4.41655,289.449,1.15769
199.0000,6.09059,290.185,1.16571
198.9000,-0.314967,289.719,1.16063
198.8000,2.44028,289.764,1.16112
198.7000,0.193529,290.377,1.16779
198.6000,-3.65117,291.194,1.17666
198.5000,1.00558,290.29,1.16684
198.4000,1.8518,291.203,1.17675
198.3000,-1.97562,291.314,1.17796
198.2000,2.79744,291.151,1.17619
198.1000,-1.47087,290.437,1.16844
198.0000,1.46204,291.732,1.18249
197.9000,-0.595681,291.131,1.17598
197.8000,-2.14747,291.803,1.18326
197.7000,8.06265,291.256,1.17733
197.6000,-0.0624357,292.175,1.18728
197.5000,1.62168,292.519,1.191
197.4000,-0.577559,292.362,1.1893
197.3000,2.54714,291.42,1.17911
197.2000,3.56479,292.495,1.19074
197.1000,5.20423,292.466,1.19043
197.0000,7.5167,293.016,1.19636
196.9000,3.67388,292.734,1.19332
196.8000,7.8814,293.04,1.19662
196.7000,4.19132,293.992,1.20688
196.6000,6.06829,294.219,1.20932
196.5000,1.41864,294.255,1.20971
196.4000,1.76465,295.173,1.21956
196.3000,5.53122,295.146,1.21927
196.2000,2.57664,295.039,1.21813
196.1000,5.10881,295.674,1.22493
196.0000,2.03183,295.718,1.2254
195.9000,0.585328,295.479,1.22284
195.8000,1.82714,297.257,1.24184
195.7000,0.344461,296.728,1.23619
195.6000,0.441014,295.418,1.22219
195.5000,8.2031,296.346,1.23212
195.4000,-0.474841,297.804,1.24767
195.3000,6.07137,298.264,1.25256
195.2000,1.0601,296.84,1.23739
195.1000,3.28965,297.486,1.24428
195.0000,3.37937,297.687,1.24643
194.9000,3.15704,298.398,1.25398
194.8000,1.76921,297.437,1.24376
194.7000,2.8911,298.46,1.25464
194.6000,2.44142,298.366,1.25364
194.5000,5.34648,298.905,1.25937
194.4000,7.00126,299.325,1.26382
194.3000,8.80943,299.838,1.26925
194.2000,-0.586537,299.796,1.26881
194.1000,-0.375353,300.561,1.2769
194.0000,1.65014,301.467,1.28646
193.9000,1.53567,301.449,1.28627
193.8000,2.83335,302.251,1.29471
193.7000,5.55423,303.285,1.30556
193.6000,-0.547285,303.435,1.30714
193.5000,1.74612,303.426,1.30704
193.4000,2.12216,303.074,1.30335
193.3000,3.44303,303.775,1.3107
193.2000,2.53533,304.607,1.31939
193.1000,2.02576,305.203,1.32561
193.0000,1.37911,304.904,1.32249
192.9000,1.63882,305.435,1.32803
192.8000,-1.52221,306.189,1.33588
192.7000,7.29641,307.681,1.35136
192.6000,-1.00758,307.241,1.34681
192.5000,4.36993,307.747,1.35204
192.4000,9.13031,308.836,1.3633
192.3000,2.27106,309.631,1.37151
192.2000,5.7543,310.321,1.37861
192.1000,-1.09517,309.794,1.37319
192.0000,4.35632,311.156,1.38719
191.9000,9.56641,310.737,1.38288
191.8000,-0.203647,312.46,1.40055
191.7000,6.39208,312.116,1.39702
191.6000,5.95793,312.016,1.396
191.5000,5.10177,313.326,1.40939
191.4000,-0.63504,314.636,1.42273
191.3000,5.42429,315.277,1.42924
191.2000,-0.429415,315.415,1.43064
191.1000,-2.33695,316.263,1.43923
191.0000,5.3137,317.159,1.44829
190.9000,-1.86125,318.327,1.46007
190.8000,0.119709,318.502,1.46183
190.7000,6.07312,319.559,1.47245
190.6000,6.37019,320.801,1.48489
190.5000,5.96863,321.345,1.49033
190.4000,1.55817,322.379,1.50065
190.3000,-1.50227,322.855,1.50539
190.2000,-2.04486,324.593,1.52264
190.1000,-0.503519,323.551,1.5123
190.0000,4.62899,325.042,1.52708

##### Extended Information
[Comments]
Sample name,class
Comment
User
Division
Company,Saint Mary's College

[Detailed Information]
Creation date,9/28/2021 1:49 PM

Data array type,Linear data array * 3
Horizontal axis,Wavelength [nm]
Vertical axis(1),CD [mdeg]
Vertical axis(2),HT [V]
Vertical axis(3),Abs
Start,320 nm
End,190 nm
Data interval,0.1 nm
Data points,1301    

[Measurement Information]
Instrument name,J-1500
Model name,J-1500
Serial No.,B051061638

Detector,PM-539
Detector S/N,B051061638
  Lock-in amp.,X mode
  HT volt,Auto

Accessory,PTC-517
Accessory S/N,B026561646
  Temperature,22.99 C
  Control sensor,Holder
  Monitor sensor,Holder

Measurement date,9/28/2021 1:45 PM

CD Overload detect,1157
Photometric mode,CD, HT, Abs
Measure range,320 - 190 nm
Data pitch,0.1 nm
CD scale,20 mdeg/0.05 dOD
FL scale,20 mdeg/0.05 dOD
D.I.T.,8 msec
Bandwidth,1.00 nm
Start mode,Immediately
Scanning mode,Continuous
Scanning speed,50 nm/min
Baseline correction,None
Shutter control,Auto
No. of cycle,1/1
N2 Flowmeter,Manual


