TITLE,class,,
DATA TYPE,,,
ORIGIN,JASCO,,
OWNER,,,
DATE,21/09/29,,
TIME,17:29:59,,
SPECTROMETER/DATA SYSTEM,,,
LOCALE,1033,,
RESOLUTION,,,
DELTAX,-0.1,,
XUNITS,NANOMETERS,,
YUNITS,CD [mdeg],,
Y2UNITS,HT [V],,
Y3UNITS,ABSORBANCE,,
FIRSTX,290,,
LASTX,190,,
NPOINTS,1001,,
FIRSTY,1.75653,,
MAXY,5.17258,,
MINY,-0.89957,,
XYDATA,,,
290,1.75653,253.079,0.738881
289.9,1.61489,253.064,0.738704
289.8,1.92805,253.281,0.74135
289.7,2.12788,253.184,0.740165
289.6,1.77702,253.162,0.739894
289.5,0.926497,252.988,0.737784
289.4,2.18437,253.347,0.742154
289.3,1.54386,253.034,0.738343
289.2,1.77171,252.888,0.736562
289.1,1.48775,253.411,0.742924
289,1.69712,252.764,0.735047
288.9,1.55662,253.204,0.740408
288.8,0.697505,253.206,0.740434
288.7,1.57832,253.334,0.741997
288.6,2.13482,253.072,0.738804
288.5,1.53219,253.079,0.738883
288.4,1.60932,253.227,0.740688
288.3,1.85469,253.173,0.740027
288.2,1.93073,252.863,0.736249
288.1,2.17588,252.982,0.73771
288,2.28987,253.272,0.741238
287.9,2.01832,253.343,0.7421
287.8,1.59331,252.823,0.735767
287.7,2.26988,252.809,0.735595
287.6,2.5081,252.817,0.735693
287.5,1.30296,252.828,0.735824
287.4,1.56552,252.797,0.735453
287.3,1.27642,252.856,0.73617
287.2,2.85316,252.935,0.737137
287.1,2.1815,252.961,0.737447
287,1.1182,252.831,0.735867
286.9,1.83196,252.958,0.737416
286.8,1.58661,253.002,0.737944
286.7,2.09149,252.981,0.737692
286.6,1.23287,252.68,0.734019
286.5,2.0543,252.781,0.735259
286.4,1.81265,252.989,0.737793
286.3,1.73396,253.167,0.739953
286.2,1.14175,252.932,0.73709
286.1,1.97077,252.94,0.737199
286,1.56028,252.993,0.737844
285.9,1.82912,252.682,0.734045
285.8,0.797852,252.776,0.735192
285.7,2.04544,252.758,0.734969
285.6,1.19723,252.639,0.733523
285.5,2.62071,252.499,0.731812
285.4,1.82951,252.843,0.736007
285.3,1.82753,252.818,0.7357
285.2,1.61892,252.59,0.732923
285.1,1.21863,252.837,0.735933
285,0.631577,252.841,0.735987
284.9,1.29245,252.826,0.735805
284.8,1.68859,252.748,0.734848
284.7,1.28378,252.677,0.73399
284.6,0.767939,252.749,0.734864
284.5,1.33714,252.873,0.73638
284.4,2.59745,252.781,0.735254
284.3,-0.108599,252.614,0.733212
284.2,2.08829,252.859,0.736209
284.1,1.73767,252.235,0.728588
284,1.43291,252.442,0.73112
283.9,1.45319,252.753,0.734912
283.8,1.4125,252.781,0.735253
283.7,1.33418,252.779,0.735228
283.6,2.82981,252.873,0.736382
283.5,0.974122,252.828,0.735829
283.4,0.890521,252.422,0.730878
283.3,3.16141,252.52,0.732076
283.2,1.19248,252.586,0.732879
283.1,1.87646,252.309,0.729493
283,1.10308,252.239,0.72864
282.9,1.36029,252.531,0.73221
282.8,1.1858,252.834,0.735902
282.7,1.51845,252.573,0.732718
282.6,1.8494,252.494,0.731753
282.5,1.27595,252.571,0.732693
282.4,2.09338,252.528,0.732163
282.3,1.72435,252.545,0.732372
282.2,0.689944,252.272,0.729043
282.1,1.9258,252.194,0.728089
282,1.35265,252.156,0.727622
281.9,2.5039,252.242,0.728678
281.8,0.457688,252.325,0.729693
281.7,1.92645,252.421,0.730863
281.6,1.95727,252.299,0.729367
281.5,0.856907,252.337,0.729839
281.4,2.31956,252.547,0.732405
281.3,0.993108,252.231,0.728541
281.2,2.12403,252.426,0.730918
281.1,1.82426,252.142,0.727454
281,2.13293,252.235,0.728591
280.9,1.89044,252.637,0.733499
280.8,1.16962,252.041,0.72622
280.7,1.50402,252.4,0.73061
280.6,1.49345,252.082,0.726722
280.5,1.5256,252.077,0.726665
280.4,1.11981,252.323,0.729669
280.3,1.74444,252.168,0.727771
280.2,1.73371,252.075,0.726634
280.1,1.10616,252.092,0.72684
280,2.09859,252.013,0.725881
279.9,1.93631,252.415,0.73079
279.8,1.89669,252.43,0.73097
279.7,1.03826,252.462,0.731359
279.6,1.45307,252.018,0.725941
279.5,1.40905,252.326,0.729697
279.4,1.45511,252.192,0.728063
279.3,1.17881,252.149,0.727541
279.2,1.01231,252.362,0.730147
279.1,1.19966,252.087,0.726779
279,1.8648,251.864,0.724057
278.9,1.45346,252.669,0.733888
278.8,1.41654,252.09,0.726821
278.7,1.70038,251.821,0.723533
278.6,1.64785,251.855,0.723944
278.5,1.86191,251.807,0.723355
278.4,1.17472,252.033,0.726118
278.3,0.782456,252.006,0.725794
278.2,1.27968,252.283,0.729173
278.1,1.17006,252.489,0.731693
278,0.997389,252.075,0.726635
277.9,1.03293,251.982,0.725503
277.8,0.989619,252.035,0.726144
277.7,1.05111,251.784,0.723073
277.6,0.891712,252.043,0.726243
277.5,-0.0125747,252.193,0.728083
277.4,1.04884,252.014,0.725886
277.3,2.08306,252.226,0.728476
277.2,2.05028,251.842,0.723786
277.1,1.46836,251.945,0.725044
277,1.36789,252.119,0.727167
276.9,0.236399,251.968,0.725323
276.8,1.3113,252.086,0.726772
276.7,2.32954,251.953,0.725137
276.6,1.40435,252.079,0.726684
276.5,1.5315,251.981,0.725489
276.4,1.69015,251.596,0.720776
276.3,1.50842,251.946,0.72506
276.2,0.516287,252.023,0.725993
276.1,0.991565,251.586,0.720649
276,0.889788,251.969,0.725344
275.9,0.219959,251.888,0.724353
275.8,1.5043,251.791,0.723157
275.7,-0.079879,251.897,0.724459
275.6,1.22117,251.863,0.724043
275.5,1.74357,251.952,0.725129
275.4,1.22068,251.901,0.724502
275.3,1.51688,251.731,0.722423
275.2,1.214,251.827,0.723601
275.1,1.89926,251.847,0.723844
275,0.507891,251.596,0.720769
274.9,1.0671,252.008,0.72581
274.8,1.94799,251.455,0.719043
274.7,0.934766,251.847,0.723847
274.6,0.653924,251.73,0.722421
274.5,2.13119,251.648,0.721407
274.4,1.48168,251.848,0.723864
274.3,1.21514,251.484,0.7194
274.2,1.25871,251.579,0.720571
274.1,0.750799,251.453,0.719022
274,1.87107,251.587,0.720661
273.9,1.21813,251.688,0.721906
273.8,2.15185,251.812,0.723424
273.7,1.14807,251.494,0.719525
273.6,1.1827,251.761,0.72279
273.5,0.80599,251.645,0.721372
273.4,1.35765,251.577,0.720542
273.3,1.43825,251.85,0.72388
273.2,2.15397,251.712,0.722192
273.1,1.26117,251.41,0.718498
273,1.36404,251.617,0.721034
272.9,1.50524,251.705,0.722112
272.8,2.19825,251.574,0.720505
272.7,0.851969,251.712,0.722194
272.6,1.57564,251.869,0.724121
272.5,1.39667,251.494,0.719522
272.4,0.789311,251.545,0.720151
272.3,1.01093,251.618,0.721041
272.2,0.933741,251.747,0.722618
272.1,1.07858,251.433,0.718783
272,0.720625,251.661,0.721566
271.9,1.57269,251.498,0.719572
271.8,1.45071,251.491,0.719485
271.7,1.01755,251.494,0.71952
271.6,1.73506,251.551,0.720221
271.5,1.0956,251.771,0.722913
271.4,1.03491,251.429,0.718731
271.3,1.07788,251.347,0.717723
271.2,1.11839,251.652,0.721464
271.1,1.22595,251.854,0.723928
271,1.41678,251.471,0.719248
270.9,1.61097,251.55,0.720212
270.8,2.06136,251.502,0.719626
270.7,0.778042,251.733,0.722452
270.6,1.63947,251.398,0.718345
270.5,0.381442,251.733,0.722455
270.4,1.33184,251.484,0.719409
270.3,0.873552,251.855,0.723941
270.2,0.672333,251.593,0.720737
270.1,0.491885,251.485,0.719411
270,1.7339,251.642,0.721342
269.9,1.08361,251.798,0.723244
269.8,0.841929,251.413,0.718528
269.7,2.5161,251.817,0.72348
269.6,0.451603,251.52,0.719846
269.5,0.912635,252.032,0.726111
269.4,0.493957,252.044,0.726253
269.3,0.391549,251.679,0.721793
269.2,1.97106,251.318,0.717374
269.1,0.714314,252.065,0.726518
269,0.485228,251.752,0.722679
268.9,1.46775,251.71,0.722168
268.8,1.01328,251.657,0.721521
268.7,0.958134,251.664,0.72161
268.6,1.78272,251.625,0.721131
268.5,1.08016,251.787,0.723114
268.4,0.625994,251.495,0.719534
268.3,0.698897,251.836,0.723715
268.2,0.729699,251.74,0.722537
268.1,0.799641,251.565,0.720399
268,0.392888,251.813,0.723428
267.9,1.30856,251.92,0.724744
267.8,0.918321,251.912,0.724639
267.7,2.10563,251.942,0.725008
267.6,0.897037,252.139,0.727421
267.5,1.53045,251.845,0.723828
267.4,1.50936,251.925,0.724795
267.3,0.731081,251.854,0.723935
267.2,1.47785,251.924,0.724782
267.1,1.89798,251.769,0.722889
267,1.09396,251.756,0.722736
266.9,1.05745,251.657,0.721516
266.8,1.28257,251.584,0.720623
266.7,0.489534,251.562,0.720356
266.6,1.52385,251.628,0.721169
266.5,0.562992,252.103,0.726982
266.4,1.02433,252.356,0.73007
266.3,1.28062,252.456,0.731286
266.2,0.470321,252.297,0.729353
266.1,0.86676,251.932,0.724886
266,0.560133,252.254,0.728816
265.9,1.71989,252.009,0.725829
265.8,-0.368281,251.964,0.725276
265.7,1.67856,252.034,0.726139
265.6,1.27133,251.842,0.72379
265.5,1.7103,252.075,0.726629
265.4,1.32316,252.083,0.726738
265.3,1.54251,252.239,0.728643
265.2,1.49452,252.055,0.726384
265.1,0.870231,252.137,0.727392
265,0.486789,251.656,0.721506
264.9,1.12111,251.952,0.725136
264.8,0.608097,252.348,0.729972
264.7,0.00955129,252.128,0.727288
264.6,1.49945,252.363,0.730154
264.5,1.67619,251.998,0.725699
264.4,0.41808,252.32,0.729624
264.3,1.0099,252.188,0.728015
264.2,1.62355,252.196,0.728117
264.1,0.315557,252.211,0.728301
264,0.145816,252.354,0.730041
263.9,2.35306,252.267,0.728977
263.8,0.19221,252.352,0.730013
263.7,0.910082,252.257,0.728861
263.6,0.257538,252.497,0.731793
263.5,0.352593,252.456,0.731295
263.4,1.24013,252.256,0.728851
263.3,0.956134,252.464,0.731385
263.2,1.65735,252.48,0.731586
263.1,0.316777,252.522,0.732101
263,0.51504,252.492,0.731729
262.9,0.413961,252.421,0.730861
262.8,0.497031,252.129,0.727295
262.7,1.22342,252.486,0.731651
262.6,1.44624,252.595,0.732981
262.5,0.954136,252.72,0.734517
262.4,0.999988,252.677,0.733985
262.3,0.604885,252.59,0.73292
262.2,1.64271,252.681,0.734033
262.1,1.05769,252.676,0.733969
262,-0.114737,252.773,0.735152
261.9,1.43412,252.779,0.735228
261.8,-0.137625,252.738,0.734727
261.7,1.48842,252.957,0.737396
261.6,1.68067,252.715,0.734455
261.5,0.867962,252.603,0.733082
261.4,0.405004,252.605,0.73311
261.3,1.58406,252.699,0.734256
261.2,1.59853,252.748,0.734854
261.1,0.708312,252.614,0.733214
261,0.310592,252.683,0.734062
260.9,0.625125,252.627,0.733373
260.8,0.99714,252.766,0.735069
260.7,1.40534,252.671,0.733919
260.6,1.40732,252.802,0.735508
260.5,1.48617,252.85,0.736092
260.4,0.879732,252.905,0.736762
260.3,1.78139,253.033,0.738333
260.2,2.04459,253.006,0.737995
260.1,1.49385,253.44,0.743279
260,0.567158,253.092,0.739049
259.9,1.80476,253.21,0.740488
259.8,0.849428,253.231,0.740736
259.7,1.14666,253.121,0.739397
259.6,0.755388,253.039,0.738405
259.5,1.66107,253.439,0.743265
259.4,-0.00344346,253.057,0.738614
259.3,0.285417,253.194,0.740284
259.2,0.34751,252.904,0.73675
259.1,1.12358,253.222,0.740626
259,1.47323,253.344,0.742117
258.9,2.04036,253.099,0.739125
258.8,-0.0810099,253.233,0.740762
258.7,0.494406,253.407,0.74288
258.6,1.47417,253.228,0.740702
258.5,0.109875,253.361,0.742316
258.4,0.954965,253.715,0.74663
258.3,0.913598,253.709,0.746551
258.2,0.981701,253.29,0.741462
258.1,1.48904,253.78,0.747415
258,1.45576,253.387,0.742633
257.9,1.29884,253.219,0.740589
257.8,1.33211,253.793,0.747572
257.7,0.738572,253.79,0.747536
257.6,1.29558,253.505,0.744075
257.5,0.612616,253.499,0.744005
257.4,-0.397804,253.607,0.745319
257.3,1.6914,253.84,0.748143
257.2,1.03713,253.603,0.745263
257.1,0.562241,253.692,0.746353
257,2.20302,253.713,0.746606
256.9,0.756325,253.804,0.74771
256.8,1.37941,253.77,0.747291
256.7,0.972985,253.487,0.743857
256.6,2.06528,253.766,0.747247
256.5,1.24409,253.767,0.747266
256.4,0.886569,253.83,0.748023
256.3,0.951983,254.02,0.750329
256.2,1.25877,253.701,0.746463
256.1,0.939956,253.842,0.748176
256,1.24989,254.021,0.750345
255.9,0.454627,254.056,0.750773
255.8,0.431833,253.967,0.749691
255.7,1.55758,254.027,0.750415
255.6,1.58859,254.048,0.750676
255.5,0.90973,253.926,0.749195
255.4,0.676092,253.893,0.748791
255.3,0.960743,254.025,0.750391
255.2,0.272919,254.09,0.751184
255.1,1.0592,254.005,0.750153
255,2.0821,254.226,0.752831
254.9,1.23415,254.355,0.7544
254.8,1.13631,254.4,0.754943
254.7,1.33147,253.874,0.748558
254.6,1.01477,254.184,0.752324
254.5,-0.245693,254.476,0.755871
254.4,1.70234,254.474,0.755849
254.3,1.1093,254.2,0.752522
254.2,0.78393,254.56,0.756885
254.1,0.103312,254.378,0.754677
254,0.960886,254.523,0.756445
253.9,1.24216,254.339,0.754211
253.8,1.17385,254.274,0.753421
253.7,1.47689,254.544,0.756699
253.6,1.60448,255.04,0.7627
253.5,0.721271,254.676,0.758294
253.4,1.26894,253.971,0.749739
253.3,1.18962,254.335,0.75416
253.2,1.3587,254.475,0.755852
253.1,0.660294,254.77,0.75943
253,0.757823,254.278,0.753464
252.9,0.562033,254.545,0.756702
252.8,0.102929,254.374,0.754626
252.7,1.04263,254.782,0.75958
252.6,1.36648,254.876,0.760721
252.5,0.756064,254.501,0.756168
252.4,1.30918,255.089,0.763302
252.3,0.674954,254.991,0.76211
252.2,0.81945,254.793,0.759712
252.1,1.44848,254.879,0.760757
252,0.152824,254.801,0.759806
251.9,1.35414,254.908,0.761107
251.8,1.29195,255.002,0.76224
251.7,1.96804,254.935,0.761434
251.6,1.7352,254.851,0.760412
251.5,-0.207737,254.73,0.75895
251.4,0.0774066,254.973,0.761894
251.3,1.63035,254.795,0.759739
251.2,0.337812,254.924,0.761294
251.1,1.57401,254.649,0.757969
251,1.81706,255.063,0.762986
250.9,0.330146,255.152,0.764056
250.8,1.88635,254.616,0.757571
250.7,1.25687,255.093,0.763339
250.6,1.66492,255.343,0.766371
250.5,1.82165,254.78,0.759551
250.4,2.02081,255.028,0.762556
250.3,1.0897,254.773,0.759466
250.2,2.03724,255.072,0.763094
250.1,0.921448,254.928,0.761341
250,0.76999,254.953,0.761654
249.9,0.73227,255.106,0.763504
249.8,1.10131,254.813,0.759954
249.7,0.721395,254.91,0.761131
249.6,1.08676,254.991,0.762107
249.5,0.746625,254.941,0.761504
249.4,0.36038,255.153,0.764076
249.3,1.1623,254.878,0.760743
249.2,-0.111434,255.115,0.763608
249.1,0.867192,255.169,0.76426
249,1.63595,255.04,0.762703
248.9,1.43183,254.999,0.762203
248.8,0.446327,255.293,0.765766
248.7,0.44292,255.275,0.765543
248.6,0.330134,255.113,0.763581
248.5,1.10709,254.717,0.758788
248.4,0.837257,254.85,0.760403
248.3,0.0669509,255.005,0.76228
248.2,1.99073,254.88,0.760762
248.1,0.657128,255.011,0.762353
248,0.69192,254.826,0.760106
247.9,1.49998,254.776,0.759509
247.8,2.01529,254.852,0.760426
247.7,1.44797,254.907,0.761088
247.6,0.770694,254.5,0.756156
247.5,0.965196,254.931,0.761378
247.4,1.34457,255.197,0.764606
247.3,1.44296,255.027,0.762549
247.2,0.426203,255.178,0.764376
247.1,0.748387,255.468,0.767878
247,1.07295,255.257,0.765333
246.9,0.718908,255.193,0.764553
246.8,0.411384,255.415,0.767246
246.7,0.740266,255.36,0.766578
246.6,1.36106,255.382,0.766843
246.5,1.26801,255.151,0.764045
246.4,1.06351,255.206,0.764714
246.3,0.417163,255.327,0.76617
246.2,0.547817,255.225,0.764944
246.1,0.549746,255.64,0.769959
246,1.43455,255.427,0.767381
245.9,0.264876,255.165,0.76421
245.8,0.996959,255.363,0.766609
245.7,-0.106749,255.516,0.768463
245.6,0.542551,255.12,0.763673
245.5,1.15443,255.417,0.767266
245.4,0.487384,255.42,0.767303
245.3,2.05311,255.355,0.766518
245.2,0.34334,255.342,0.766352
245.1,1.62607,255.534,0.768684
245,1.54167,255.49,0.768143
244.9,0.172767,255.676,0.770389
244.8,1.77219,255.132,0.763819
244.7,0.320084,255.417,0.767268
244.6,2.29771,255.495,0.768205
244.5,2.08888,255.569,0.769103
244.4,1.99892,255.474,0.767951
244.3,1.39246,255.666,0.770276
244.2,2.09251,255.5,0.768265
244.1,0.93039,255.817,0.772093
244,1.19467,255.457,0.767742
243.9,0.393511,255.692,0.770587
243.8,1.1759,255.913,0.773255
243.7,0.741441,255.484,0.768076
243.6,1.61652,255.732,0.77107
243.5,1.13457,255.793,0.771812
243.4,1.89554,255.51,0.768388
243.3,0.00787879,255.778,0.771626
243.2,0.805924,255.602,0.769499
243.1,1.57167,255.849,0.772482
243,0.618314,255.68,0.77044
242.9,1.73055,255.339,0.766324
242.8,3.0654,255.842,0.772394
242.7,0.756471,255.819,0.772125
242.6,1.18945,255.641,0.769971
242.5,1.51637,255.8,0.771887
242.4,1.02864,255.915,0.773279
242.3,0.985396,256.011,0.774442
242.2,1.89264,256.01,0.774428
242.1,-0.0343713,255.858,0.772594
242,1.64222,256.09,0.775395
241.9,1.21515,255.914,0.773269
241.8,1.14498,256.103,0.775544
241.7,0.837745,256.009,0.77442
241.6,1.29864,256.184,0.776525
241.5,1.4193,256.429,0.779484
241.4,1.20329,256.018,0.774522
241.3,1.23999,256.099,0.775503
241.2,2.7159,256.435,0.779552
241.1,0.379295,256.159,0.776224
241,1.23504,256.023,0.774584
240.9,1.3345,256.405,0.779189
240.8,1.30694,256.517,0.780545
240.7,1.43985,256.327,0.778248
240.6,1.48075,256.426,0.779445
240.5,0.927958,256.319,0.778149
240.4,-0.0470723,256.512,0.780481
240.3,-0.261656,256.338,0.778381
240.2,1.15106,256.393,0.779043
240.1,1.03677,256.486,0.78017
240,1.301,256.476,0.780046
239.9,1.05217,256.829,0.784296
239.8,0.613713,256.73,0.783101
239.7,1.01029,256.703,0.782777
239.6,0.249085,256.615,0.781721
239.5,0.405678,256.549,0.780931
239.4,1.28174,256.707,0.782826
239.3,1.29343,257.047,0.786922
239.2,0.984604,257.076,0.78727
239.1,1.91992,257.066,0.787143
239,-0.0781361,257.009,0.786469
238.9,1.3446,257.075,0.787258
238.8,2.13633,257.31,0.790078
238.7,0.313038,257.005,0.786411
238.6,0.817387,257.268,0.789575
238.5,1.69377,257.377,0.790889
238.4,0.71133,257.259,0.789465
238.3,1.2379,257.355,0.79062
238.2,1.0416,257.568,0.793187
238.1,1.53952,257.825,0.796263
238,0.707367,257.688,0.794626
237.9,1.26134,257.389,0.791027
237.8,1.28029,257.719,0.794995
237.7,0.782817,257.908,0.797256
237.6,0.977091,257.785,0.795789
237.5,0.914405,257.943,0.797686
237.4,2.03386,257.993,0.798277
237.3,0.503304,257.884,0.796975
237.2,1.28627,257.999,0.79835
237.1,1.2925,257.813,0.796122
237,2.05344,257.996,0.798313
236.9,0.0999338,258.016,0.798559
236.8,2.58247,258.297,0.801925
236.7,1.73146,258.257,0.801447
236.6,0.490635,258.187,0.80061
236.5,0.638635,258.296,0.801915
236.4,1.22554,258.487,0.804202
236.3,1.27474,258.51,0.804471
236.2,0.951051,258.452,0.803776
236.1,1.84481,258.558,0.805049
236,1.10925,258.468,0.803978
235.9,0.173308,258.423,0.80343
235.8,0.76282,258.643,0.806063
235.7,1.43456,258.779,0.8077
235.6,0.598104,258.613,0.805709
235.5,0.632929,259.027,0.810655
235.4,2.02167,258.85,0.808538
235.3,0.444275,258.756,0.807415
235.2,0.734869,258.995,0.810275
235.1,1.72456,258.877,0.80887
235,1.77823,259.16,0.812252
234.9,0.836749,259.247,0.813286
234.8,1.74316,259.412,0.815256
234.7,1.19036,259.303,0.813958
234.6,0.588133,259.401,0.815129
234.5,1.75524,259.443,0.815626
234.4,0.917,259.621,0.817754
234.3,1.09614,259.695,0.818632
234.2,1.48902,259.34,0.814397
234.1,1.51464,259.397,0.815084
234,1.47385,259.769,0.819522
233.9,0.970434,259.904,0.821128
233.8,1.78247,259.624,0.817793
233.7,2.06591,259.983,0.822073
233.6,2.01602,260.074,0.823151
233.5,0.785458,259.895,0.821015
233.4,2.447,260.105,0.823523
233.3,1.63044,260.235,0.825074
233.2,1.12955,260.115,0.823644
233.1,1.23994,260.272,0.825512
233,0.59584,260.379,0.826785
232.9,1.97085,260.564,0.828986
232.8,2.21204,260.415,0.827211
232.7,1.60314,260.033,0.822667
232.6,1.13036,260.668,0.830225
232.5,1.78237,260.449,0.827614
232.4,2.66424,260.755,0.831257
232.3,0.68695,260.857,0.832471
232.2,1.20094,260.419,0.827255
232.1,1.77516,261.114,0.835515
232,1.48754,260.917,0.833182
231.9,1.61869,261.262,0.837276
231.8,0.949195,261.143,0.835862
231.7,1.47167,261.248,0.837111
231.6,1.01768,261.491,0.839989
231.5,0.737491,261.545,0.840629
231.4,0.910032,261.447,0.839472
231.3,1.24326,261.59,0.841164
231.2,2.73809,261.484,0.839915
231.1,0.262041,261.692,0.842378
231,3.63105,261.668,0.842086
230.9,1.74742,261.717,0.842667
230.8,1.79482,261.566,0.840877
230.7,0.684025,261.912,0.844982
230.6,1.77336,261.533,0.840489
230.5,1.44636,261.721,0.842715
230.4,2.6737,261.812,0.843799
230.3,1.87337,261.674,0.84216
230.2,0.884015,261.528,0.840434
230.1,1.6843,261.705,0.842524
230,1.82932,261.673,0.842153
229.9,2.10452,261.347,0.838284
229.8,1.64237,261.638,0.841732
229.7,1.35906,261.738,0.842917
229.6,2.10433,261.768,0.843274
229.5,2.0589,261.4,0.838919
229.4,1.17081,261.692,0.842371
229.3,0.146321,261.928,0.845175
229.2,2.824,262.164,0.84797
229.1,2.07786,262.194,0.848323
229,0.292257,262.211,0.848516
228.9,1.50189,262.393,0.850667
228.8,2.17174,262.775,0.855182
228.7,-0.437239,262.326,0.849885
228.6,1.27998,262.715,0.854473
228.5,0.868846,262.756,0.854958
228.4,1.53588,263.036,0.858272
228.3,1.89864,263.364,0.862131
228.2,1.74226,263.229,0.860541
228.1,0.436466,263.441,0.863041
228,1.49301,263.45,0.863149
227.9,0.430087,263.417,0.862759
227.8,1.37707,263.82,0.867513
227.7,1.92501,263.368,0.862183
227.6,2.53903,263.667,0.865709
227.5,-0.0250446,263.96,0.86915
227.4,1.06019,264.099,0.870789
227.3,1.88777,264.02,0.869866
227.2,1.5781,263.813,0.867421
227.1,1.20538,264.256,0.872638
227,1.83154,264.428,0.874663
226.9,1.73281,264.363,0.873896
226.8,1.8034,264.359,0.873853
226.7,0.970437,264.576,0.876398
226.6,2.63821,264.721,0.878099
226.5,1.55724,264.361,0.873873
226.4,1.8593,264.647,0.877225
226.3,0.744386,264.517,0.875706
226.2,0.124999,264.702,0.877877
226.1,1.16194,264.911,0.880331
226,0.859407,265.215,0.88389
225.9,1.35713,264.808,0.879117
225.8,2.40025,264.754,0.878485
225.7,0.864895,265.435,0.886469
225.6,1.78813,265.528,0.887555
225.5,1.97527,265.403,0.886091
225.4,0.360114,265.229,0.884054
225.3,2.58952,265.484,0.887043
225.2,1.78582,265.695,0.889515
225.1,2.13391,265.699,0.889561
225,3.01201,265.688,0.88943
224.9,1.85612,265.728,0.889897
224.8,1.19175,265.778,0.890487
224.7,2.68963,265.871,0.891568
224.6,3.14021,266.033,0.893462
224.5,2.59706,266.054,0.89371
224.4,2.31983,266.332,0.896965
224.3,2.16934,266.15,0.894838
224.2,2.19228,266.136,0.894666
224.1,1.61484,266.101,0.894257
224,2.2024,266.53,0.899269
223.9,0.516169,266.375,0.897463
223.8,0.711078,266.245,0.89595
223.7,1.92416,266.56,0.899624
223.6,2.42261,266.417,0.897953
223.5,2.45974,266.83,0.90277
223.4,1.82927,266.659,0.900783
223.3,2.36005,267.104,0.905963
223.2,1.37322,267.048,0.905313
223.1,3.05665,266.906,0.903657
223,0.386541,267.034,0.905149
222.9,1.92194,267.105,0.905978
222.8,1.95804,267.389,0.909288
222.7,1.97149,267.178,0.906827
222.6,1.05017,267.263,0.907817
222.5,0.749566,267.674,0.912599
222.4,2.54791,267.749,0.913475
222.3,0.605101,267.483,0.910381
222.2,1.87074,267.693,0.912823
222.1,2.59555,267.664,0.912487
222,1.10154,268.056,0.917035
221.9,0.795468,267.742,0.913389
221.8,1.8833,267.894,0.915159
221.7,1.90976,268.088,0.917411
221.6,1.7979,268.075,0.917261
221.5,1.45248,268.001,0.916402
221.4,2.36188,267.95,0.915813
221.3,1.74379,268.335,0.920275
221.2,1.39103,268.625,0.923643
221.1,3.56404,268.182,0.918501
221,2.33438,268.415,0.921204
220.9,2.774,268.434,0.921427
220.8,1.80967,268.522,0.922446
220.7,2.65402,268.404,0.921077
220.6,1.97207,268.582,0.923141
220.5,2.09562,268.591,0.923249
220.4,1.41811,268.839,0.926129
220.3,2.18607,269.191,0.930199
220.2,2.06485,268.895,0.926773
220.1,2.1505,269.076,0.928874
220,1.85773,269.005,0.928046
219.9,1.64882,269.058,0.928667
219.8,2.31839,268.647,0.923898
219.7,0.87502,269.09,0.929032
219.6,2.16704,269.265,0.931061
219.5,2.51386,269.417,0.932811
219.4,1.32881,269.208,0.930402
219.3,2.38141,269.503,0.933814
219.2,2.45971,269.711,0.936221
219.1,1.29166,269.526,0.934074
219,2.76732,269.315,0.931633
218.9,0.716702,269.356,0.932107
218.8,1.75022,269.527,0.934094
218.7,2.18959,269.524,0.934058
218.6,2.78023,270.007,0.939634
218.5,0.786839,269.725,0.936381
218.4,1.79743,269.356,0.93211
218.3,1.92371,269.706,0.936156
218.2,1.71388,270.149,0.941279
218.1,2.76088,269.984,0.939367
218,1.60156,269.749,0.936653
217.9,2.41088,269.876,0.938126
217.8,-0.364263,270.287,0.942862
217.7,1.87941,270.065,0.940304
217.6,2.02684,270.114,0.940868
217.5,2.19532,270.269,0.942657
217.4,1.54707,270.45,0.944753
217.3,0.0377062,270.457,0.944829
217.2,0.645372,270.476,0.945042
217.1,0.673367,270.84,0.949246
217,1.2189,270.922,0.950184
216.9,3.3961,270.876,0.949657
216.8,2.09891,270.441,0.944638
216.7,1.9611,271.087,0.952088
216.6,2.12266,270.995,0.951022
216.5,2.08812,271.15,0.952815
216.4,2.81497,270.891,0.949827
216.3,1.30976,271.229,0.953724
216.2,2.57878,271.167,0.953004
216.1,3.15716,271.141,0.952709
216,1.47779,271.534,0.95723
215.9,2.84698,271.345,0.955055
215.8,3.11832,271.305,0.954589
215.7,2.03359,271.798,0.96026
215.6,2.55121,271.79,0.960171
215.5,2.58798,271.564,0.957567
215.4,3.49486,271.49,0.956724
215.3,3.62934,271.708,0.959225
215.2,2.93506,271.901,0.961442
215.1,3.62227,271.638,0.958426
215,2.10638,271.929,0.961757
214.9,3.6198,271.688,0.958991
214.8,2.07426,271.933,0.961813
214.7,1.43791,271.968,0.96221
214.6,0.901212,271.911,0.961558
214.5,1.95479,272.264,0.965607
214.4,2.88345,272.264,0.965607
214.3,1.73606,272.106,0.963791
214.2,1.3424,272.181,0.964658
214.1,1.91661,272.091,0.96362
214,1.60098,272.276,0.96574
213.9,1.84153,272.668,0.97024
213.8,2.53077,272.391,0.967064
213.7,1.84414,272.576,0.969182
213.6,3.53091,272.754,0.971221
213.5,1.3163,272.599,0.969448
213.4,3.40339,272.561,0.969008
213.3,2.09549,272.781,0.971535
213.2,1.95776,272.597,0.969425
213.1,1.84247,272.651,0.970037
213,2.99612,272.741,0.971075
212.9,2.25862,272.985,0.973862
212.8,3.20987,272.885,0.972717
212.7,1.50845,272.778,0.971497
212.6,1.75213,272.938,0.973328
212.5,2.77143,273.395,0.978552
212.4,2.67057,273.07,0.974832
212.3,3.35869,273.064,0.974771
212.2,2.79013,273.573,0.980591
212.1,2.82694,273.298,0.977449
212,3.36359,273.494,0.979689
211.9,3.39877,273.9,0.984316
211.8,3.41784,273.587,0.980747
211.7,2.19383,273.826,0.983477
211.6,2.32694,274.371,0.989692
211.5,2.83414,274.091,0.986499
211.4,2.56054,273.806,0.983251
211.3,1.47324,273.833,0.983561
211.2,2.45896,274.007,0.985537
211.1,2.96582,273.995,0.985406
211,3.52626,274.243,0.988229
210.9,1.42709,274.198,0.987713
210.8,2.35156,274.149,0.987156
210.7,2.08417,274.229,0.988068
210.6,3.84037,274.548,0.991712
210.5,2.06239,274.747,0.993975
210.4,3.47415,274.766,0.994188
210.3,0.672857,274.581,0.992078
210.2,2.271,274.796,0.994535
210.1,2.20201,274.91,0.995824
210,1.32423,274.956,0.996349
209.9,2.8281,274.745,0.993955
209.8,1.74015,275.098,0.99796
209.7,1.25446,275.202,0.999146
209.6,2.6165,275.202,0.999145
209.5,2.12136,275.371,1.00107
209.4,0.793613,275.372,1.00107
209.3,1.25002,275.514,1.00269
209.2,3.23657,275.868,1.00671
209.1,0.941447,276.323,1.01186
209,2.56013,275.898,1.00704
208.9,3.58094,275.95,1.00763
208.8,0.653474,275.895,1.00702
208.7,1.06002,276.176,1.0102
208.6,2.8575,276.158,1.00999
208.5,2.6633,276.228,1.01079
208.4,1.68247,275.913,1.00722
208.3,3.92645,276.146,1.00986
208.2,3.31122,276.438,1.01317
208.1,3.80699,276.678,1.01589
208,2.30492,276.736,1.01654
207.9,0.782302,276.85,1.01783
207.8,1.90745,277.067,1.02028
207.7,2.53838,277.471,1.02484
207.6,2.14085,277.139,1.02109
207.5,2.89442,277.403,1.02408
207.4,1.76442,277.228,1.02211
207.3,1.9151,277.701,1.02744
207.2,2.2474,277.435,1.02444
207.1,2.46905,277.396,1.02399
207,1.41631,277.681,1.02722
206.9,3.33643,277.617,1.02649
206.8,2.47456,277.527,1.02548
206.7,2.5649,277.908,1.02977
206.6,2.9897,277.784,1.02838
206.5,2.45511,277.859,1.02923
206.4,2.73816,277.843,1.02905
206.3,2.75275,278.298,1.03417
206.2,2.73839,278.533,1.03681
206.1,3.02797,278.49,1.03633
206,3.14063,278.329,1.03452
205.9,3.10842,278.922,1.04119
205.8,2.37757,278.786,1.03966
205.7,3.03047,278.734,1.03907
205.6,3.12185,279.049,1.04262
205.5,1.65816,279.176,1.04405
205.4,4.58905,279.169,1.04396
205.3,3.9896,279.354,1.04604
205.2,2.43948,280.083,1.05422
205.1,2.82919,279.667,1.04955
205,0.67286,279.808,1.05114
204.9,4.15389,280.052,1.05387
204.8,3.62193,280.363,1.05735
204.7,3.54929,280.027,1.05359
204.6,2.2982,280.189,1.05541
204.5,1.89669,280.609,1.0601
204.4,1.92385,280.774,1.06195
204.3,2.8301,280.916,1.06353
204.2,4.53874,281.397,1.0689
204.1,2.6649,280.976,1.06421
204,3.2629,281.348,1.06835
203.9,2.33082,281.666,1.0719
203.8,2.5759,281.452,1.06952
203.7,3.59417,281.863,1.0741
203.6,2.50531,281.963,1.07521
203.5,3.36888,281.88,1.07428
203.4,3.08464,282.212,1.07799
203.3,2.61945,282.029,1.07595
203.2,3.72437,282.475,1.08092
203.1,2.44611,282.289,1.07884
203,1.42736,282.861,1.0852
202.9,2.2337,282.627,1.0826
202.8,1.74328,282.894,1.08557
202.7,2.60103,282.819,1.08473
202.6,2.89823,283.496,1.09225
202.5,2.33519,283.212,1.0891
202.4,1.99394,283.173,1.08867
202.3,2.76851,283.604,1.09345
202.2,2.7304,283.776,1.09536
202.1,3.81086,284.019,1.09805
202,2.84323,284.317,1.10134
201.9,1.10268,284.241,1.10051
201.8,4.1187,284.646,1.10498
201.7,3.42495,284.92,1.10801
201.6,4.18027,285.285,1.11203
201.5,2.00579,285.023,1.10914
201.4,2.38278,285.229,1.11142
201.3,1.76661,285.287,1.11205
201.2,1.26414,285.564,1.11511
201.1,1.79726,285.763,1.11731
201,3.58689,285.792,1.11762
200.9,2.17879,285.964,1.11952
200.8,4.43796,286.29,1.12311
200.7,2.13036,286.081,1.12081
200.6,2.16516,286.426,1.1246
200.5,3.11718,286.86,1.12937
200.4,2.3507,287.173,1.1328
200.3,3.34672,287.027,1.13121
200.2,4.10625,287.457,1.13592
200.1,3.53321,287.625,1.13776
200,1.55558,287.851,1.14024
199.9,3.38163,288,1.14186
199.8,2.29903,288.123,1.14321
199.7,3.4039,288.16,1.14361
199.6,3.46975,288.568,1.14807
199.5,1.93375,288.383,1.14605
199.4,3.25972,288.834,1.15098
199.3,2.2058,288.529,1.14765
199.2,2.30147,288.694,1.14945
199.1,3.09692,288.78,1.15039
199,2.30249,289.109,1.15398
198.9,2.34074,288.918,1.1519
198.8,2.35415,289.361,1.15673
198.7,2.49281,289.315,1.15623
198.6,2.09312,289.501,1.15826
198.5,2.78952,290.204,1.16591
198.4,3.31111,289.982,1.16349
198.3,2.15933,290.166,1.1655
198.2,2.74159,290.468,1.16878
198.1,2.24813,290.386,1.16788
198,1.61998,290.466,1.16875
197.9,3.54794,290.819,1.17259
197.8,2.694,290.938,1.17388
197.7,2.40159,290.907,1.17354
197.6,2.9848,291.426,1.17917
197.5,2.26179,290.975,1.17429
197.4,3.29871,291.313,1.17795
197.3,2.57553,291.687,1.182
197.2,2.03157,291.841,1.18367
197.1,1.14502,292.096,1.18643
197,5.05667,291.983,1.1852
196.9,4.15529,292.438,1.19013
196.8,5.17258,292.481,1.19059
196.7,2.90216,292.629,1.19219
196.6,4.53224,292.944,1.19559
196.5,1.56145,293.207,1.19843
196.4,4.7679,293.658,1.20328
196.3,3.09261,293.731,1.20407
196.2,3.03476,294.085,1.20788
196.1,3.9633,294.479,1.21211
196,1.44792,294.319,1.2104
195.9,1.68517,295.034,1.21807
195.8,2.38931,295.122,1.21901
195.7,1.81431,295.483,1.22288
195.6,3.26304,295.533,1.22342
195.5,3.54146,295.818,1.22648
195.4,2.25971,295.76,1.22585
195.3,4.12737,296.478,1.23353
195.2,3.62744,296.626,1.23511
195.1,3.96693,296.657,1.23544
195,3.51563,296.864,1.23764
194.9,3.33273,297.639,1.24591
194.8,2.53249,297.724,1.24682
194.7,0.290865,297.978,1.24951
194.6,2.68881,298.206,1.25195
194.5,1.27188,298.611,1.25624
194.4,3.04703,299.04,1.2608
194.3,2.74117,299.301,1.26357
194.2,1.60905,299.825,1.26911
194.1,2.69286,300.31,1.27424
194,1.28932,300.729,1.27867
193.9,1.03717,301.243,1.28409
193.8,0.182597,301.918,1.2912
193.7,0.493609,302.591,1.29828
193.6,2.74164,302.973,1.30229
193.5,1.28448,303.645,1.30933
193.4,2.58106,303.946,1.31248
193.3,1.64427,304.392,1.31715
193.2,3.74652,305.256,1.32617
193.1,2.07651,305.309,1.32672
193,0.416905,305.762,1.33144
192.9,1.47822,306.615,1.34031
192.8,1.39553,307.137,1.34572
192.7,2.46568,307.681,1.35136
192.6,2.50485,308.464,1.35946
192.5,1.84986,309.379,1.36891
192.4,1.4671,310.316,1.37856
192.3,1.87545,310.696,1.38246
192.2,2.1819,311.8,1.39379
192.1,-0.119238,312.101,1.39687
192,2.88396,313.165,1.40775
191.9,2.28302,313.668,1.41287
191.8,3.48717,314.759,1.42398
191.7,3.77535,315.436,1.43085
191.6,1.50832,316.351,1.44012
191.5,2.44374,316.816,1.44482
191.4,1.42861,318.239,1.45919
191.3,1.69676,319.342,1.47027
191.2,2.6219,319.934,1.47621
191.1,3.01959,321.669,1.49357
191,3.33158,322.463,1.50148
190.9,0.172815,324.156,1.51831
190.8,3.15634,325.87,1.53527
190.7,1.21004,326.962,1.54604
190.6,2.05174,327.813,1.5544
190.5,-0.595336,329.657,1.57247
190.4,-0.899566,330.976,1.58535
190.3,3.03025,332.174,1.59701
190.2,3.01144,333.608,1.61091
190.1,2.80086,334.459,1.61914
190,1.71391,335.898,1.63301
,,,
##### Extended Information,,,
[Comments],,,
Sample name,class,,
Comment,,,
User,,,
Division,,,
Company,Saint Mary's College,,
,,,
[Detailed Information],,,
Creation date,9/29/2021 16:29,,
,,,
Data array type,Linear data array * 3,,
Horizontal axis,Wavelength [nm],,
Vertical axis(1),CD [mdeg],,
Vertical axis(2),HT [V],,
Vertical axis(3),Abs,,
Start,290 nm,,
End,190 nm,,
Data interval,0.1 nm,,
Data points,1001,,
,,,
[Measurement Information],,,
Instrument name,J-1500,,
Model name,J-1500,,
Serial No.,B051061638,,
,,,
Detector,PM-539,,
Detector S/N,B051061638,,
  Lock-in amp.,X mode,,
  HT volt,Auto,,
,,,
Accessory,PTC-517,,
Accessory S/N,B026561646,,
  Temperature,22.61 C,,
  Control sensor,Holder,,
  Monitor sensor,Holder,,
,,,
Measurement date,9/29/2021 16:29,,
,,,
CD Overload detect,882,,
Photometric mode,CD, HT, Abs
Measure range,290 - 190 nm,,
Data pitch,0.1 nm,,
CD scale,20 mdeg/0.05 dOD,,
FL scale,20 mdeg/0.05 dOD,,
D.I.T.,64 msec,,
Bandwidth,1.00 nm,,
Start mode,Immediately,,
Scanning mode,Continuous,,
Scanning speed,50 nm/min,,
Baseline correction,None,,
Shutter control,Auto,,
No. of cycle,1-Jan,,
N2 Flowmeter,Manual,,
