TITLE,class,,
DATA TYPE,,,
ORIGIN,JASCO,,
OWNER,,,
DATE,21/09/29,,
TIME,17:27:01,,
SPECTROMETER/DATA SYSTEM,,,
LOCALE,1033,,
RESOLUTION,,,
DELTAX,-0.1,,
XUNITS,NANOMETERS,,
YUNITS,CD [mdeg],,
Y2UNITS,HT [V],,
Y3UNITS,ABSORBANCE,,
FIRSTX,290,,
LASTX,190,,
NPOINTS,1001,,
FIRSTY,2.04481,,
MAXY,4.95829,,
MINY,-1.25937,,
XYDATA,,,
290,2.04481,252.729,0.734625
289.9,2.03426,252.931,0.737083
289.8,0.883487,252.991,0.73782
289.7,1.54179,253.198,0.740341
289.6,1.09533,253.209,0.740472
289.5,1.31163,253.091,0.739034
289.4,2.04033,252.944,0.73724
289.3,2.06779,252.953,0.737347
289.2,0.83957,253.495,0.74395
289.1,1.60047,252.867,0.736301
289,0.991403,252.853,0.736135
288.9,1.93886,253.296,0.741533
288.8,1.90318,253.039,0.738397
288.7,1.56755,253.066,0.738732
288.6,1.12839,253.174,0.740044
288.5,1.90086,253.21,0.740486
288.4,2.86805,253.12,0.739392
288.3,1.31038,253.032,0.738314
288.2,1.66603,253.059,0.738645
288.1,0.965879,252.95,0.737318
288,1.52967,252.931,0.737088
287.9,2.16863,252.997,0.737889
287.8,-0.120433,252.653,0.733691
287.7,0.633846,253.033,0.738326
287.6,2.38397,253.079,0.738881
287.5,1.51645,253.182,0.740136
287.4,1.1134,252.814,0.735655
287.3,1.29799,253.052,0.738564
287.2,2.04411,252.875,0.736401
287.1,1.80496,252.838,0.735952
287,1.75628,252.986,0.73776
286.9,0.236559,252.922,0.736973
286.8,1.78493,252.67,0.733895
286.7,2.28247,252.555,0.732498
286.6,1.21623,252.842,0.735999
286.5,2.16468,252.748,0.734847
286.4,2.39912,252.602,0.733072
286.3,2.96055,253.025,0.738233
286.2,1.1911,252.901,0.736722
286.1,1.73545,253.051,0.738545
286,0.573857,252.934,0.737118
285.9,2.12415,252.941,0.737204
285.8,1.75926,252.798,0.73546
285.7,1.78226,252.743,0.734789
285.6,2.38912,252.761,0.735009
285.5,2.07232,252.551,0.732451
285.4,0.78143,252.679,0.734014
285.3,1.35866,252.77,0.735125
285.2,0.637077,252.627,0.733375
285.1,1.73391,252.393,0.730522
285,1.79449,252.802,0.73551
284.9,2.04082,252.462,0.731357
284.8,1.23886,252.44,0.731089
284.7,1.21903,252.617,0.733259
284.6,1.4356,252.494,0.731753
284.5,1.38355,252.42,0.730847
284.4,2.00374,252.616,0.733245
284.3,1.9546,252.483,0.731617
284.2,0.699372,252.616,0.733245
284.1,1.80673,252.422,0.730878
284,0.679859,252.567,0.732649
283.9,2.1895,252.427,0.73093
283.8,2.09833,252.659,0.733761
283.7,1.60676,252.681,0.734036
283.6,1.88506,252.246,0.728721
283.5,0.399138,252.517,0.732037
283.4,1.29762,252.399,0.730598
283.3,1.44961,252.444,0.731138
283.2,0.581451,252.682,0.73405
283.1,2.50739,252.524,0.732118
283,1.21605,253.032,0.738315
282.9,0.63932,252.099,0.72693
282.8,1.51845,252.33,0.729747
282.7,1.3021,252.524,0.732125
282.6,1.13908,252.317,0.729595
282.5,1.98173,252.443,0.731127
282.4,0.488403,252.335,0.729811
282.3,1.84439,252.469,0.731451
282.2,0.420846,252.38,0.730366
282.1,0.764335,252.256,0.728842
282,1.16935,252.636,0.733489
281.9,1.40606,252.47,0.731456
281.8,2.20736,252.275,0.729081
281.7,1.48256,252.184,0.727965
281.6,1.36759,252.332,0.729773
281.5,2.24161,252.295,0.729325
281.4,2.00961,252.263,0.728934
281.3,1.10956,252.223,0.728442
281.2,1.58492,252.355,0.730062
281.1,2.30045,252.571,0.732699
281,2.01463,251.881,0.724259
280.9,1.4872,252.337,0.72984
280.8,1.84597,252.118,0.727162
280.7,1.61873,252.482,0.73161
280.6,2.60429,252.192,0.728065
280.5,0.549559,252.088,0.726795
280.4,2.32144,251.704,0.722091
280.3,1.83735,252.399,0.730589
280.2,1.98117,252.098,0.726912
280.1,0.667009,252.105,0.726997
280,1.05372,251.882,0.724273
279.9,1.27244,252.213,0.728325
279.8,1.47992,251.902,0.724519
279.7,1.09072,252.509,0.731942
279.6,1.62291,252.466,0.731414
279.5,0.955888,252.325,0.729695
279.4,1.30554,252.517,0.732035
279.3,1.42276,251.991,0.725612
279.2,2.28389,251.692,0.721944
279.1,2.04707,251.926,0.724812
279,1.15664,252.099,0.726932
278.9,1.26537,252.187,0.727998
278.8,1.2545,252.064,0.7265
278.7,2.28707,251.987,0.725557
278.6,2.02486,252.021,0.725972
278.5,0.755693,251.946,0.725056
278.4,1.00751,251.9,0.724497
278.3,1.21126,251.786,0.723104
278.2,1.86534,251.839,0.723743
278.1,1.4277,252.149,0.727537
278,2.19192,252.25,0.728768
277.9,1.48059,251.844,0.723816
277.8,0.931896,252.241,0.728657
277.7,0.615414,251.767,0.722865
277.6,1.67056,251.677,0.72176
277.5,1.01195,251.808,0.723369
277.4,1.07255,252.032,0.726113
277.3,1.05126,251.711,0.722182
277.2,2.17413,252.116,0.727139
277.1,1.14489,251.992,0.725616
277,-0.236868,252.03,0.726083
276.9,1.77355,252.151,0.727569
276.8,1.31391,252.325,0.729687
276.7,2.74473,252.046,0.726284
276.6,0.919184,252.088,0.72679
276.5,1.83725,251.747,0.722622
276.4,1.42648,251.595,0.720765
276.3,0.356425,251.827,0.723606
276.2,1.02313,252.346,0.729941
276.1,0.83551,251.692,0.721946
276,1.31664,251.77,0.722901
275.9,0.93591,251.504,0.719652
275.8,1.70223,251.77,0.722899
275.7,0.965557,251.586,0.720651
275.6,1.32975,251.861,0.724019
275.5,1.10841,251.968,0.725326
275.4,1.62324,251.735,0.722471
275.3,1.47809,251.758,0.722762
275.2,1.07556,251.893,0.72441
275.1,1.58785,251.819,0.723507
275,1.37398,251.908,0.724597
274.9,1.00548,251.746,0.722608
274.8,1.47311,251.672,0.721707
274.7,1.41523,251.945,0.725048
274.6,0.612665,252.057,0.726409
274.5,1.74394,252.018,0.725932
274.4,0.589846,251.73,0.722419
274.3,0.780416,251.826,0.723587
274.2,1.75138,251.59,0.720704
274.1,1.51812,251.533,0.720007
274,0.280304,251.244,0.716461
273.9,1.87161,251.461,0.719123
273.8,2.48593,251.433,0.718777
273.7,1.22974,251.576,0.720531
273.6,1.27652,251.538,0.72007
273.5,1.21272,251.567,0.720423
273.4,1.53745,251.291,0.717035
273.3,0.710654,251.67,0.721681
273.2,0.949351,251.628,0.72116
273.1,1.76034,251.593,0.720736
273,1.37454,251.477,0.719319
272.9,0.591343,251.628,0.721173
272.8,-0.0526596,251.742,0.722556
272.7,0.879404,251.714,0.722221
272.6,0.74085,251.579,0.720564
272.5,0.722528,251.536,0.720044
272.4,1.46264,251.44,0.718861
272.3,1.71502,251.471,0.719241
272.2,0.731005,251.695,0.721991
272.1,1.34791,251.74,0.722539
272,1.20341,251.704,0.722098
271.9,0.728298,251.276,0.71686
271.8,1.6997,251.574,0.72051
271.7,0.583431,251.489,0.719461
271.6,0.459594,251.642,0.721339
271.5,1.42019,251.194,0.715855
271.4,1.57792,251.461,0.719123
271.3,1.07345,251.671,0.721696
271.2,0.968884,251.795,0.723211
271.1,1.20316,251.67,0.721675
271,1.1895,251.354,0.717813
270.9,1.0677,251.794,0.723204
270.8,0.5269,251.529,0.719948
270.7,2.11418,251.543,0.720129
270.6,1.5495,251.505,0.719664
270.5,1.43756,251.965,0.72529
270.4,1.07327,251.474,0.719282
270.3,0.539715,251.693,0.721963
270.2,1.18001,251.803,0.723312
270.1,1.60911,251.319,0.717384
270,0.861294,251.75,0.722663
269.9,1.22702,251.566,0.720406
269.8,0.663268,251.551,0.720228
269.7,1.55173,251.47,0.719237
269.6,1.49906,251.444,0.718918
269.5,0.347617,251.617,0.721034
269.4,1.99437,251.507,0.719688
269.3,1.7788,251.704,0.722102
269.2,0.979458,251.375,0.718071
269.1,1.96508,251.635,0.721247
269,0.548451,251.7,0.722052
268.9,0.478742,251.518,0.719823
268.8,1.0684,251.575,0.720522
268.7,0.555451,251.68,0.7218
268.6,0.404917,251.537,0.720049
268.5,1.1401,251.527,0.719933
268.4,1.26854,251.985,0.725539
268.3,0.803131,251.617,0.721032
268.2,1.26625,251.808,0.723364
268.1,1.10968,251.847,0.723842
268,1.61625,251.803,0.723305
267.9,0.789903,251.66,0.721556
267.8,0.87701,251.677,0.721766
267.7,0.652078,251.525,0.719902
267.6,0.434868,251.678,0.721773
267.5,1.13734,251.917,0.724704
267.4,1.95681,251.711,0.722183
267.3,0.600191,251.544,0.720136
267.2,1.63781,251.875,0.724185
267.1,1.79489,251.885,0.72431
267,0.0340351,251.794,0.723195
266.9,0.879267,251.542,0.720118
266.8,0.803193,251.885,0.724306
266.7,0.968149,251.889,0.724358
266.6,0.450705,251.603,0.720866
266.5,0.52457,252.028,0.726062
266.4,0.837077,252.097,0.726909
266.3,0.991008,251.743,0.722577
266.2,1.95099,251.985,0.725531
266.1,0.92295,251.837,0.723729
266,0.503149,252.201,0.728171
265.9,0.796327,252.098,0.726914
265.8,2.20651,252.106,0.727018
265.7,0.762978,251.79,0.723147
265.6,1.30769,251.911,0.724635
265.5,1.41291,251.848,0.723856
265.4,0.953615,252.237,0.728608
265.3,0.90828,251.721,0.722305
265.2,0.190761,252.004,0.725768
265.1,0.729158,252.068,0.726549
265,1.25756,251.96,0.725228
264.9,1.5413,252.124,0.72724
264.8,1.48625,251.926,0.724815
264.7,0.844943,251.965,0.725288
264.6,2.0019,252.022,0.72599
264.5,0.795488,251.932,0.72489
264.4,1.4836,251.967,0.725311
264.3,0.37153,252.057,0.726414
264.2,0.944943,252.046,0.726282
264.1,0.863433,252.048,0.72631
264,1.20661,252.06,0.726454
263.9,1.08981,252.111,0.72708
263.8,0.557004,251.837,0.723729
263.7,1.00112,252.075,0.726629
263.6,1.12011,252.327,0.729718
263.5,0.0732804,252.306,0.729458
263.4,1.79999,252.295,0.729325
263.3,0.20003,252.338,0.729847
263.2,1.04129,251.837,0.72372
263.1,1.73732,252.064,0.726497
263,1.60513,252.185,0.727975
262.9,1.97899,252.432,0.730991
262.8,0.974639,252.285,0.729199
262.7,0.21641,252.4,0.730601
262.6,0.729833,252.676,0.733976
262.5,0.0149093,252.537,0.732282
262.4,0.89764,252.642,0.733558
262.3,0.799818,252.637,0.733492
262.2,2.28713,252.939,0.73718
262.1,1.20437,252.641,0.733545
262,1.66473,252.662,0.733803
261.9,-0.26432,252.43,0.730975
261.8,1.66448,252.638,0.733514
261.7,0.560415,252.846,0.736045
261.6,1.63796,252.619,0.733274
261.5,0.784184,252.794,0.73541
261.4,1.30625,252.848,0.736073
261.3,0.241755,252.467,0.731418
261.2,1.23176,252.846,0.736047
261.1,1.43254,252.583,0.732839
261,1.06273,252.775,0.735187
260.9,0.923296,252.787,0.735332
260.8,0.859988,252.723,0.734542
260.7,0.380762,252.8,0.735484
260.6,1.13987,253.022,0.738198
260.5,0.540907,252.737,0.734717
260.4,2.0641,252.883,0.736496
260.3,1.57954,252.754,0.73493
260.2,1.78336,252.952,0.737342
260.1,0.887635,252.919,0.736933
260,0.78482,252.901,0.736722
259.9,0.764378,252.955,0.737382
259.8,0.261584,253.237,0.740816
259.7,1.01921,253.316,0.741771
259.6,0.670741,253.008,0.738026
259.5,0.698432,252.985,0.737739
259.4,0.980861,252.885,0.736529
259.3,0.262966,253.62,0.745471
259.2,0.925278,253.165,0.739937
259.1,0.534616,253.174,0.740044
259,0.623308,252.994,0.737855
258.9,1.66559,253.287,0.741426
258.8,1.31177,253.331,0.741955
258.7,1.07183,253.123,0.73942
258.6,1.33831,253.528,0.744348
258.5,0.758749,253.018,0.738148
258.4,1.01733,253.482,0.743796
258.3,0.657095,253.429,0.74315
258.2,0.111047,253.46,0.743522
258.1,0.752811,253.881,0.748644
258,1.13421,253.316,0.741771
257.9,1.053,253.545,0.74456
257.8,0.638946,253.772,0.747324
257.7,0.369778,253.761,0.747186
257.6,1.07777,253.291,0.741466
257.5,1.37923,253.68,0.746205
257.4,0.734601,253.884,0.748677
257.3,1.28535,253.449,0.74339
257.2,1.55319,253.788,0.747519
257.1,1.05796,253.513,0.744175
257,1.17558,254.052,0.750718
256.9,0.647905,253.936,0.749317
256.8,0.735869,253.7,0.746444
256.7,1.14781,253.957,0.749568
256.6,1.34956,253.809,0.747775
256.5,1.74519,254.091,0.751194
256.4,1.94289,254.018,0.750305
256.3,2.0778,253.852,0.748291
256.2,1.85136,254.023,0.750367
256.1,1.19407,253.974,0.749775
256,1.57292,254.141,0.751808
255.9,1.38345,254.29,0.753613
255.8,1.60954,254.242,0.753036
255.7,0.587233,254.012,0.750238
255.6,1.36057,253.973,0.74976
255.5,0.425456,254.078,0.751041
255.4,0.964862,254.042,0.750604
255.3,1.73861,254.02,0.750331
255.2,0.834522,254.09,0.751191
255.1,1.3901,254.104,0.751359
255,0.645629,254.246,0.753077
254.9,0.360183,254.482,0.755947
254.8,1.05546,254.146,0.751867
254.7,1.59221,254.081,0.75107
254.6,1.00274,254.246,0.753082
254.5,0.0896746,254.29,0.753612
254.4,0.748455,254.219,0.752755
254.3,1.50326,254.115,0.751486
254.2,0.733584,254.33,0.754098
254.1,1.55435,254.133,0.751712
254,0.714879,254.127,0.75164
253.9,0.700957,254.312,0.753876
253.8,0.312561,254.442,0.755452
253.7,1.39073,254.446,0.755502
253.6,-0.0583178,254.401,0.754962
253.5,0.837788,254.368,0.754562
253.4,1.88542,254.646,0.757935
253.3,0.589847,254.636,0.757812
253.2,1.03209,254.394,0.754873
253.1,1.04455,254.584,0.757176
253,1.78755,254.682,0.758368
252.9,1.60446,254.731,0.758965
252.8,2.75156,254.526,0.756476
252.7,1.18306,254.739,0.759063
252.6,0.0643656,254.68,0.758346
252.5,1.07844,254.816,0.759995
252.4,0.301608,254.561,0.756905
252.3,1.67014,254.875,0.760705
252.2,1.5429,254.773,0.759466
252.1,0.614811,254.812,0.759943
252,1.40635,254.749,0.75918
251.9,0.277694,254.82,0.760034
251.8,1.07202,254.669,0.758208
251.7,1.53507,254.724,0.758881
251.6,1.05729,254.865,0.760583
251.5,1.68355,254.968,0.761829
251.4,1.23308,254.954,0.761666
251.3,0.977255,254.776,0.759503
251.2,1.69714,254.798,0.759767
251.1,2.30004,254.751,0.7592
251,2.2038,254.79,0.759677
250.9,2.40185,254.969,0.761846
250.8,1.12567,254.993,0.762134
250.7,0.645683,254.971,0.761863
250.6,1.67314,254.793,0.759715
250.5,2.05301,255.097,0.763398
250.4,1.52236,254.818,0.760017
250.3,0.108634,254.888,0.760861
250.2,0.623452,254.743,0.759104
250.1,-0.238554,254.624,0.757666
250,0.660744,254.981,0.761988
249.9,2.06628,254.668,0.758201
249.8,1.31475,255.019,0.762455
249.7,0.861904,255.185,0.764464
249.6,1.81181,255.27,0.765483
249.5,1.2259,254.922,0.761276
249.4,1.15072,254.78,0.759549
249.3,0.754506,255.171,0.764289
249.2,1.27055,255.296,0.765804
249.1,1.80558,254.855,0.76046
249,0.461452,254.858,0.760498
248.9,0.512366,255.182,0.764423
248.8,1.69224,255.127,0.763761
248.7,-0.219646,255.162,0.764179
248.6,0.708043,255.022,0.76248
248.5,2.0739,255.012,0.762369
248.4,2.28825,254.519,0.756392
248.3,1.55715,254.834,0.760209
248.2,1.9814,254.971,0.761872
248.1,1.17623,254.956,0.761681
248,0.733782,254.462,0.755694
247.9,0.733008,255.025,0.762527
247.8,1.8726,255.114,0.763602
247.7,1.55784,254.746,0.759144
247.6,1.35423,254.959,0.761724
247.5,1.76934,254.778,0.759531
247.4,1.08333,255.092,0.763327
247.3,0.922324,255.126,0.763739
247.2,2.64383,255.148,0.764015
247.1,0.573904,254.952,0.761644
247,1.25612,255.263,0.765399
246.9,0.538344,255.6,0.769471
246.8,1.28719,255.449,0.767645
246.7,1.32543,255.547,0.768831
246.6,1.74426,255.196,0.764585
246.5,0.742954,255.305,0.765908
246.4,0.599448,255.219,0.764868
246.3,1.36525,255.381,0.766823
246.2,1.06105,255.156,0.764102
246.1,1.41156,255.239,0.765117
246,1.34768,255.193,0.764549
245.9,0.898443,255.388,0.766909
245.8,1.77402,255.277,0.765569
245.7,1.94239,255.215,0.764819
245.6,2.53309,255.337,0.766294
245.5,0.790318,255.294,0.765776
245.4,1.71073,255.239,0.765108
245.3,0.941973,255.504,0.768318
245.2,1.98934,255.467,0.767868
245.1,1.63385,255.575,0.769174
245,1.58587,255.41,0.767181
244.9,1.12742,255.218,0.76486
244.8,1.47599,255.461,0.767797
244.7,1.86832,255.159,0.764148
244.6,0.784985,255.413,0.76722
244.5,1.32253,255.291,0.765738
244.4,0.468008,255.255,0.765307
244.3,1.11715,255.794,0.771819
244.2,1.49018,255.692,0.770592
244.1,1.67916,255.276,0.765555
244,1.73229,255.748,0.771259
243.9,0.964616,255.472,0.767933
243.8,0.064297,255.903,0.773132
243.7,1.11947,255.448,0.76764
243.6,1.61835,255.912,0.773245
243.5,1.28509,255.551,0.768886
243.4,0.953687,255.815,0.772074
243.3,1.82872,255.886,0.772934
243.2,1.15168,255.484,0.768073
243.1,1.14213,255.41,0.767184
243,0.820004,255.607,0.76956
242.9,1.42101,255.341,0.76634
242.8,0.928237,255.538,0.76873
242.7,1.65133,255.788,0.771747
242.6,0.16453,255.803,0.771928
242.5,1.47049,255.359,0.766563
242.4,0.432203,255.615,0.769655
242.3,1.50139,255.625,0.769783
242.2,1.74418,256.198,0.77669
242.1,1.20317,255.573,0.769145
242,1.83984,256.039,0.774773
241.9,1.68695,255.709,0.770798
241.8,1.35146,255.942,0.773609
241.7,0.822321,256.326,0.778234
241.6,1.42821,255.986,0.774134
241.5,1.89766,256.08,0.775272
241.4,0.76624,256.309,0.778031
241.3,1.065,256.491,0.780223
241.2,2.29808,256.149,0.77611
241.1,1.09272,256.407,0.779216
241,-0.267894,256.365,0.778712
240.9,1.17024,256.296,0.777877
240.8,1.06118,255.991,0.774203
240.7,1.8142,256.081,0.775283
240.6,1.25666,256.129,0.775869
240.5,1.53862,256.482,0.780121
240.4,1.21596,256.212,0.776866
240.3,0.924617,256.437,0.779578
240.2,0.45739,256.506,0.780412
240.1,0.347547,256.5,0.780334
240,0.645659,256.736,0.783178
239.9,2.10755,256.244,0.777254
239.8,1.39116,256.596,0.781496
239.7,0.392473,256.568,0.78115
239.6,2.13174,256.596,0.781487
239.5,0.783125,256.376,0.778839
239.4,1.59497,256.91,0.785269
239.3,0.509399,257.111,0.787692
239.2,1.27447,256.767,0.783549
239.1,0.401684,257.281,0.789734
239,1.18442,257.044,0.786881
238.9,0.725139,256.899,0.785143
238.8,0.850487,256.959,0.785864
238.7,1.71469,256.959,0.785861
238.6,1.62645,257.088,0.787413
238.5,0.981045,257.313,0.790117
238.4,1.4762,257.41,0.791284
238.3,1.14024,257.092,0.787462
238.2,0.952595,257.353,0.790602
238.1,0.708453,257.759,0.795471
238,1.84446,257.305,0.790018
237.9,2.5851,257.623,0.793847
237.8,0.554165,257.814,0.796128
237.7,0.901412,257.611,0.793693
237.6,1.46392,257.588,0.793426
237.5,1.06656,257.649,0.794153
237.4,0.667249,257.79,0.79585
237.3,-0.430667,257.827,0.796295
237.2,-0.464708,258.086,0.799395
237.1,1.65202,258.195,0.800707
237,1.63469,257.934,0.797578
236.9,2.21806,257.933,0.797557
236.8,1.47528,258.34,0.802443
236.7,0.289725,257.583,0.793368
236.6,2.02182,258.249,0.801355
236.5,1.467,258.557,0.805034
236.4,0.726199,258.423,0.80343
236.3,1.16301,258.13,0.79993
236.2,1.21563,258.55,0.804953
236.1,0.396837,258.608,0.805648
236,1.38695,258.816,0.808138
235.9,0.987541,258.519,0.804581
235.8,2.54049,258.743,0.807261
235.7,1.09715,258.948,0.809717
235.6,0.4587,258.981,0.810111
235.5,0.863739,258.742,0.807247
235.4,-0.0350163,258.594,0.805476
235.3,1.23355,258.872,0.808802
235.2,0.310584,258.436,0.803591
235.1,2.54571,258.979,0.810083
235,1.43512,258.88,0.808906
234.9,1.52596,258.629,0.805897
234.8,1.57761,258.965,0.80992
234.7,0.743727,259.018,0.810548
234.6,1.59643,259.247,0.813286
234.5,1.32728,259.052,0.810959
234.4,1.40589,258.914,0.809307
234.3,0.88095,259.518,0.816522
234.2,1.15836,259.209,0.812838
234.1,2.00837,259.755,0.819352
234,1.05197,259.42,0.815352
233.9,1.20053,259.619,0.817724
233.8,0.941332,260.068,0.82308
233.7,0.597095,259.904,0.821123
233.6,1.67286,259.888,0.820937
233.5,1.53553,260.137,0.823897
233.4,1.28664,259.882,0.82086
233.3,1.7913,259.896,0.821025
233.2,2.10858,259.982,0.822051
233.1,0.880353,260.314,0.826006
233,1.19027,260.026,0.822578
232.9,2.42296,259.951,0.82169
232.8,1.49142,260.341,0.826327
232.7,1.84771,260.238,0.825104
232.6,1.23996,260.448,0.827601
232.5,2.28192,260.318,0.826057
232.4,1.04072,260.786,0.831623
232.3,0.654538,260.926,0.833292
232.2,2.14864,260.985,0.833988
232.1,1.00039,261.067,0.834957
232,1.64116,260.734,0.831006
231.9,1.35066,261.315,0.837899
231.8,1.10566,260.781,0.831567
231.7,1.9175,261.359,0.83843
231.6,1.41299,261.488,0.839959
231.5,1.839,261.576,0.841
231.4,0.613789,261.213,0.836697
231.3,0.526215,261.328,0.838064
231.2,1.98946,261.504,0.840143
231.1,1.78531,261.483,0.839898
231,2.02529,261.525,0.840397
230.9,0.662078,261.739,0.842937
230.8,0.604117,262.036,0.846451
230.7,1.73625,261.26,0.837255
230.6,3.23367,261.738,0.842925
230.5,2.87004,261.614,0.841445
230.4,0.19314,261.708,0.842564
230.3,1.77352,261.372,0.838579
230.2,1.70556,261.868,0.844465
230.1,1.32927,261.487,0.839945
230,1.27869,261.671,0.842126
229.9,1.87591,261.261,0.837269
229.8,1.52505,261.67,0.842118
229.7,1.72064,261.048,0.834732
229.6,1.2465,261.265,0.837313
229.5,2.66518,261.267,0.837334
229.4,1.40155,261.176,0.836255
229.3,2.30313,262.018,0.846236
229.2,2.2557,261.826,0.84396
229.1,1.90886,262.15,0.8478
229,1.30108,262.333,0.849967
228.9,0.680526,262.262,0.849124
228.8,1.73466,262.384,0.850566
228.7,0.596551,262.666,0.853901
228.6,1.94641,262.315,0.849754
228.5,1.34776,262.821,0.855733
228.4,1.74102,262.824,0.855768
228.3,1.68079,263.195,0.860138
228.2,2.70729,263.38,0.862319
228.1,1.74536,263.292,0.861284
228,1.51183,262.966,0.857447
227.9,1.90292,263.448,0.863127
227.8,0.81571,263.741,0.866576
227.7,1.51577,263.404,0.862608
227.6,1.10751,263.775,0.866978
227.5,2.63556,263.738,0.866548
227.4,1.99345,264.129,0.871137
227.3,1.47226,263.792,0.867176
227.2,2.00397,264.078,0.870546
227.1,1.81677,264.408,0.874419
227,1.54178,263.864,0.868021
226.9,2.89307,264.135,0.871212
226.8,2.45793,263.653,0.865537
226.7,1.68068,264.423,0.874598
226.6,2.28165,264.4,0.87433
226.5,2.03275,264.379,0.874081
226.4,0.945456,264.392,0.874234
226.3,1.45216,264.694,0.877787
226.2,1.86081,264.884,0.880006
226.1,1.85982,264.668,0.877474
226,0.889452,264.724,0.878138
225.9,1.83291,264.849,0.879595
225.8,2.26055,265.027,0.881693
225.7,1.97102,265.102,0.882567
225.6,1.63192,265.338,0.885331
225.5,1.28553,265.024,0.881655
225.4,1.39506,264.959,0.880888
225.3,1.03523,265.385,0.885885
225.2,1.05484,264.947,0.880745
225.1,2.59891,265.743,0.890073
225,1.83102,265.621,0.888643
224.9,1.71365,265.93,0.892266
224.8,1.86579,266.027,0.893398
224.7,0.924354,266.015,0.89326
224.6,1.57669,265.683,0.889375
224.5,2.47583,266.733,0.901645
224.4,1.33654,265.947,0.892464
224.3,1.07064,266.409,0.89786
224.2,1.57848,266.128,0.894575
224.1,0.919518,266.255,0.896059
224,1.87578,266.325,0.896883
223.9,1.61934,266.54,0.899383
223.8,2.93033,266.393,0.89767
223.7,1.65305,266.644,0.900599
223.6,2.25595,266.588,0.89995
223.5,2.23765,266.761,0.901967
223.4,2.09957,266.98,0.90452
223.3,2.84459,266.351,0.897185
223.2,0.626301,266.831,0.90278
223.1,0.99375,267.148,0.906481
223,3.2875,267.047,0.905306
222.9,2.15449,267.481,0.910351
222.8,0.915712,266.885,0.903408
222.7,0.57595,267.232,0.907451
222.6,2.13964,267.392,0.909319
222.5,1.94394,267.59,0.91162
222.4,1.99986,267.537,0.911011
222.3,1.13978,267.389,0.90928
222.2,2.71546,267.471,0.910237
222.1,1.72402,267.363,0.908981
222,2.39474,267.451,0.910009
221.9,2.04165,268.094,0.917486
221.8,1.84027,267.758,0.913572
221.7,2.04142,268.334,0.920264
221.6,2.52265,268.005,0.916445
221.5,1.64913,268.246,0.919247
221.4,1.74631,268.088,0.917414
221.3,0.930604,268.207,0.918799
221.2,1.59362,268.655,0.923992
221.1,2.64606,268.532,0.922564
221,1.6947,267.82,0.914297
220.9,2.42787,267.779,0.913821
220.8,2.98383,268.449,0.921603
220.7,-0.395791,268.358,0.920543
220.6,2.8144,268.697,0.924481
220.5,2.29076,268.252,0.91932
220.4,2.29796,268.671,0.924174
220.3,1.77945,268.943,0.927334
220.2,1.47436,268.409,0.921143
220.1,2.18855,268.801,0.925688
220,1.46022,269.163,0.929873
219.9,0.99543,268.937,0.927263
219.8,1.95289,268.975,0.9277
219.7,2.87453,269.184,0.930119
219.6,2.09665,269.067,0.928769
219.5,1.75655,269.395,0.932564
219.4,0.751526,269.212,0.93045
219.3,3.8747,269.463,0.933351
219.2,2.17122,269.197,0.930274
219.1,1.28439,269.44,0.93308
219,0.812844,269.618,0.935145
218.9,1.93213,269.538,0.934215
218.8,1.44818,269.955,0.939031
218.7,2.40391,269.613,0.935078
218.6,2.07716,269.676,0.935815
218.5,1.9492,269.47,0.933424
218.4,2.56984,269.369,0.932261
218.3,2.74351,269.897,0.938368
218.2,1.34306,269.696,0.936044
218.1,2.7518,269.664,0.935669
218,1.52378,269.751,0.936676
217.9,3.07809,270.014,0.939722
217.8,1.65119,270.041,0.940026
217.7,1.70079,270.02,0.939789
217.6,3.3637,270.176,0.941581
217.5,1.20987,270.275,0.942728
217.4,2.6674,270.722,0.947887
217.3,1.09844,270.399,0.944158
217.2,2.60009,270.512,0.945466
217.1,2.09325,270.596,0.946426
217,2.51471,270.902,0.949952
216.9,2.80937,270.775,0.948497
216.8,2.54946,270.774,0.948484
216.7,2.34359,271.04,0.951544
216.6,1.39736,271.219,0.9536
216.5,1.1352,271.038,0.951517
216.4,2.14123,271.131,0.952596
216.3,2.4411,270.962,0.95065
216.2,1.94201,270.87,0.949584
216.1,1.76339,271.325,0.954829
216,3.16468,271.011,0.951208
215.9,2.43348,271.365,0.95528
215.8,1.87102,271.26,0.954076
215.7,2.43911,271.341,0.955006
215.6,3.99862,271.403,0.955724
215.5,1.67685,271.361,0.955236
215.4,2.46249,271.872,0.961104
215.3,2.29455,271.693,0.959058
215.2,4.01349,271.7,0.959134
215.1,1.6983,271.891,0.961328
215,2.5345,271.935,0.961828
214.9,1.53326,272.098,0.963697
214.8,2.16397,271.568,0.957621
214.7,2.73525,272.018,0.96279
214.6,2.18885,272.296,0.965971
214.5,1.29336,272.24,0.965333
214.4,2.8109,271.914,0.961592
214.3,2.40533,272.109,0.963832
214.2,1.81663,272.445,0.967682
214.1,1.21992,272.646,0.969988
214,1.80159,272.184,0.964688
213.9,2.12977,272.503,0.968348
213.8,2.44946,272.156,0.964368
213.7,2.21694,272.619,0.969675
213.6,1.96181,272.577,0.969193
213.5,1.76581,272.259,0.96555
213.4,2.50349,272.534,0.968706
213.3,2.18469,272.377,0.966901
213.2,2.46722,272.314,0.966177
213.1,1.77391,272.486,0.968151
213,4.12815,272.664,0.970186
212.9,2.79303,272.98,0.97381
212.8,2.20206,272.68,0.970372
212.7,2.32838,272.824,0.972025
212.6,2.00965,273.121,0.975424
212.5,1.68939,273.129,0.975511
212.4,2.26637,273.18,0.976094
212.3,2.08235,273.351,0.978045
212.2,3.14216,273.306,0.977537
212.1,2.71747,273.391,0.978503
212,2.19716,273.354,0.978085
211.9,1.03547,273.47,0.97941
211.8,3.02645,273.619,0.981113
211.7,1.62892,273.901,0.984332
211.6,3.77034,273.818,0.983388
211.5,3.51351,273.878,0.984067
211.4,1.88032,273.778,0.982922
211.3,3.11782,274.108,0.986687
211.2,2.32296,273.916,0.984505
211.1,1.75975,273.821,0.983419
211,2.32297,274.21,0.98785
210.9,2.87962,274.052,0.986054
210.8,2.91325,274.072,0.986279
210.7,1.995,274.631,0.992653
210.6,3.46987,274.874,0.995418
210.5,3.88373,274.152,0.987191
210.4,1.55939,274.582,0.992094
210.3,2.50169,274.676,0.993161
210.2,3.77313,274.79,0.994464
210.1,1.92469,275.062,0.997557
210,2.36392,274.964,0.996443
209.9,3.12824,274.617,0.992495
209.8,2.06851,275.071,0.99766
209.7,3.97106,275.39,1.00129
209.6,3.46341,275.15,0.99856
209.5,2.44793,275.373,1.00109
209.4,2.51773,275.354,1.00087
209.3,2.67926,275.222,0.99937
209.2,3.37031,275.172,0.998808
209.1,2.95118,275.623,1.00393
209,2.86582,275.661,1.00436
208.9,2.98195,275.873,1.00676
208.8,3.03603,276.034,1.00859
208.7,1.57983,275.912,1.0072
208.6,3.20643,275.654,1.00429
208.5,1.91198,275.963,1.00779
208.4,2.63776,276.277,1.01134
208.3,1.5749,276.068,1.00897
208.2,4.17695,276.237,1.01089
208.1,2.50021,276.702,1.01616
208,3.80282,276.037,1.00863
207.9,1.65498,277.135,1.02105
207.8,2.08481,276.926,1.01869
207.7,2.55565,276.341,1.01207
207.6,1.15578,276.862,1.01796
207.5,1.23363,276.581,1.01479
207.4,1.30067,277.179,1.02155
207.3,2.55452,277.495,1.02512
207.2,1.67047,277.388,1.0239
207.1,3.0617,277.68,1.02721
207,1.69065,277.586,1.02615
206.9,4.06492,277.045,1.02003
206.8,2.77485,277.873,1.02938
206.7,2.15516,277.575,1.02602
206.6,1.70696,277.581,1.02609
206.5,3.40663,278.294,1.03412
206.4,2.13305,278.665,1.0383
206.3,2.66833,278.427,1.03562
206.2,1.62454,278.191,1.03297
206.1,1.89529,278.522,1.0367
206,2.22167,278.345,1.03469
205.9,2.99735,278.455,1.03593
205.8,1.34452,278.627,1.03787
205.7,2.19939,278.934,1.04132
205.6,2.70129,279.215,1.04448
205.5,3.07565,279.07,1.04285
205.4,3.4578,279.466,1.04729
205.3,3.16061,279.359,1.0461
205.2,3.57099,280.226,1.05582
205.1,2.78571,279.917,1.05235
205,1.3735,279.955,1.05279
204.9,2.23525,280.098,1.05438
204.8,2.76566,279.775,1.05077
204.7,4.687,280.417,1.05795
204.6,1.57215,279.999,1.05327
204.5,1.87414,280.169,1.05518
204.4,2.98903,280.619,1.06021
204.3,2.14531,280.622,1.06025
204.2,4.41395,280.727,1.06142
204.1,2.41294,280.932,1.06371
204,4.17012,281.558,1.0707
203.9,1.99658,281.009,1.06457
203.8,3.69504,281.273,1.06752
203.7,2.91299,281.462,1.06963
203.6,0.999097,281.869,1.07416
203.5,2.17344,282.214,1.078
203.4,1.43231,281.875,1.07423
203.3,1.37436,282.018,1.07582
203.2,3.16341,282.227,1.07815
203.1,3.8903,282.398,1.08006
203,2.961,282.587,1.08216
202.9,3.72439,282.733,1.08378
202.8,2.02163,282.875,1.08535
202.7,1.66003,282.779,1.08429
202.6,1.52994,283.219,1.08918
202.5,4.68173,283.327,1.09038
202.4,3.65577,283.401,1.0912
202.3,3.25355,283.73,1.09485
202.2,3.60161,283.798,1.0956
202.1,3.07746,283.666,1.09413
202,3.27987,284.124,1.09921
201.9,2.68189,284.167,1.09969
201.8,3.0877,284.673,1.10528
201.7,2.04114,284.232,1.1004
201.6,2.20514,285.131,1.11034
201.5,2.62635,285.309,1.1123
201.4,2.44342,285.022,1.10913
201.3,3.67233,285.113,1.11014
201.2,2.65229,285.006,1.10896
201.1,2.79225,286.243,1.12258
201,3.26469,285.806,1.11778
200.9,2.17223,285.673,1.11631
200.8,4.05406,286.053,1.12049
200.7,1.74778,286.637,1.12692
200.6,1.86912,286.832,1.12906
200.5,2.72542,286.988,1.13078
200.4,2.48195,286.492,1.12532
200.3,3.24543,286.99,1.13079
200.2,2.93404,288.072,1.14265
200.1,1.61951,287.208,1.13319
200,3.91737,287.556,1.137
199.9,3.55544,287.94,1.14121
199.8,2.81008,287.924,1.14103
199.7,1.69593,287.876,1.14051
199.6,3.76236,287.968,1.14151
199.5,3.1821,288.019,1.14207
199.4,2.85156,288.391,1.14614
199.3,2.20444,289.362,1.15674
199.2,3.30158,288.789,1.15049
199.1,1.64703,288.66,1.14908
199,2.56241,288.851,1.15117
198.9,2.08469,289.192,1.15489
198.8,3.71984,289.344,1.15654
198.7,2.72534,289.346,1.15657
198.6,2.61286,289.572,1.15903
198.5,2.77534,290.081,1.16457
198.4,1.43994,289.872,1.1623
198.3,3.33518,290.219,1.16607
198.2,2.68321,289.793,1.16143
198.1,1.35813,290.673,1.171
198,3.69981,290.615,1.17038
197.9,3.44104,290.596,1.17017
197.8,2.5106,290.573,1.16992
197.7,3.31594,291.228,1.17703
197.6,2.16951,291.174,1.17644
197.5,1.7439,291.355,1.1784
197.4,2.99864,291.532,1.18032
197.3,1.42915,291.303,1.17784
197.2,2.98782,291.924,1.18457
197.1,3.83288,291.941,1.18475
197,2.76968,292.271,1.18831
196.9,2.93298,292.446,1.19021
196.8,1.86536,292.855,1.19463
196.7,1.82492,292.828,1.19433
196.6,3.6343,292.837,1.19443
196.5,3.00088,293.337,1.19982
196.4,3.69143,293.214,1.1985
196.3,3.09751,293.984,1.20679
196.2,2.52414,293.835,1.20519
196.1,2.25999,294.318,1.21039
196,3.82678,294.416,1.21143
195.9,3.42381,294.74,1.21492
195.8,3.89365,295.16,1.21942
195.7,3.40528,295.659,1.22477
195.6,0.0532831,295.445,1.22248
195.5,2.71612,296.344,1.2321
195.4,3.00631,296.462,1.23336
195.3,4.95829,296.398,1.23267
195.2,1.98792,296.68,1.23568
195.1,1.75246,297.088,1.24004
195,1.48536,296.87,1.23771
194.9,3.24151,297.855,1.2482
194.8,1.207,297.329,1.2426
194.7,1.23675,298.49,1.25497
194.6,1.89251,298.134,1.25118
194.5,3.58186,298.429,1.25431
194.4,3.48424,298.528,1.25537
194.3,0.707216,299.072,1.26113
194.2,3.03043,300.125,1.27229
194.1,1.58404,300.123,1.27226
194,1.81096,300.649,1.27783
193.9,2.83899,301.272,1.2844
193.8,2.65352,302.046,1.29255
193.7,4.63381,302.769,1.30015
193.6,2.11711,302.913,1.30166
193.5,0.257238,303.701,1.30992
193.4,2.8598,303.793,1.31088
193.3,0.139536,304.775,1.32114
193.2,3.16741,304.595,1.31927
193.1,1.30111,305.235,1.32595
193,2.40817,306.223,1.33623
192.9,2.63371,306.777,1.34198
192.8,0.975383,307.588,1.3504
192.7,1.06771,308.309,1.35786
192.6,2.05351,309.072,1.36574
192.5,3.56079,309.656,1.37176
192.4,3.29493,310.098,1.37632
192.3,1.63777,310.949,1.38506
192.2,3.62661,312.145,1.39732
192.1,1.42545,312.178,1.39766
192,2.46088,313.033,1.40639
191.9,1.52447,313.772,1.41394
191.8,2.17455,314.171,1.41799
191.7,3.04008,315.137,1.42781
191.6,3.13616,316,1.43657
191.5,3.79029,317.195,1.44866
191.4,1.97982,318.12,1.45799
191.3,0.67582,319.36,1.47045
191.2,2.99269,320.428,1.48116
191.1,3.07623,322.222,1.49908
191,4.44511,323.551,1.5123
190.9,2.05073,324.976,1.52643
190.8,3.30302,326.391,1.54041
190.7,2.83691,327.87,1.55496
190.6,2.45071,329.431,1.57026
190.5,2.37627,330.806,1.58369
190.4,1.73381,331.365,1.58914
190.3,2.25705,332.995,1.60497
190.2,2.26274,334.384,1.61842
190.1,2.30609,335.096,1.62529
190,-1.25937,336.068,1.63465
,,,
##### Extended Information,,,
[Comments],,,
Sample name,class,,
Comment,,,
User,,,
Division,,,
Company,Saint Mary's College,,
,,,
[Detailed Information],,,
Creation date,9/29/2021 16:27,,
,,,
Data array type,Linear data array * 3,,
Horizontal axis,Wavelength [nm],,
Vertical axis(1),CD [mdeg],,
Vertical axis(2),HT [V],,
Vertical axis(3),Abs,,
Start,290 nm,,
End,190 nm,,
Data interval,0.1 nm,,
Data points,1001,,
,,,
[Measurement Information],,,
Instrument name,J-1500,,
Model name,J-1500,,
Serial No.,B051061638,,
,,,
Detector,PM-539,,
Detector S/N,B051061638,,
  Lock-in amp.,X mode,,
  HT volt,Auto,,
,,,
Accessory,PTC-517,,
Accessory S/N,B026561646,,
  Temperature,22.63 C,,
  Control sensor,Holder,,
  Monitor sensor,Holder,,
,,,
Measurement date,9/29/2021 16:26,,
,,,
CD Overload detect,894,,
Photometric mode,CD, HT, Abs
Measure range,290 - 190 nm,,
Data pitch,0.1 nm,,
CD scale,20 mdeg/0.05 dOD,,
FL scale,20 mdeg/0.05 dOD,,
D.I.T.,64 msec,,
Bandwidth,1.00 nm,,
Start mode,Immediately,,
Scanning mode,Continuous,,
Scanning speed,50 nm/min,,
Baseline correction,None,,
Shutter control,Auto,,
No. of cycle,1-Jan,,
N2 Flowmeter,Manual,,
