TITLE,class,,
DATA TYPE,,,
ORIGIN,JASCO,,
OWNER,,,
DATE,21/09/29,,
TIME,17:41:05,,
SPECTROMETER/DATA SYSTEM,,,
LOCALE,1033,,
RESOLUTION,,,
DELTAX,-0.1,,
XUNITS,NANOMETERS,,
YUNITS,CD [mdeg],,
Y2UNITS,HT [V],,
Y3UNITS,ABSORBANCE,,
FIRSTX,290,,
LASTX,190,,
NPOINTS,1001,,
FIRSTY,2.2638,,
MAXY,13.31895,,
MINY,-4.41763,,
XYDATA,,,
290,2.2638,253.323,0.741864
289.9,1.63033,253.07,0.738783
289.8,1.41795,253.465,0.743586
289.7,0.393942,253.123,0.739418
289.6,1.58773,253.165,0.739939
289.5,1.33837,253.576,0.74494
289.4,2.07015,253.345,0.742124
289.3,1.59209,253.342,0.742086
289.2,1.14042,253.068,0.73875
289.1,1.1745,253.869,0.748495
289,1.49552,252.871,0.736353
288.9,2.18195,253.466,0.743605
288.8,0.458688,253.142,0.739651
288.7,1.82335,253.362,0.742333
288.6,1.63591,253.163,0.739905
288.5,1.85904,253.383,0.742595
288.4,2.35634,253.259,0.741078
288.3,1.4824,252.817,0.735695
288.2,1.3996,252.934,0.737118
288.1,1.64536,252.604,0.733093
288,1.26752,253.034,0.73834
287.9,1.38738,252.915,0.736888
287.8,2.14197,253.106,0.739213
287.7,1.31692,253.081,0.738913
287.6,1.29245,253.114,0.739315
287.5,1.67785,253.086,0.738975
287.4,1.40359,253.041,0.738423
287.3,0.872253,253.087,0.738989
287.2,1.80642,252.828,0.735833
287.1,1.63791,253.055,0.738592
287,1.50631,252.411,0.730735
286.9,2.15199,252.928,0.737043
286.8,1.452,253.119,0.73938
286.7,2.04618,253.018,0.738145
286.6,1.48246,253.022,0.738195
286.5,1.35335,252.808,0.735584
286.4,1.21313,252.614,0.733212
286.3,0.136017,253.069,0.738771
286.2,1.24367,252.789,0.735358
286.1,0.647975,252.666,0.733853
286,0.783679,252.738,0.734729
285.9,2.16945,253.028,0.738264
285.8,1.67215,252.831,0.735869
285.7,0.618411,252.845,0.736035
285.6,1.20313,252.918,0.736929
285.5,1.30805,253.451,0.743412
285.4,2.15295,252.794,0.73541
285.3,1.05274,252.735,0.734693
285.2,2.74299,252.724,0.734562
285.1,2.14379,253.04,0.738409
285,0.636364,252.637,0.733501
284.9,1.5856,252.87,0.736342
284.8,1.48971,252.992,0.737827
284.7,1.58071,253.044,0.738464
284.6,0.811535,252.388,0.730458
284.5,2.21211,252.835,0.735919
284.4,1.31717,252.914,0.736871
284.3,1.52395,252.613,0.733203
284.2,1.62242,252.639,0.733527
284.1,0.752979,252.715,0.734444
284,1.58504,252.457,0.731304
283.9,1.05119,252.452,0.731241
283.8,2.47319,252.788,0.735346
283.7,1.64569,253.047,0.738493
283.6,2.00572,252.8,0.735489
283.5,0.872685,252.298,0.729361
283.4,0.861204,252.47,0.731456
283.3,1.10823,252.679,0.734005
283.2,1.20606,252.866,0.736285
283.1,-0.192562,252.699,0.734249
283,0.0795898,252.45,0.73122
282.9,1.02042,252.545,0.73237
282.8,0.816081,252.573,0.732723
282.7,1.79813,252.469,0.731451
282.6,1.90416,252.504,0.731876
282.5,2.19349,252.643,0.73357
282.4,0.458543,252.463,0.73138
282.3,1.17408,252.715,0.734447
282.2,1.09791,252.725,0.734574
282.1,1.62822,252.27,0.729014
282,1.70214,252.428,0.730947
281.9,1.70321,252.598,0.733027
281.8,1.37773,252.839,0.735959
281.7,2.15804,252.294,0.729313
281.6,0.668391,252.242,0.728678
281.5,2.10299,252.4,0.730607
281.4,1.53829,252.624,0.733342
281.3,2.13823,251.954,0.725152
281.2,1.58936,252.232,0.728553
281.1,0.902657,252.211,0.728302
281,0.933672,252.341,0.729882
280.9,1.57692,252.292,0.729289
280.8,-0.0484485,252.471,0.731478
280.7,2.23823,252.121,0.727198
280.6,1.33016,252.151,0.727565
280.5,1.13345,252.31,0.729505
280.4,0.414227,252.303,0.729424
280.3,1.12941,252.091,0.726824
280.2,1.00526,252.209,0.728273
280.1,2.57179,252.342,0.729903
280,0.222419,252.474,0.731514
279.9,2.61182,252.311,0.729522
279.8,1.28488,252.051,0.726336
279.7,0.938838,252.027,0.726054
279.6,1.50233,252.32,0.729628
279.5,0.857844,252.094,0.726867
279.4,0.150468,252.07,0.726578
279.3,1.50008,251.975,0.725416
279.2,0.802121,252.082,0.726725
279.1,1.63849,252.257,0.728863
279,1.05932,251.678,0.721783
278.9,1.93193,252.207,0.728245
278.8,0.924252,252.11,0.727065
278.7,0.330916,252.059,0.726435
278.6,1.97707,252.198,0.72814
278.5,1.30494,252.055,0.726388
278.4,0.93222,252.557,0.732517
278.3,1.08673,252.052,0.726357
278.2,0.322464,252.142,0.72746
278.1,1.8271,252.21,0.728282
278,0.86422,252.007,0.725808
277.9,1.75538,252.097,0.726899
277.8,0.345944,252.329,0.729742
277.7,1.00954,252.055,0.726395
277.6,1.04302,252.171,0.727807
277.5,1.23921,252.406,0.730673
277.4,1.53209,252.207,0.728251
277.3,2.07437,252.145,0.727485
277.2,2.2502,251.977,0.725441
277.1,1.34806,252.349,0.729979
277,1.82692,251.937,0.72495
276.9,1.13353,252.021,0.725979
276.8,0.520158,252.215,0.728346
276.7,1.72429,252.238,0.728624
276.6,1.04583,251.756,0.722736
276.5,0.743691,251.925,0.724796
276.4,1.25392,252.043,0.726243
276.3,1.4818,251.979,0.72546
276.2,1.81807,251.798,0.723251
276.1,1.31513,252.051,0.726346
276,1.14954,252.027,0.726049
275.9,0.29261,251.919,0.724722
275.8,1.06984,251.779,0.723021
275.7,1.14057,251.861,0.724017
275.6,1.58631,251.671,0.721698
275.5,0.85666,252.079,0.726681
275.4,1.07063,251.899,0.724485
275.3,1.25212,251.825,0.723577
275.2,1.13918,251.588,0.720682
275.1,0.69232,251.804,0.723318
275,1.00389,252.126,0.727264
274.9,1.60792,251.935,0.724923
274.8,1.16509,252.097,0.726909
274.7,0.442421,252.182,0.727942
274.6,1.01479,251.892,0.724393
274.5,1.30518,252.039,0.726196
274.4,2.20964,251.677,0.721766
274.3,0.843934,251.668,0.721653
274.2,0.0879756,252.016,0.725908
274.1,0.948617,251.553,0.720243
274,1.02787,251.909,0.724602
273.9,1.545,251.695,0.721984
273.8,0.75006,252.275,0.729084
273.7,1.57687,252.145,0.727496
273.6,0.119743,251.764,0.722835
273.5,1.84078,252.008,0.725816
273.4,0.534891,252.002,0.725738
273.3,1.00284,251.934,0.724906
273.2,0.767518,252.004,0.725771
273.1,0.792858,251.841,0.723767
273,2.24925,251.744,0.722589
272.9,0.570483,251.839,0.72375
272.8,1.07999,251.967,0.725319
272.7,1.14094,251.853,0.723918
272.6,1.10888,251.654,0.72149
272.5,0.286658,252.18,0.727916
272.4,1.46761,251.697,0.722013
272.3,1.45527,251.919,0.724727
272.2,1.06391,251.621,0.721076
272.1,0.936275,251.638,0.721292
272,1.2739,251.743,0.722573
271.9,0.916373,251.809,0.723379
271.8,0.463721,251.707,0.722137
271.7,1.08111,251.556,0.720288
271.6,1.35218,251.567,0.72042
271.5,1.4666,251.407,0.718465
271.4,1.43704,251.519,0.719836
271.3,0.947852,251.534,0.720018
271.2,0.730558,251.74,0.72254
271.1,1.46435,251.912,0.724637
271,1.71375,251.764,0.722826
270.9,1.01186,251.697,0.72201
270.8,1.9687,251.677,0.721766
270.7,0.205336,251.575,0.720514
270.6,0.465414,251.649,0.721424
270.5,0.410068,251.782,0.723057
270.4,1.36201,252.059,0.72644
270.3,0.0198197,251.535,0.720028
270.2,1.23195,251.472,0.719258
270.1,1.58689,251.786,0.723099
270,1.84147,251.589,0.720692
269.9,-0.410821,252.075,0.726629
269.8,1.04293,251.852,0.723911
269.7,0.536641,251.846,0.72383
269.6,0.561595,251.858,0.723979
269.5,0.407955,251.709,0.722159
269.4,0.875309,251.637,0.721277
269.3,-0.245065,251.738,0.722507
269.2,1.32402,251.997,0.725685
269.1,1.05117,251.601,0.720836
269,0.189737,252.173,0.727828
268.9,1.10496,251.678,0.721785
268.8,0.97448,251.929,0.724845
268.7,0.981232,251.521,0.71986
268.6,0.252773,251.852,0.723909
268.5,1.16762,251.722,0.72232
268.4,1.09889,251.502,0.719629
268.3,1.6672,251.453,0.719018
268.2,0.2181,251.762,0.722802
268.1,0.152849,251.769,0.722896
268,1.05439,251.865,0.72407
267.9,-0.0911044,251.812,0.723421
267.8,0.802863,252.268,0.728988
267.7,0.840328,251.988,0.725569
267.6,1.12709,252.194,0.728095
267.5,-0.0342965,252.267,0.728982
267.4,0.847629,251.365,0.71795
267.3,1.51923,251.727,0.722379
267.2,-0.0497107,251.964,0.725283
267.1,1.58772,251.705,0.722104
267,0.891652,251.844,0.723807
266.9,0.684114,251.762,0.722809
266.8,0.166446,251.75,0.722665
266.7,0.796798,251.541,0.720097
266.6,0.67821,251.718,0.722268
266.5,1.47218,252.142,0.727449
266.4,0.683625,251.926,0.724819
266.3,0.639005,252.21,0.72829
266.2,1.73987,251.982,0.725498
266.1,1.58034,252.143,0.727461
266,1.12723,251.912,0.724644
265.9,1.61187,251.902,0.724514
265.8,0.550459,252.034,0.726135
265.7,-0.491696,251.803,0.723308
265.6,0.341418,252.11,0.727067
265.5,0.638218,251.839,0.723746
265.4,0.696879,252.113,0.727098
265.3,0.684211,252.15,0.727551
265.2,1.70651,252.192,0.72807
265.1,0.841092,252.54,0.732318
265,0.947896,251.66,0.721561
264.9,0.858221,252.293,0.729303
264.8,0.67106,252.244,0.728706
264.7,0.546218,252.037,0.726173
264.6,0.557662,252.162,0.727702
264.5,1.35793,251.646,0.721384
264.4,0.87335,252.8,0.735491
264.3,0.212483,252.142,0.72746
264.2,1.63933,252.365,0.730183
264.1,0.67893,252.284,0.729192
264,1.30325,252.258,0.728872
263.9,0.350827,252.148,0.72753
263.8,1.49439,251.754,0.722705
263.7,1.06253,252.528,0.732168
263.6,0.792227,252.151,0.727563
263.5,1.34885,252.074,0.726623
263.4,-0.768631,252.675,0.733967
263.3,0.530479,252.265,0.728958
263.2,0.588876,252.483,0.731617
263.1,0.526448,252.678,0.733995
263,0.930055,252.409,0.730721
262.9,1.84897,252.425,0.730906
262.8,1.48567,252.608,0.733143
262.7,-0.901513,252.505,0.731892
262.6,0.51958,252.358,0.730093
262.5,0.671016,252.488,0.731677
262.4,1.1337,252.685,0.734085
262.3,0.387298,252.399,0.730588
262.2,0.978623,252.466,0.731409
262.1,0.0785701,252.63,0.733407
262,0.271285,252.73,0.734627
261.9,0.037113,252.748,0.73485
261.8,0.923183,252.705,0.734325
261.7,1.07729,253.021,0.738179
261.6,1.21315,252.743,0.734786
261.5,1.253,252.915,0.736891
261.4,1.2193,252.987,0.737768
261.3,1.51254,252.831,0.735867
261.2,0.54227,252.806,0.735557
261.1,0.997418,252.751,0.734883
261,0.63678,253.099,0.739125
260.9,0.557454,252.745,0.734814
260.8,0.317442,252.648,0.733634
260.7,0.491287,252.815,0.735667
260.6,-0.438715,252.628,0.73339
260.5,1.27065,252.777,0.735209
260.4,0.284957,252.934,0.737118
260.3,0.786413,253.096,0.739096
260.2,1.38418,253.107,0.739225
260.1,2.34215,252.81,0.735607
260,0.412876,253.259,0.741078
259.9,2.34084,253.071,0.738788
259.8,1.25946,253.281,0.741343
259.7,0.512701,253.625,0.745528
259.6,0.472685,253.326,0.741898
259.5,1.05937,252.874,0.736384
259.4,1.6004,253.191,0.740257
259.3,1.00289,252.679,0.734009
259.2,0.641343,253.071,0.73879
259.1,0.980874,253.415,0.742985
259,1.44113,253.436,0.743234
258.9,1.3322,253.246,0.740919
258.8,0.947642,253.192,0.740267
258.7,0.488119,253.147,0.739712
258.6,1.38309,253.208,0.74046
258.5,1.11606,253.087,0.73898
258.4,1.77605,253.534,0.744431
258.3,0.677798,253.111,0.73928
258.2,0.975641,253.187,0.7402
258.1,-0.700378,253.527,0.744336
258,0.586018,253.765,0.747235
257.9,0.741074,253.634,0.74564
257.8,1.25528,253.502,0.744043
257.7,0.453946,253.393,0.742714
257.6,0.031766,254,0.75009
257.5,-0.0395449,253.616,0.745424
257.4,2.07163,253.406,0.742864
257.3,0.416997,253.495,0.743957
257.2,0.774184,253.892,0.748779
257.1,0.354883,253.463,0.743557
257,0.699329,253.593,0.745146
256.9,1.16342,253.66,0.745964
256.8,0.62138,253.764,0.747222
256.7,0.725412,253.778,0.747393
256.6,0.638073,253.931,0.749252
256.5,0.608446,254.084,0.751108
256.4,2.14687,253.828,0.747996
256.3,1.16292,254.053,0.750732
256.2,0.0769777,254.034,0.750504
256.1,-0.0805645,254.087,0.751149
256,2.15097,254.196,0.752477
255.9,0.314536,253.861,0.748409
255.8,1.28884,253.874,0.74856
255.7,0.661575,254.09,0.751189
255.6,1.68663,254.375,0.754639
255.5,0.707225,254.296,0.753682
255.4,1.16529,254.215,0.752707
255.3,0.387815,254.019,0.75032
255.2,0.435459,253.998,0.750067
255.1,1.41852,254.383,0.754742
255,1.55511,254.311,0.753873
254.9,0.630018,254.388,0.754801
254.8,0.290868,254.589,0.757233
254.7,1.77752,254.279,0.753481
254.6,0.197627,254.555,0.756824
254.5,0.942477,254.902,0.761033
254.4,1.2227,254.366,0.754533
254.3,1.31636,254.333,0.754129
254.2,1.5417,254.19,0.752396
254.1,1.90219,254.61,0.757494
254,1.04356,254.357,0.754428
253.9,1.27178,254.68,0.75834
253.8,1.33273,254.615,0.757552
253.7,1.39684,254.8,0.759794
253.6,1.12079,254.743,0.759104
253.5,0.587143,254.521,0.756415
253.4,0.901149,254.387,0.754792
253.3,0.902447,254.42,0.755194
253.2,1.38994,254.504,0.756203
253.1,0.125195,254.594,0.757295
253,0.100925,254.69,0.758467
252.9,1.79214,254.647,0.757944
252.8,1.29355,255.071,0.763075
252.7,0.66825,254.606,0.757444
252.6,0.584657,254.622,0.757645
252.5,0.363295,254.869,0.760638
252.4,1.17364,254.837,0.760242
252.3,0.810123,254.518,0.756374
252.2,0.748456,255.022,0.762484
252.1,1.03765,255.078,0.763158
252,0.139894,255.15,0.764039
251.9,1.58275,254.775,0.759499
251.8,1.76399,254.961,0.761741
251.7,0.584634,255.108,0.763523
251.6,1.547,254.681,0.758359
251.5,0.678495,254.946,0.76157
251.4,0.309998,254.92,0.761251
251.3,1.39561,255,0.762222
251.2,1.56052,254.856,0.760475
251.1,0.730418,254.771,0.759444
251,0.184685,254.951,0.761628
250.9,1.15956,254.979,0.761967
250.8,0.705714,255.017,0.762424
250.7,0.785588,254.738,0.759051
250.6,0.631025,254.903,0.76104
250.5,0.0139022,254.963,0.76177
250.4,-0.416236,254.959,0.761722
250.3,0.348086,255.245,0.765189
250.2,0.741304,255.126,0.763747
250.1,0.250098,254.874,0.760688
250,1.44379,255.018,0.762439
249.9,1.11128,255.229,0.764988
249.8,0.95201,254.894,0.760935
249.7,1.05528,254.875,0.760709
249.6,0.44799,254.949,0.761597
249.5,0.078226,255.147,0.763992
249.4,0.487622,254.843,0.760314
249.3,0.598051,254.963,0.761765
249.2,1.04019,254.852,0.760429
249.1,1.74286,255.087,0.763278
249,1.4822,254.876,0.760719
248.9,1.55891,255.025,0.762518
248.8,1.72622,255.2,0.764637
248.7,0.81628,255.065,0.763007
248.6,1.72049,254.983,0.762017
248.5,0.395274,255.005,0.762285
248.4,0.186953,255.065,0.763
248.3,-0.571748,254.834,0.760213
248.2,0.629358,254.481,0.755931
248.1,1.27875,255.034,0.762624
248,0.917752,255.053,0.762861
247.9,0.716046,255.06,0.762948
247.8,0.301427,254.936,0.761446
247.7,0.806376,254.974,0.761899
247.6,1.38178,254.581,0.757137
247.5,1.15207,254.901,0.761021
247.4,1.30375,255.152,0.764058
247.3,1.79631,255.109,0.76354
247.2,1.58663,255.299,0.765835
247.1,1.16062,255.362,0.766598
247,0.900979,255.497,0.768229
246.9,0.549141,255.408,0.767152
246.8,-0.0877872,255.423,0.767342
246.7,-0.209961,255.465,0.767844
246.6,0.367046,255.606,0.769548
246.5,0.764502,255.585,0.7693
246.4,-0.24455,255.304,0.765896
246.3,0.525725,255.17,0.764272
246.2,0.349377,255.309,0.765956
246.1,0.966391,255.544,0.768794
246,0.63219,255.203,0.764676
245.9,0.0343483,255.411,0.767194
245.8,1.07494,255.303,0.765889
245.7,0.42109,255.584,0.76928
245.6,0.665342,255.309,0.765956
245.5,0.952723,255.215,0.764824
245.4,0.522103,255.408,0.767157
245.3,1.19499,255.277,0.765566
245.2,0.887688,255.393,0.766975
245.1,0.325242,255.561,0.768999
245,-0.147242,255.507,0.768347
244.9,0.0744625,255.383,0.76685
244.8,0.241692,255.47,0.767909
244.7,0.829233,255.602,0.769499
244.6,0.863132,255.503,0.768306
244.5,0.824456,255.375,0.766761
244.4,0.557139,255.514,0.768441
244.3,0.686247,255.792,0.771792
244.2,0.172192,255.742,0.771188
244.1,1.13296,255.794,0.771819
244,0.838501,255.714,0.770854
243.9,1.06754,255.596,0.769429
243.8,0.268491,255.638,0.769939
243.7,-0.907603,255.631,0.769846
243.6,-0.49941,255.432,0.767439
243.5,1.17928,255.354,0.766498
243.4,-0.248256,255.568,0.769085
243.3,0.590834,255.594,0.769406
243.2,0.342188,255.507,0.768357
243.1,0.813435,255.928,0.773433
243,0.688229,255.624,0.769769
242.9,1.42124,255.644,0.770007
242.8,0.213019,256.147,0.776075
242.7,0.28801,255.794,0.771819
242.6,0.523717,255.685,0.7705
242.5,0.114351,255.863,0.77265
242.4,0.579074,255.909,0.773202
242.3,-0.0479082,256.219,0.776952
242.2,-0.173125,255.938,0.773563
242.1,-0.340429,256.107,0.775594
242,2.05395,256.024,0.774596
241.9,0.374972,256.007,0.774394
241.8,0.721477,256.319,0.778149
241.7,0.261045,255.733,0.77108
241.6,0.494135,256.129,0.775864
241.5,-0.217131,256.305,0.77798
241.4,0.505272,256.283,0.777726
241.3,1.42856,256.084,0.77532
241.2,0.51087,256.119,0.775744
241.1,0.294662,255.669,0.770315
241,-0.262903,256.061,0.77504
240.9,1.42163,255.956,0.77377
240.8,0.486345,256.345,0.778472
240.7,1.25017,256.464,0.779904
240.6,0.235816,256.224,0.777011
240.5,1.11495,256.434,0.779544
240.4,0.978035,256.591,0.781435
240.3,-0.0416415,256.626,0.781854
240.2,0.363797,256.454,0.779777
240.1,0.829117,256.67,0.782381
240,0.66047,257.041,0.786845
239.9,0.934772,256.656,0.782211
239.8,0.14787,256.767,0.783551
239.7,0.378095,256.98,0.786116
239.6,1.47427,257.086,0.78739
239.5,-0.318544,256.9,0.785157
239.4,-1.59987,256.981,0.786132
239.3,-0.216246,257.457,0.79185
239.2,0.133468,256.744,0.783278
239.1,-0.256179,256.855,0.784613
239,-0.262193,256.772,0.783613
238.9,0.543427,257.157,0.788245
238.8,0.935838,257.097,0.787525
238.7,0.38869,258.026,0.798683
238.6,-0.563271,257.149,0.788143
238.5,-0.488214,257.313,0.79012
238.4,0.619707,257.744,0.795299
238.3,-0.27923,257.413,0.791321
238.2,0.451337,257.837,0.796416
238.1,0.255332,257.873,0.796844
238,0.657114,257.724,0.795049
237.9,0.543717,257.873,0.796842
237.8,-0.302062,258.31,0.802081
237.7,0.0817154,258.097,0.799529
237.6,0.359688,258.122,0.799824
237.5,0.30606,257.836,0.7964
237.4,0.661563,258.256,0.801433
237.3,0.108471,257.779,0.795717
237.2,0.900725,258.313,0.802122
237.1,0.769001,258.123,0.799845
237,-0.870061,258.283,0.801762
236.9,-0.362615,258.459,0.803871
236.8,-0.750478,258.318,0.802173
236.7,-0.742026,258.217,0.800972
236.6,0.422616,258.754,0.807391
236.5,-0.508918,258.631,0.805922
236.4,0.721835,258.711,0.806887
236.3,0.877334,258.929,0.809488
236.2,-0.146523,258.807,0.808025
236.1,0.769055,258.925,0.809441
236,-0.710609,258.647,0.806117
235.9,-0.776226,258.775,0.807651
235.8,0.0962973,259.171,0.812384
235.7,-0.0420441,258.951,0.809751
235.6,0.22591,259.183,0.812526
235.5,0.130133,259.323,0.814196
235.4,-0.74132,259.327,0.814242
235.3,-0.627268,259.18,0.812486
235.2,0.0637643,259.271,0.81357
235.1,0.11616,259.525,0.816608
235,-0.0560662,259.782,0.819676
234.9,-1.87511,259.533,0.816708
234.8,-0.985357,259.346,0.814471
234.7,-0.634549,259.82,0.820127
234.6,-0.912874,259.842,0.820382
234.5,-1.26248,260.082,0.823246
234.4,-0.775519,259.992,0.822178
234.3,-0.139118,259.961,0.821811
234.2,-0.678513,259.931,0.821452
234.1,0.581846,260.207,0.824733
234,-1.03085,260.126,0.823771
233.9,-0.162507,260.203,0.824688
233.8,0.0572882,260.217,0.82485
233.7,0.531932,260.355,0.826502
233.6,-0.455006,260.397,0.826994
233.5,-0.00407519,260.667,0.830203
233.4,-0.782403,260.749,0.831185
233.3,-0.90851,260.798,0.831769
233.2,-0.761174,260.825,0.832092
233.1,-2.00248,260.787,0.831634
233,-1.13807,260.787,0.831631
232.9,-2.00326,260.948,0.833553
232.8,-1.37572,261.29,0.837605
232.7,-2.04916,261.116,0.835546
232.6,-0.931456,261.312,0.837874
232.5,-1.50714,261.329,0.83807
232.4,-1.42068,261.529,0.840441
232.3,-2.65293,261.367,0.838524
232.2,-1.21809,261.291,0.83762
232.1,-0.204543,261.572,0.840958
232,-1.00311,261.639,0.841745
231.9,-2.22195,261.89,0.844719
231.8,0.07313,261.791,0.843546
231.7,-2.08418,262.049,0.846599
231.6,-1.1234,262.401,0.850769
231.5,-1.46941,262.046,0.846567
231.4,-0.264267,262.141,0.847691
231.3,-1.49899,262.156,0.847874
231.2,-1.17442,262.409,0.850858
231.1,-2.42571,262.375,0.850454
231,-0.53589,262.651,0.853725
230.9,-0.984689,262.685,0.854125
230.8,-1.76031,262.401,0.850767
230.7,-0.676406,262.278,0.849312
230.6,0.0478474,262.457,0.851432
230.5,-1.63621,262.438,0.851203
230.4,-1.01941,262.509,0.85205
230.3,-1.41076,262.565,0.852703
230.2,-2.46618,262.282,0.849355
230.1,-1.17988,262.58,0.852887
230,-1.83819,262.319,0.849801
229.9,-1.23933,262.575,0.852827
229.8,-1.59038,262.332,0.849953
229.7,-1.40848,262.419,0.850978
229.6,-2.49299,262.569,0.852751
229.5,-1.75361,262.599,0.853106
229.4,-1.28698,262.267,0.849183
229.3,-1.84046,262.768,0.855106
229.2,-1.9886,263.191,0.860102
229.1,-2.45477,263.26,0.860912
229,-1.0473,263.394,0.862486
228.9,-1.90258,263.337,0.861818
228.8,-2.90372,263.564,0.864487
228.7,-1.93639,263.817,0.867478
228.6,-0.917002,263.657,0.86559
228.5,-1.10726,263.89,0.86833
228.4,-2.77079,264.119,0.871026
228.3,-2.64332,264.267,0.872766
228.2,-2.28186,264.328,0.873487
228.1,-2.6214,264.415,0.87451
228,-2.45074,264.613,0.876829
227.9,-0.756997,264.565,0.876272
227.8,-2.12441,264.788,0.878882
227.7,-1.76029,264.811,0.879158
227.6,-2.55432,265.096,0.882502
227.5,-2.21702,265.108,0.882634
227.4,-1.52395,265.111,0.882677
227.3,-1.72345,265.28,0.884659
227.2,-2.01118,265.437,0.886495
227.1,-2.02264,265.461,0.886779
227,-1.69758,265.49,0.887109
226.9,-2.78725,265.504,0.887276
226.8,-2.54668,265.485,0.887059
226.7,-1.83576,265.834,0.891138
226.6,-2.12293,265.458,0.886741
226.5,-1.70125,265.655,0.889041
226.4,-3.09229,265.74,0.890037
226.3,-0.908045,266.022,0.893333
226.2,-1.64268,265.9,0.891907
226.1,-1.40394,266.123,0.894517
226,-3.12769,266.328,0.896914
225.9,-2.84459,266.471,0.898585
225.8,-2.30953,266.521,0.899171
225.7,-1.62295,266.574,0.899785
225.6,-2.62417,266.703,0.90129
225.5,-2.80999,266.948,0.904146
225.4,-3.21491,266.712,0.901392
225.3,-2.21908,266.776,0.902146
225.2,-1.94999,266.87,0.903233
225.1,-2.48499,267.033,0.905143
225,-3.40696,267.21,0.9072
224.9,-3.18801,267.183,0.906882
224.8,-2.27079,267.215,0.907256
224.7,-1.70919,267.631,0.9121
224.6,-2.87158,267.702,0.912926
224.5,-1.91396,267.216,0.907266
224.4,-2.2907,267.696,0.912861
224.3,-2.58133,267.584,0.911558
224.2,-3.1891,268.004,0.916436
224.1,-2.15661,267.523,0.910847
224,-2.08613,268.183,0.918511
223.9,-1.85666,267.91,0.915344
223.8,-3.2721,268.096,0.917506
223.7,-1.77111,268.095,0.917489
223.6,-1.62015,268.142,0.918041
223.5,-3.82275,268.123,0.917823
223.4,-3.43503,268.445,0.921554
223.3,-2.73789,268.448,0.921595
223.2,-1.9323,268.55,0.92277
223.1,-2.86558,268.501,0.922201
223,-2.83245,268.859,0.926359
222.9,-3.11316,268.875,0.926544
222.8,-3.1583,269.088,0.929004
222.7,-2.33847,269.289,0.931333
222.6,-2.05363,269.766,0.936853
222.5,-2.36881,269.453,0.933239
222.4,-2.70883,269.674,0.935787
222.3,-2.88568,269.091,0.929045
222.2,-0.760629,269.467,0.933398
222.1,-2.86576,269.788,0.937108
222,-3.19355,269.663,0.935661
221.9,-3.41216,269.671,0.935756
221.8,-4.18734,269.765,0.936838
221.7,-3.76569,269.956,0.939047
221.6,-2.88696,269.577,0.934667
221.5,-3.11933,269.817,0.937447
221.4,-2.46358,269.492,0.933683
221.3,-2.06673,270.072,0.940386
221.2,-2.88309,270.267,0.94264
221.1,-2.4781,270.147,0.941246
221,-2.56448,270.096,0.940658
220.9,-2.51414,270.251,0.942447
220.8,-2.39837,270.585,0.946307
220.7,-2.93463,270.645,0.946989
220.6,-2.64011,270.631,0.946839
220.5,-3.20707,270.859,0.949466
220.4,-3.20974,270.842,0.949265
220.3,-2.83873,271.202,0.953413
220.2,-2.02554,270.888,0.949797
220.1,-2.94233,271.034,0.95148
220,-2.90682,270.94,0.950391
219.9,-2.34638,271.019,0.951305
219.8,-1.42942,271.066,0.951849
219.7,-3.30999,271.127,0.952541
219.6,-2.93613,271.064,0.951821
219.5,-2.35676,271.244,0.953897
219.4,-2.16713,271.449,0.956247
219.3,-3.49536,271.478,0.956578
219.2,-1.37902,270.78,0.948554
219.1,-1.16051,271.541,0.957307
219,-1.52836,271.854,0.960906
218.9,-3.44052,271.733,0.959508
218.8,-1.70246,271.802,0.960307
218.7,-2.57876,272.094,0.963656
218.6,-1.89217,271.501,0.956851
218.5,-1.61038,272.059,0.963255
218.4,-3.49141,272.068,0.963364
218.3,-3.66086,272.255,0.965502
218.2,-2.45876,272.359,0.966695
218.1,-0.734803,272.188,0.964735
218,-2.15751,272.227,0.965185
217.9,-2.41475,272.752,0.971195
217.8,-3.14415,272.501,0.968318
217.7,-1.84849,272.715,0.97077
217.6,-4.20718,272.962,0.973599
217.5,-2.84958,272.456,0.967802
217.4,-2.77754,272.783,0.971556
217.3,-3.5227,272.927,0.973202
217.2,-3.48911,272.902,0.972918
217.1,-2.77801,273.275,0.977182
217,-2.31965,273.447,0.979147
216.9,-2.97792,273.322,0.977715
216.8,-2.73371,273.723,0.982302
216.7,-4.0623,273.612,0.981035
216.6,-3.05716,273.588,0.980754
216.5,-2.48054,273.778,0.982922
216.4,-2.18773,273.552,0.980346
216.3,-3.43769,274.035,0.985859
216.2,-1.77254,273.78,0.982948
216.1,-2.44246,273.714,0.982195
216,-2.32675,274.319,0.989095
215.9,-2.42656,274.092,0.986507
215.8,-2.60896,274.32,0.989112
215.7,-2.32472,274.113,0.98675
215.6,-1.10622,274.187,0.987593
215.5,-1.94917,273.935,0.984725
215.4,-1.76923,274.456,0.990658
215.3,-2.64683,274.28,0.988654
215.2,-3.22702,274.493,0.991075
215.1,-1.80385,274.801,0.994583
215,-1.72388,274.631,0.99265
214.9,-2.11173,274.658,0.992963
214.8,-1.82468,275.081,0.997774
214.7,-2.60421,274.915,0.995879
214.6,-2.18771,275.013,0.997001
214.5,-3.41731,274.888,0.995571
214.4,-2.79864,275.197,0.999085
214.3,-2.14793,274.984,0.996673
214.2,-1.98659,275.055,0.997476
214.1,-4.04765,275.303,1.00029
214,-2.82641,275.386,1.00124
213.9,-3.12191,275.704,1.00485
213.8,-2.61822,275.576,1.00339
213.7,-1.47698,275.72,1.00503
213.6,-1.82917,275.6,1.00366
213.5,-1.97023,275.772,1.00562
213.4,-3.10211,275.872,1.00675
213.3,-1.70595,275.965,1.0078
213.2,-3.26461,275.748,1.00535
213.1,-2.76626,275.809,1.00604
213,-2.40816,276.242,1.01095
212.9,-1.93779,275.988,1.00807
212.8,-2.99323,276.146,1.00985
212.7,-3.01414,276.053,1.0088
212.6,-2.04912,275.939,1.00752
212.5,-2.0149,276.229,1.0108
212.4,-1.51461,276.555,1.01449
212.3,-1.43499,276.795,1.01721
212.2,-2.62085,276.52,1.0141
212.1,-1.89974,276.754,1.01674
212,-3.36636,276.986,1.01936
211.9,-1.79343,276.903,1.01843
211.8,-3.26079,276.915,1.01857
211.7,-3.56305,277.073,1.02035
211.6,-2.58102,277.184,1.0216
211.5,-2.6604,277.446,1.02457
211.4,-2.46441,277.649,1.02685
211.3,-1.83482,277.319,1.02313
211.2,-2.79527,277.69,1.02732
211.1,-2.24899,277.788,1.02842
211,-2.77935,277.926,1.02998
210.9,-2.86046,277.917,1.02988
210.8,-2.62733,278.204,1.03311
210.7,-2.34156,278.395,1.03527
210.6,-2.04255,278.074,1.03164
210.5,-0.867146,278.267,1.03382
210.4,-2.93932,278.569,1.03722
210.3,-2.45676,278.427,1.03563
210.2,-2.5502,278.329,1.03452
210.1,-1.95365,278.921,1.04118
210,-1.49557,278.884,1.04076
209.9,-4.21197,279.454,1.04716
209.8,-2.52262,279.136,1.04359
209.7,-2.95164,279.224,1.04459
209.6,-2.45219,279.172,1.044
209.5,-1.14949,279.784,1.05086
209.4,-3.19868,279.636,1.04921
209.3,-2.25023,279.816,1.05122
209.2,-1.94064,280.108,1.05449
209.1,-2.51275,280.079,1.05417
209,-1.43349,280.266,1.05627
208.9,-4.41763,280.304,1.05669
208.8,-2.62828,280.677,1.06087
208.7,-2.21109,280.465,1.05849
208.6,-2.15995,280.443,1.05825
208.5,-1.35185,280.669,1.06078
208.4,-3.01027,281.076,1.06532
208.3,-3.23673,281.023,1.06473
208.2,-1.45076,280.96,1.06403
208.1,-1.61089,281.229,1.06703
208,-2.02342,282.031,1.07597
207.9,-0.817193,281.42,1.06916
207.8,-1.93132,281.572,1.07086
207.7,-3.36883,281.967,1.07525
207.6,-3.1136,282.212,1.07799
207.5,-1.11613,282.388,1.07994
207.4,-2.02056,282.527,1.08149
207.3,-1.06987,282.522,1.08143
207.2,-3.01179,282.416,1.08026
207.1,-2.33219,282.703,1.08345
207,-1.34666,283.074,1.08757
206.9,-1.82371,282.859,1.08518
206.8,-1.4245,283.25,1.08953
206.7,-0.880974,283.196,1.08892
206.6,-1.35371,283.096,1.08781
206.5,-1.44653,283.168,1.08861
206.4,-1.73792,283.081,1.08764
206.3,-1.58824,283.886,1.09657
206.2,-1.88133,284.206,1.10011
206.1,-1.49366,283.775,1.09535
206,-1.31489,283.876,1.09646
205.9,-0.893565,284.549,1.10391
205.8,-1.91683,284.434,1.10263
205.7,-2.33332,284.544,1.10385
205.6,-0.880378,284.718,1.10578
205.5,-0.274376,285.176,1.11084
205.4,-1.83962,285.486,1.11426
205.3,-0.647767,285.617,1.11569
205.2,0.408423,285.799,1.1177
205.1,-0.988077,286.008,1.12
205,-2.35326,286.334,1.12359
204.9,-1.80078,286.305,1.12327
204.8,-0.105407,286.273,1.12292
204.7,-1.0799,286.624,1.12677
204.6,0.429433,286.775,1.12844
204.5,-2.89108,286.917,1.12999
204.4,-0.204971,287.409,1.13539
204.3,-0.775304,287.93,1.1411
204.2,0.229192,287.767,1.13932
204.1,0.963018,287.946,1.14128
204,0.314776,288.317,1.14534
203.9,-0.209465,288.579,1.1482
203.8,0.336039,288.879,1.15147
203.7,0.417571,288.866,1.15134
203.6,0.640345,289.274,1.15578
203.5,1.38523,289.333,1.15642
203.4,0.737023,289.396,1.15711
203.3,0.662375,289.23,1.1553
203.2,1.09875,289.976,1.16343
203.1,2.08011,290.043,1.16416
203,-0.205222,290.301,1.16696
202.9,0.311249,290.401,1.16805
202.8,1.42443,290.771,1.17206
202.7,0.315668,290.764,1.17199
202.6,2.67457,290.796,1.17234
202.5,3.32068,291.399,1.17888
202.4,1.71131,291.582,1.18086
202.3,1.48477,291.249,1.17726
202.2,3.05116,291.892,1.18423
202.1,1.52372,292.301,1.18864
202,2.40159,292.754,1.19354
201.9,0.705437,292.987,1.19605
201.8,1.86498,293.28,1.19922
201.7,1.2767,293.578,1.20243
201.6,1.7705,293.415,1.20067
201.5,3.01756,294.56,1.21299
201.4,3.86806,294.247,1.20963
201.3,3.42285,294.693,1.21442
201.2,4.08534,294.93,1.21695
201.1,2.40828,295.228,1.22015
201,3.23624,295.518,1.22326
200.9,4.30344,295.632,1.22449
200.8,1.91708,295.605,1.22419
200.7,2.70902,296.127,1.22977
200.6,2.95586,296.215,1.23071
200.5,5.4291,296.29,1.23152
200.4,4.35243,296.733,1.23625
200.3,1.86231,297.483,1.24425
200.2,4.32426,297.351,1.24284
200.1,4.64229,297.67,1.24625
200,3.26416,298.366,1.25364
199.9,3.81074,298.395,1.25395
199.8,3.60094,298.683,1.25701
199.7,5.91357,298.526,1.25535
199.6,5.21958,299.07,1.26111
199.5,4.41061,299.091,1.26134
199.4,5.19908,299.395,1.26456
199.3,4.11284,299.669,1.26746
199.2,7.07148,299.424,1.26487
199.1,6.02684,300.283,1.27396
199,4.91462,300.603,1.27734
198.9,6.15529,300.704,1.2784
198.8,6.39955,301.205,1.28369
198.7,6.12932,301.232,1.28398
198.6,6.95884,301.667,1.28856
198.5,9.15732,301.301,1.2847
198.4,7.12751,301.609,1.28795
198.3,7.63223,302.071,1.29282
198.2,5.95999,302.133,1.29346
198.1,5.30947,302.477,1.29708
198,7.47507,302.811,1.30059
197.9,8.47247,303.105,1.30367
197.8,9.28707,303.366,1.30641
197.7,7.77025,303.633,1.3092
197.6,8.07649,303.924,1.31225
197.5,7.57309,304.188,1.31502
197.4,6.78875,304.15,1.31462
197.3,8.08928,304.894,1.32239
197.2,11.6165,305.079,1.32432
197.1,9.43649,304.839,1.32181
197,9.07037,305.623,1.32999
196.9,8.59531,306.018,1.3341
196.8,7.569,306.342,1.33747
196.7,9.79788,306.617,1.34033
196.6,9.34765,306.59,1.34005
196.5,8.84671,307.305,1.34747
196.4,9.06738,307.625,1.35078
196.3,9.75694,308.126,1.35597
196.2,8.2423,308.2,1.35674
196.1,9.82914,308.415,1.35896
196,12.0497,309.014,1.36514
195.9,10.7548,309.117,1.36621
195.8,9.60025,309.842,1.37368
195.7,9.70097,310.046,1.37578
195.6,9.96076,310.379,1.3792
195.5,9.73535,310.471,1.38015
195.4,10.0679,311.609,1.39183
195.3,10.5275,311.527,1.39099
195.2,8.88385,312.112,1.39698
195.1,9.67046,312.33,1.39921
195,8.52269,313.068,1.40675
194.9,10.5877,312.964,1.40569
194.8,10.7765,313.314,1.40927
194.7,10.4351,313.725,1.41346
194.6,10.0069,314.21,1.4184
194.5,10.6712,314.329,1.4196
194.4,10.0624,315.213,1.42859
194.3,9.95382,314.843,1.42484
194.2,9.70226,316.007,1.43664
194.1,10.3086,316.47,1.44133
194,10.2804,317.057,1.44726
193.9,10.6262,318.444,1.46125
193.8,12.4527,318.801,1.46484
193.7,10.1282,319.481,1.47167
193.6,12.1381,320.067,1.47755
193.5,12.4114,320.759,1.48447
193.4,11.0966,321.117,1.48805
193.3,10.2221,321.69,1.49378
193.2,10.9742,322.32,1.50006
193.1,11.3875,323.125,1.50807
193,10.722,323.362,1.51043
192.9,10.2996,324.627,1.52297
192.8,10.6823,325.133,1.52799
192.7,10.4498,326.285,1.53936
192.6,9.51043,327.015,1.54655
192.5,10.7918,328.494,1.56108
192.4,11.215,329.019,1.56623
192.3,9.29353,329.85,1.57435
192.2,10.8613,330.348,1.57922
192.1,10.3296,331.171,1.58725
192,10.3799,331.747,1.59285
191.9,10.4892,333.15,1.60647
191.8,11.1037,334.033,1.61502
191.7,10.6923,334.316,1.61776
191.6,8.72215,335.904,1.63307
191.5,9.28606,336.676,1.6405
191.4,10.2705,337.743,1.65074
191.3,11.3564,339.013,1.66288
191.2,8.35357,340.31,1.67525
191.1,9.9395,341.878,1.69015
191,10.5235,343.831,1.70863
190.9,10.5672,345.545,1.72478
190.8,6.32706,347.315,1.74138
190.7,12.6608,348.915,1.75633
190.6,7.66089,350.23,1.76857
190.5,8.23676,351.93,1.78434
190.4,7.38387,352.812,1.79249
190.3,10.8405,354.406,1.80719
190.2,12.2755,356.015,1.82197
190.1,10.0435,356.465,1.82609
190,13.319,358.471,1.84442
,,,
##### Extended Information,,,
[Comments],,,
Sample name,class,,
Comment,,,
User,,,
Division,,,
Company,Saint Mary's College,,
,,,
[Detailed Information],,,
Creation date,9/29/2021 16:41,,
,,,
Data array type,Linear data array * 3,,
Horizontal axis,Wavelength [nm],,
Vertical axis(1),CD [mdeg],,
Vertical axis(2),HT [V],,
Vertical axis(3),Abs,,
Start,290 nm,,
End,190 nm,,
Data interval,0.1 nm,,
Data points,1001,,
,,,
[Measurement Information],,,
Instrument name,J-1500,,
Model name,J-1500,,
Serial No.,B051061638,,
,,,
Detector,PM-539,,
Detector S/N,B051061638,,
  Lock-in amp.,X mode,,
  HT volt,Auto,,
,,,
Accessory,PTC-517,,
Accessory S/N,B026561646,,
  Temperature,22.75 C,,
  Control sensor,Holder,,
  Monitor sensor,Holder,,
,,,
Measurement date,9/29/2021 16:40,,
,,,
CD Overload detect,804,,
Photometric mode,CD, HT, Abs
Measure range,290 - 190 nm,,
Data pitch,0.1 nm,,
CD scale,20 mdeg/0.05 dOD,,
FL scale,20 mdeg/0.05 dOD,,
D.I.T.,64 msec,,
Bandwidth,1.00 nm,,
Start mode,Immediately,,
Scanning mode,Continuous,,
Scanning speed,50 nm/min,,
Baseline correction,None,,
Shutter control,Auto,,
No. of cycle,1-Jan,,
N2 Flowmeter,Manual,,
