TITLE,class,,
DATA TYPE,,,
ORIGIN,JASCO,,
OWNER,,,
DATE,21/09/29,,
TIME,18:01:20,,
SPECTROMETER/DATA SYSTEM,,,
LOCALE,1033,,
RESOLUTION,,,
DELTAX,-0.1,,
XUNITS,NANOMETERS,,
YUNITS,CD [mdeg],,
Y2UNITS,HT [V],,
Y3UNITS,ABSORBANCE,,
FIRSTX,290,,
LASTX,190,,
NPOINTS,1001,,
FIRSTY,1.16991,,
MAXY,12.92791,,
MINY,-3.37221,,
XYDATA,,,
290,1.16991,253.512,0.744158
289.9,2.34422,253.434,0.74321
289.8,1.10388,254.041,0.750594
289.7,1.51888,253.788,0.74751
289.6,1.43457,254.092,0.751213
289.5,2.34017,253.846,0.748226
289.4,1.06869,254.089,0.751168
289.3,1.43276,253.682,0.746227
289.2,2.0143,253.88,0.748629
289.1,1.04108,253.794,0.747588
289,-0.135575,253.858,0.748371
288.9,1.13201,254.078,0.751041
288.8,0.798059,253.941,0.749379
288.7,1.12029,253.955,0.749548
288.6,0.935452,253.541,0.744517
288.5,0.930107,253.839,0.748135
288.4,1.51268,253.843,0.748187
288.3,1.16904,253.627,0.745562
288.2,2.25536,253.624,0.745521
288.1,0.11287,253.808,0.747763
288,1.74555,254.053,0.750738
287.9,1.19809,253.488,0.743867
287.8,-0.0819581,253.62,0.745467
287.7,1.07832,253.676,0.746158
287.6,1.99777,253.622,0.745502
287.5,2.74266,253.659,0.745941
287.4,0.12245,253.858,0.74836
287.3,2.75605,253.595,0.74517
287.2,1.54652,253.426,0.743117
287.1,2.35837,253.535,0.744444
287,2.34555,253.905,0.748934
286.9,0.865314,253.59,0.745109
286.8,0.818291,253.652,0.745867
286.7,0.569161,253.734,0.746854
286.6,2.79732,253.368,0.742402
286.5,1.36385,253.534,0.744422
286.4,2.21902,253.687,0.746286
286.3,1.01838,253.581,0.744996
286.2,1.43324,253.544,0.744549
286.1,1.06942,253.463,0.743567
286,1.42119,253.558,0.744722
285.9,1.17483,253.686,0.746279
285.8,1.34631,253.371,0.742447
285.7,1.50256,253.433,0.743204
285.6,1.54486,253.568,0.744837
285.5,1.60724,253.475,0.743712
285.4,1.25709,253.261,0.741105
285.3,1.16244,253.481,0.743781
285.2,0.430933,253.742,0.746954
285.1,0.956877,253.429,0.743152
285,1.70552,253.479,0.743752
284.9,1.07495,253.395,0.742735
284.8,1.15916,253.216,0.74056
284.7,0.962927,253.832,0.748049
284.6,1.20796,253.248,0.740941
284.5,0.797187,253.518,0.744236
284.4,1.36878,253.605,0.745294
284.3,2.23645,253.115,0.73932
284.2,2.56094,253.518,0.744227
284.1,0.739938,253.399,0.742783
284,1.34249,253.389,0.742661
283.9,0.887758,253.362,0.742335
283.8,1.26814,253.532,0.744401
283.7,1.42624,253.398,0.742778
283.6,1.64486,253.486,0.743839
283.5,1.21567,252.952,0.737337
283.4,0.565602,253.277,0.741302
283.3,0.732671,253.139,0.739618
283.2,0.280872,253.064,0.7387
283.1,1.15973,253.444,0.743331
283,2.4858,253.439,0.743276
282.9,2.08857,253.112,0.739292
282.8,1.3624,253.385,0.742614
282.7,2.25314,252.809,0.735591
282.6,0.524502,252.924,0.736995
282.5,0.706582,253.21,0.740479
282.4,0.45821,252.962,0.737458
282.3,1.44672,253.126,0.739458
282.2,1.10136,253.31,0.741704
282.1,1.01467,253.011,0.73806
282,1.38811,252.963,0.737468
281.9,2.49146,253.174,0.740044
281.8,2.3366,253.106,0.739213
281.7,1.30088,253.414,0.742967
281.6,1.5874,253.129,0.739499
281.5,2.0831,252.982,0.737708
281.4,1.22077,253.005,0.737982
281.3,-0.0682179,252.876,0.736415
281.2,1.62282,253.107,0.739223
281.1,1.20385,252.849,0.736087
281,1.3894,253.164,0.739917
280.9,1.09359,252.834,0.735895
280.8,1.75143,252.955,0.737378
280.7,1.45128,253.264,0.741143
280.6,1.46745,253.01,0.738041
280.5,1.3633,252.636,0.733489
280.4,1.06913,252.741,0.734762
280.3,2.19231,252.9,0.736708
280.2,2.1996,253.333,0.741983
280.1,0.885456,253.514,0.744187
280,2.2596,253.045,0.738467
279.9,1.94218,252.785,0.735304
279.8,1.27416,252.588,0.732899
279.7,1.44154,252.812,0.735634
279.6,0.222415,252.855,0.736152
279.5,2.10737,252.428,0.730951
279.4,0.679112,252.91,0.736822
279.3,0.72228,252.881,0.736479
279.2,1.85586,253.422,0.743059
279.1,1.16182,253.367,0.74239
279,1.50366,252.773,0.735154
278.9,2.31464,252.489,0.731687
278.8,1.04303,252.881,0.73647
278.7,1.27771,252.596,0.732998
278.6,1.73096,252.8,0.73548
278.5,1.88691,252.984,0.737729
278.4,0.866297,252.658,0.733751
278.3,1.0931,252.846,0.736052
278.2,1.9064,252.656,0.73373
278.1,1.7445,252.916,0.736896
278,1.05455,253.01,0.738044
277.9,1.77461,253.128,0.739484
277.8,1.55427,252.675,0.733964
277.7,0.526395,252.839,0.735957
277.6,0.421401,252.531,0.732204
277.5,1.30568,252.999,0.737906
277.4,1.0947,252.71,0.734392
277.3,1.48682,252.575,0.732739
277.2,1.65135,252.564,0.732604
277.1,0.881131,252.748,0.734857
277,-0.210686,252.64,0.73353
276.9,1.29996,252.957,0.737401
276.8,0.896258,252.618,0.73326
276.7,1.38041,252.411,0.730745
276.6,2.21195,252.822,0.73575
276.5,0.809338,252.504,0.731876
276.4,1.0366,252.68,0.734017
276.3,0.280459,252.595,0.732982
276.2,1.50898,252.39,0.730485
276.1,1.62566,252.884,0.736505
276,0.437899,252.608,0.733145
275.9,0.834624,252.125,0.727248
275.8,1.29744,252.423,0.730882
275.7,1.27642,253.101,0.739161
275.6,0.620849,252.881,0.736475
275.5,0.27716,252.182,0.727941
275.4,0.717658,253.039,0.738395
275.3,1.41847,252.429,0.730959
275.2,1.77453,252.635,0.73347
275.1,0.747627,252.282,0.729164
275,1.0227,252.389,0.730472
274.9,0.73949,252.564,0.732607
274.8,1.25314,252.682,0.73405
274.7,-0.0259489,252.529,0.732185
274.6,0.934925,252.341,0.729886
274.5,0.810817,252.301,0.729393
274.4,1.36622,252.507,0.731909
274.3,0.232938,252.4,0.730601
274.2,0.146248,252.481,0.731592
274.1,1.8731,252.284,0.729185
274,1.94638,252.37,0.730237
273.9,1.96622,252.576,0.732758
273.8,0.155408,252.48,0.731587
273.7,0.931921,252.634,0.733461
273.6,1.19828,252.079,0.726682
273.5,0.851563,252.274,0.729067
273.4,0.947026,252.628,0.733393
273.3,0.557914,252.103,0.726975
273.2,1.35582,252.531,0.732201
273.1,1.21672,252.147,0.727511
273,0.514051,252.347,0.729955
272.9,1.04269,252.578,0.732783
272.8,0.714641,252.493,0.731738
272.7,1.55423,252.427,0.730937
272.6,0.991735,252.222,0.728435
272.5,0.254897,252.067,0.726531
272.4,1.73755,252.371,0.730249
272.3,0.915254,252.365,0.730178
272.2,1.20588,252.312,0.729529
272.1,1.40909,252.343,0.729912
272,1.69714,252.438,0.73107
271.9,0.977111,252.349,0.729984
271.8,0.258563,252.131,0.727314
271.7,0.681864,252.579,0.732794
271.6,1.91926,251.986,0.725544
271.5,0.812789,252.512,0.731971
271.4,1.9168,252.381,0.73037
271.3,0.104839,252.125,0.727247
271.2,1.10602,252.313,0.72954
271.1,1.13622,252.169,0.727785
271,1.28697,252.348,0.72997
270.9,0.523729,252.392,0.730508
270.8,-0.874285,252.092,0.726845
270.7,0.900798,252.13,0.727302
270.6,0.628672,252.314,0.729553
270.5,1.05745,252.303,0.72942
270.4,1.24754,252.368,0.730212
270.3,-0.325317,252.406,0.730681
270.2,1.30293,252.41,0.73073
270.1,0.146756,252.545,0.732376
270,0.172125,252.491,0.731715
269.9,1.14786,252.446,0.731164
269.8,0.887967,252.228,0.728503
269.7,0.745538,252.378,0.730339
269.6,0.485709,252.708,0.73437
269.5,0.0505047,252.23,0.728534
269.4,0.818497,252.69,0.73415
269.3,0.956558,252.508,0.731919
269.2,0.625099,252.525,0.732135
269.1,0.900387,252.508,0.731921
269,1.53935,252.626,0.733368
268.9,1.28763,252.789,0.735349
268.8,0.718211,252.412,0.73075
268.7,1.66852,252.526,0.732145
268.6,0.874357,252.319,0.729616
268.5,0.862566,252.405,0.730662
268.4,0.518152,252.464,0.731388
268.3,0.0659235,252.749,0.734866
268.2,1.89632,252.798,0.735458
268.1,0.910992,252.384,0.730404
268,1.17032,252.524,0.732123
267.9,0.221301,252.591,0.732934
267.8,1.02321,252.66,0.733774
267.7,0.378195,252.226,0.728476
267.6,0.299285,252.201,0.728171
267.5,0.490767,252.979,0.737663
267.4,0.691072,252.62,0.733297
267.3,-0.0582844,252.532,0.732217
267.2,0.526008,252.667,0.733862
267.1,0.628489,252.333,0.729783
267,0.681849,252.139,0.727416
266.9,1.42666,252.666,0.733846
266.8,1.84029,252.437,0.731053
266.7,0.448558,252.999,0.737906
266.6,-0.138193,252.744,0.734805
266.5,1.2252,252.725,0.734572
266.4,0.831007,253.001,0.737931
266.3,1.41442,252.69,0.734147
266.2,0.349671,252.598,0.73302
266.1,0.282162,252.428,0.730942
266,0.814642,252.822,0.735755
265.9,0.980673,252.505,0.731888
265.8,0.0329968,252.338,0.729851
265.7,0.640407,252.635,0.733476
265.6,2.08931,252.862,0.73624
265.5,1.39011,253.096,0.739097
265.4,0.569896,252.655,0.733715
265.3,1.45775,252.989,0.737793
265.2,0.519047,252.535,0.732248
265.1,1.28136,252.593,0.732958
265,1.36865,252.503,0.73186
264.9,0.51157,252.856,0.736166
264.8,-0.857078,252.683,0.734057
264.7,0.848027,252.793,0.735403
264.6,1.16477,252.793,0.735405
264.5,0.987097,252.978,0.737651
264.4,0.793154,253.006,0.738003
264.3,0.438854,252.931,0.737086
264.2,0.616239,252.943,0.737228
264.1,1.0582,252.904,0.736755
264,1.93791,252.976,0.737632
263.9,0.32837,253.377,0.74251
263.8,0.79815,252.992,0.737829
263.7,0.243449,253.098,0.739114
263.6,0.537545,252.837,0.735943
263.5,0.38865,252.974,0.737604
263.4,1.24024,253.288,0.741438
263.3,0.646338,252.852,0.736119
263.2,1.77722,253.348,0.742166
263.1,2.01976,253.096,0.73909
263,0.0273785,253.11,0.739265
262.9,0.141486,252.828,0.735823
262.8,2.35451,253.311,0.741717
262.7,1.48149,253.333,0.741985
262.6,1.28798,253.253,0.74101
262.5,1.39588,253.512,0.744158
262.4,0.709955,253.163,0.739912
262.3,1.11095,253.577,0.744946
262.2,0.969196,253.199,0.740351
262.1,0.282527,253.291,0.741466
262,0.722395,252.994,0.737848
261.9,0.728148,253.505,0.744075
261.8,2.20796,253.304,0.741628
261.7,-0.151695,253.507,0.7441
261.6,0.566481,253.348,0.742159
261.5,1.10792,253.368,0.742411
261.4,0.00105922,253.585,0.745052
261.3,0.304609,253.712,0.746585
261.2,0.756866,253.291,0.741469
261.1,0.4583,253.204,0.74041
261,0.238837,253.55,0.744627
260.9,1.32429,253.612,0.74538
260.8,0.947103,253.941,0.749369
260.7,0.975025,253.585,0.745042
260.6,-0.227768,253.761,0.74719
260.5,1.09302,253.889,0.748737
260.4,1.29277,253.644,0.745767
260.3,0.830876,253.559,0.744734
260.2,1.90653,253.327,0.741904
260.1,0.712774,254.271,0.753386
260,0.7573,254.27,0.753364
259.9,0.598361,253.629,0.745588
259.8,1.73265,253.799,0.747651
259.7,0.0814614,253.638,0.745688
259.6,0.790619,253.844,0.748199
259.5,1.2197,253.289,0.74144
259.4,0.287854,253.739,0.74692
259.3,-0.173063,253.709,0.746553
259.2,0.370903,254.297,0.753703
259.1,0.681253,254.19,0.752393
259,-0.236455,253.902,0.748899
258.9,0.0332245,253.819,0.747887
258.8,0.674309,253.675,0.746136
258.7,1.24494,253.717,0.746647
258.6,0.654509,254.041,0.75059
258.5,0.446233,254.352,0.754368
258.4,1.47005,254.001,0.7501
258.3,0.466326,254.815,0.759974
258.2,0.344328,254.451,0.755567
258.1,0.53948,254.15,0.751916
258,0.103893,254.298,0.753715
257.9,-0.31882,254.264,0.753299
257.8,0.858076,254.671,0.758237
257.7,-0.0120212,254.636,0.757808
257.6,0.406952,254.508,0.756263
257.5,1.3233,254.048,0.750669
257.4,1.48144,254.396,0.754901
257.3,1.13928,254.405,0.755007
257.2,0.845246,254.677,0.758306
257.1,0.406815,254.563,0.756929
257,0.447695,254.393,0.754858
256.9,0.837287,254.711,0.758716
256.8,1.13438,254.535,0.756589
256.7,1.29286,254.565,0.75695
256.6,0.737002,254.421,0.755196
256.5,1.8353,254.481,0.755928
256.4,1.43082,254.376,0.754653
256.3,-0.231385,254.794,0.759729
256.2,0.941545,254.585,0.757185
256.1,0.255346,254.624,0.757666
256,1.10532,254.347,0.754304
255.9,1.19066,255.348,0.766436
255.8,0.831928,254.846,0.760355
255.7,1.36056,254.85,0.760403
255.6,1.24627,254.82,0.760043
255.5,0.724861,254.738,0.759046
255.4,1.76479,255.225,0.764947
255.3,0.102605,254.912,0.761155
255.2,0.91121,255.075,0.763128
255.1,1.38575,255.165,0.76421
255,1.68822,254.67,0.758224
254.9,0.299674,255.092,0.763331
254.8,0.820563,254.978,0.761957
254.7,0.209727,255.496,0.76822
254.6,1.15782,255.032,0.762605
254.5,0.450111,255.143,0.763945
254.4,1.29293,255.257,0.765327
254.3,1.33544,255.401,0.767071
254.2,0.803484,255.534,0.768682
254.1,1.45955,255.227,0.764971
254,0.527194,255.212,0.764779
253.9,1.05879,255.42,0.767306
253.8,0.577879,255.071,0.763073
253.7,-0.179117,254.833,0.760196
253.6,1.87354,255.018,0.762432
253.5,0.672862,255.383,0.766855
253.4,0.857272,255.116,0.76362
253.3,0.770138,255.157,0.764114
253.2,0.52328,255.139,0.7639
253.1,0.733178,255.639,0.769942
253,0.943572,255.328,0.766189
252.9,0.462454,255.874,0.77278
252.8,0.709644,255.46,0.767784
252.7,1.06828,255.476,0.767982
252.6,0.922156,255.344,0.766378
252.5,0.947073,255.634,0.769891
252.4,1.05323,255.723,0.77096
252.3,0.722223,255.597,0.769442
252.2,1.04811,255.898,0.773071
252.1,0.82189,255.87,0.772739
252,2.10205,255.762,0.771434
251.9,1.26058,255.536,0.768705
251.8,1.13614,255.399,0.767052
251.7,0.308799,255.645,0.770016
251.6,0.208071,255.218,0.764863
251.5,0.660115,255.688,0.770541
251.4,2.62888,256.074,0.775197
251.3,-0.363409,256.213,0.77688
251.2,1.98878,255.479,0.768016
251.1,-0.381268,255.649,0.770065
251,1.21563,255.649,0.770072
250.9,0.556273,256.182,0.776508
250.8,0.10754,255.535,0.768687
250.7,0.493867,255.722,0.770948
250.6,0.403552,255.811,0.772028
250.5,0.656399,255.621,0.769735
250.4,0.00689916,255.707,0.770763
250.3,0.891177,255.643,0.769997
250.2,0.719073,255.938,0.773558
250.1,0.612122,255.936,0.773537
250,-0.0389239,255.726,0.770996
249.9,0.984387,256,0.774312
249.8,0.847358,255.66,0.770202
249.7,1.07309,255.366,0.766648
249.6,2.24168,255.77,0.771533
249.5,2.22183,255.937,0.773541
249.4,1.0881,255.722,0.770952
249.3,1.24173,256.126,0.775828
249.2,0.715677,255.828,0.772228
249.1,0.597564,255.737,0.771137
249,1.53127,255.572,0.769143
248.9,1.40046,256.178,0.776458
248.8,0.671009,255.809,0.772004
248.7,0.512927,255.81,0.772016
248.6,0.596714,255.7,0.770681
248.5,0.700293,255.554,0.768926
248.4,1.12944,255.369,0.766681
248.3,1.5252,255.765,0.771473
248.2,1.59221,255.348,0.766426
248.1,0.700135,255.539,0.768734
248,1.37753,255.818,0.772106
247.9,1.55639,255.759,0.771396
247.8,0.65288,255.714,0.770859
247.7,0.759428,255.428,0.7674
247.6,-0.340089,255.695,0.770625
247.5,1.44144,255.785,0.771706
247.4,0.412561,255.983,0.774098
247.3,0.385422,256.04,0.774792
247.2,1.12507,255.691,0.77058
247.1,1.38388,256.031,0.774685
247,1.16636,256.132,0.775901
246.9,1.27121,255.9,0.773105
246.8,1.33339,256.277,0.777652
246.7,1.05226,256.298,0.777898
246.6,0.32256,255.904,0.773153
246.5,1.11886,256.163,0.776275
246.4,0.593585,256.065,0.775093
246.3,0.74384,256.481,0.78011
246.2,0.672518,256.253,0.77736
246.1,0.687455,256.168,0.776335
246,0.930956,255.944,0.773632
245.9,0.697046,256.019,0.774532
245.8,0.658886,256.271,0.777575
245.7,0.741953,256.121,0.775768
245.6,0.648277,256.238,0.777179
245.5,1.09672,256.063,0.775061
245.4,1.46419,256.26,0.777442
245.3,0.747229,255.998,0.774281
245.2,0.328516,256.318,0.778142
245.1,0.135226,256.09,0.775387
245,0.683819,256.329,0.77827
244.9,1.27345,255.778,0.771626
244.8,0.748874,255.911,0.773233
244.7,2.10562,256.197,0.77668
244.6,0.354755,255.975,0.774008
244.5,0.727639,256.146,0.776074
244.4,0.37585,256.096,0.775465
244.3,0.952461,256.582,0.78132
244.2,1.00842,256.105,0.775571
244.1,0.65328,256.339,0.778393
244,1.75654,256.248,0.7773
243.9,1.09414,256.166,0.776309
243.8,1.6406,256.485,0.780151
243.7,0.357098,256.448,0.779706
243.6,1.35839,256.527,0.780663
243.5,1.32176,257.01,0.786477
243.4,0.973641,256.68,0.782506
243.3,0.831972,256.482,0.780124
243.2,0.825138,256.863,0.784705
243.1,0.0832023,256.618,0.781757
243,0.496759,256.349,0.77852
242.9,2.16855,256.448,0.779713
242.8,1.38855,256.695,0.782688
242.7,0.73556,256.514,0.780506
242.6,-0.305047,256.709,0.782854
242.5,1.27376,256.323,0.778202
242.4,1.04602,257.214,0.788932
242.3,0.935908,256.874,0.784836
242.2,0.280862,256.899,0.785136
242.1,1.02106,256.89,0.785033
242,1.14024,257.355,0.79062
241.9,0.316211,256.569,0.781172
241.8,0.350252,257.223,0.789032
241.7,0.745464,256.92,0.78539
241.6,1.61933,257.019,0.786588
241.5,0.811375,256.89,0.785031
241.4,0.736506,256.876,0.78486
241.3,1.25653,256.746,0.783304
241.2,0.266615,256.762,0.783491
241.1,0.124887,257.415,0.791347
241,0.459185,256.79,0.783824
240.9,1.79207,256.952,0.785782
240.8,-0.0758742,257.135,0.787985
240.7,-0.0897948,257.472,0.792024
240.6,0.0504926,257.494,0.792298
240.5,0.721788,257.367,0.790768
240.4,0.827712,257.331,0.790339
240.3,2.0235,257.036,0.786794
240.2,-0.426458,256.939,0.785626
240.1,0.242306,257.396,0.79111
240,1.23332,257.375,0.790859
239.9,1.24545,257.308,0.790059
239.8,1.20406,257.693,0.794684
239.7,1.20867,257.579,0.793317
239.6,1.24086,257.89,0.797044
239.5,0.516724,257.817,0.796166
239.4,1.49624,257.613,0.793725
239.3,1.57323,258.056,0.799033
239.2,0.357657,257.871,0.79682
239.1,0.222469,257.849,0.796553
239,1.05646,258.03,0.798728
238.9,0.72897,258.261,0.801491
238.8,-1.01287,258.222,0.801031
238.7,-0.235067,258.227,0.801082
238.6,0.0736238,258.233,0.801157
238.5,0.469858,258.294,0.801886
238.4,0.217292,258.345,0.8025
238.3,1.19436,258.929,0.809485
238.2,0.946996,258.515,0.804537
238.1,0.211652,258.854,0.808592
238,0.870026,258.995,0.810272
237.9,0.606304,258.651,0.806161
237.8,-0.345188,258.688,0.806607
237.7,0.526607,258.792,0.807849
237.6,-0.200472,258.819,0.808171
237.5,0.737881,258.875,0.808838
237.4,0.986448,259.045,0.81087
237.3,0.949946,258.992,0.810237
237.2,1.27189,258.757,0.807425
237.1,1.83305,258.963,0.809891
237,0.0941613,258.849,0.808535
236.9,0.0407936,258.758,0.807442
236.8,1.34266,259.385,0.814933
236.7,0.446042,259.319,0.814149
236.6,-0.544567,259.462,0.815858
236.5,-0.0557804,259.238,0.813178
236.4,0.928351,259.176,0.812445
236.3,-0.0450856,259.359,0.814629
236.2,0.843758,259.734,0.819105
236.1,0.648995,259.567,0.817107
236,-0.38473,259.706,0.818766
235.9,-0.142174,259.781,0.819658
235.8,-1.26695,259.998,0.822245
235.7,-0.524285,259.775,0.819585
235.6,-0.0288414,260.394,0.826962
235.5,-0.100666,260.125,0.823754
235.4,-0.771304,260.015,0.822449
235.3,-0.296869,260.193,0.824575
235.2,-0.469739,260.369,0.826659
235.1,0.392398,260.218,0.824867
235,-0.344161,260.192,0.82456
234.9,1.08868,260.757,0.831278
234.8,2.01154,260.699,0.830587
234.7,-1.19693,260.46,0.827742
234.6,-0.268919,260.857,0.832471
234.5,0.471618,260.748,0.831171
234.4,0.0647811,260.781,0.831569
234.3,-1.13842,261.116,0.835543
234.2,0.529775,260.789,0.831661
234.1,1.2544,261.06,0.834875
234,0.921449,261.101,0.835364
233.9,-0.88954,261.363,0.838474
233.8,-0.556024,261.261,0.837266
233.7,0.838896,261.499,0.840086
233.6,-0.829443,261.542,0.840602
233.5,-0.526175,261.679,0.842225
233.4,-0.650901,261.775,0.843361
233.3,-0.332127,261.863,0.844405
233.2,0.880648,261.822,0.843915
233.1,-0.103554,261.953,0.845468
233,0.371956,261.831,0.844024
232.9,-0.398213,262.254,0.84903
232.8,-0.0876432,262.284,0.849385
232.7,-0.999536,262.111,0.847341
232.6,-1.00933,262.009,0.846132
232.5,-0.603179,262.598,0.853091
232.4,0.135169,262.515,0.852115
232.3,-0.217126,262.539,0.852395
232.2,0.871941,262.713,0.85446
232.1,-1.14138,262.424,0.85104
232,-0.89241,262.428,0.851084
231.9,-0.539982,263.073,0.8587
231.8,-0.626558,262.836,0.85591
231.7,1.40486,262.804,0.855529
231.6,-0.271679,263.009,0.857946
231.5,-0.503418,263.496,0.863693
231.4,0.0304717,263.534,0.86414
231.3,-0.850715,263.302,0.861403
231.2,-0.229412,263.37,0.862211
231.1,-0.631087,263.623,0.86519
231,-0.222048,263.453,0.863181
230.9,-1.37345,263.431,0.862926
230.8,-0.839701,263.268,0.861002
230.7,0.272011,263.118,0.859233
230.6,-0.976103,263.244,0.860716
230.5,-0.856377,263.908,0.86854
230.4,-0.468285,263.569,0.864547
230.3,-0.999651,263.608,0.865015
230.2,-1.12006,263.588,0.864776
230.1,-1.14622,263.7,0.866092
230,-2.1328,263.374,0.862256
229.9,-1.76651,263.504,0.863792
229.8,-0.576941,263.526,0.864042
229.7,-1.49193,263.631,0.865282
229.6,-0.923937,263.473,0.863423
229.5,0.215379,263.601,0.864928
229.4,-1.24278,263.909,0.868558
229.3,-1.44227,263.967,0.869238
229.2,-0.757682,263.768,0.866899
229.1,-1.1696,264.536,0.875926
229,-0.465495,264.535,0.875917
228.9,-0.131085,264.629,0.877019
228.8,-1.00766,264.693,0.877769
228.7,-0.789275,264.901,0.880213
228.6,-2.2818,264.7,0.877847
228.5,-2.45709,264.899,0.880184
228.4,-0.831316,264.793,0.878942
228.3,-1.19076,265.122,0.882798
228.2,-2.08709,265.539,0.887688
228.1,-0.925734,265.697,0.889536
228,-2.09572,265.675,0.889278
227.9,-0.765951,265.998,0.893053
227.8,-1.76908,266.396,0.897703
227.7,-1.74326,265.828,0.891065
227.6,-1.02986,265.834,0.891138
227.5,-1.02702,266.479,0.898677
227.4,-0.726348,266.133,0.894634
227.3,-1.52738,266.288,0.896441
227.2,-1.07234,266.769,0.902062
227.1,-0.83915,266.788,0.902286
227,-1.91449,266.636,0.900507
226.9,-1.58481,266.621,0.900328
226.8,-1.31164,266.646,0.900629
226.7,-1.43593,266.85,0.90301
226.6,-1.53259,266.91,0.903707
226.5,-2.66434,267.064,0.905501
226.4,-1.20855,267.311,0.908374
226.3,-0.895441,266.961,0.904294
226.2,-0.78318,267.4,0.909407
226.1,-0.37522,267.068,0.905545
226,-1.86528,267.435,0.909822
225.9,-1.09098,268.075,0.917261
225.8,-1.3373,267.655,0.912381
225.7,-2.00175,267.59,0.911618
225.6,-1.06905,267.928,0.915549
225.5,-0.493781,267.974,0.916083
225.4,-0.553527,268.141,0.918031
225.3,-1.46231,268.303,0.919913
225.2,-1.26158,268.145,0.918069
225.1,-1.33461,268.153,0.91817
225,-2.82551,268.206,0.918787
224.9,-1.06113,268.352,0.920474
224.8,-1.65938,268.841,0.926149
224.7,-1.77763,268.761,0.925218
224.6,-2.85114,268.45,0.921616
224.5,-1.25297,268.909,0.92694
224.4,-1.79429,268.988,0.927845
224.3,-2.6837,269.14,0.92961
224.2,-0.772028,269.409,0.93273
224.1,-1.63725,269.286,0.931297
224,-1.92788,269.375,0.932333
223.9,-1.79664,269.424,0.932895
223.8,-2.14013,269.552,0.934384
223.7,-1.70068,269.553,0.934391
223.6,-1.67783,269.499,0.933768
223.5,-3.37221,269.896,0.938358
223.4,-0.566605,269.779,0.937003
223.3,-1.04528,269.763,0.936812
223.2,-2.36506,270,0.939552
223.1,-1.70779,269.969,0.939194
223,-1.77766,270.179,0.941625
222.9,-2.17077,270.181,0.941639
222.8,-1.30179,270.535,0.945727
222.7,-2.30356,270.421,0.944411
222.6,-2.12247,270.734,0.948022
222.5,-1.63493,270.542,0.945811
222.4,-1.33175,270.732,0.947998
222.3,-2.08865,270.77,0.948432
222.2,-0.0394975,270.826,0.949075
222.1,-1.61578,270.837,0.949208
222,-1.57944,271.08,0.952
221.9,-1.30406,270.982,0.950879
221.8,-0.933957,270.997,0.95105
221.7,-1.83197,271.14,0.952696
221.6,-0.350513,271.024,0.951358
221.5,-1.47344,271.092,0.952142
221.4,-3.00619,271.413,0.955838
221.3,-2.38651,271.482,0.95663
221.2,-1.19377,271.406,0.955757
221.1,-1.13941,271.592,0.957898
221,-2.97178,271.92,0.961665
220.9,0.0114678,271.85,0.96086
220.8,-2.43599,272.076,0.963453
220.7,-2.15184,272.318,0.966228
220.6,-2.32455,272.101,0.963739
220.5,-1.29694,272.21,0.964987
220.4,-1.30413,272.3,0.966018
220.3,-1.69511,272.469,0.96796
220.2,-1.70039,272.049,0.963136
220.1,-1.37752,272.433,0.967549
220,-2.20083,272.612,0.969597
219.9,-1.56733,272.567,0.969074
219.8,-0.86691,272.78,0.971518
219.7,-2.2354,272.787,0.971594
219.6,-2.36886,272.968,0.973674
219.5,-1.28804,272.658,0.970116
219.4,-1.53088,273.035,0.974439
219.3,-2.01178,272.816,0.971928
219.2,-1.30672,272.99,0.973918
219.1,-2.05774,272.855,0.972377
219,-1.54112,273.034,0.974422
218.9,-1.5329,273.308,0.977559
218.8,-0.927139,273.528,0.980076
218.7,-0.196475,273.528,0.980078
218.6,-1.58292,273.626,0.981191
218.5,-2.4079,273.514,0.979911
218.4,-1.91414,273.658,0.981553
218.3,-1.17802,273.813,0.983328
218.2,-0.7602,273.582,0.980693
218.1,-2.02552,273.59,0.980786
218,-1.56388,273.656,0.981535
217.9,-1.69796,274.002,0.985479
217.8,-1.90977,274.165,0.987341
217.7,-1.79671,274.091,0.986497
217.6,-2.29305,274.214,0.987898
217.5,-1.39521,274.419,0.990232
217.4,-1.52248,274.415,0.990192
217.3,-1.97015,274.226,0.988041
217.2,-1.63337,274.703,0.993469
217.1,-1.20725,274.473,0.990857
217,-2.10886,275.012,0.996984
216.9,-2.52587,275.124,0.998256
216.8,-1.07896,274.755,0.994058
216.7,-1.11974,275.418,1.0016
216.6,-1.8341,275.501,1.00255
216.5,-2.10564,275.489,1.00241
216.4,-1.0726,275.225,0.999408
216.3,-2.23445,275.412,1.00153
216.2,-1.81682,275.67,1.00446
216.1,-2.17886,275.404,1.00144
216,-1.59644,275.781,1.00572
215.9,-1.10192,275.594,1.0036
215.8,-2.31844,275.929,1.0074
215.7,-0.253791,275.949,1.00763
215.6,-0.938601,276.325,1.01188
215.5,-2.59699,276.029,1.00854
215.4,-1.49892,276.037,1.00863
215.3,-1.13597,276.174,1.01018
215.2,-2.13659,276.144,1.00984
215.1,-2.24664,276.324,1.01188
215,-1.52296,276.371,1.01241
214.9,-1.94334,276.689,1.01601
214.8,-1.55401,276.554,1.01448
214.7,-1.67996,276.496,1.01382
214.6,-2.06538,276.736,1.01655
214.5,-1.30464,276.836,1.01768
214.4,-2.92704,276.946,1.01891
214.3,-0.305066,276.861,1.01796
214.2,-0.609342,277.032,1.01988
214.1,-1.4309,276.865,1.018
214,-2.37706,277.084,1.02048
213.9,-1.20143,277.29,1.02281
213.8,-0.860429,277.162,1.02136
213.7,0.08657,277.171,1.02146
213.6,-1.27687,277.546,1.0257
213.5,-1.24488,277.291,1.02281
213.4,-2.15566,277.28,1.02269
213.3,-0.863257,277.591,1.0262
213.2,-1.51829,277.652,1.02688
213.1,1.01865,277.839,1.029
213,-1.35105,277.792,1.02847
212.9,-2.58754,277.692,1.02734
212.8,0.0886398,277.715,1.0276
212.7,-1.1141,278.317,1.03438
212.6,-1.80806,278.352,1.03478
212.5,-2.78821,278.217,1.03326
212.4,0.161026,278.517,1.03664
212.3,-1.62677,278.481,1.03623
212.2,-0.909476,278.738,1.03912
212.1,-1.7759,278.927,1.04124
212,-1.90139,278.792,1.03972
211.9,-1.41455,278.74,1.03914
211.8,-1.64954,278.895,1.04089
211.7,-1.58778,279.27,1.0451
211.6,-0.833958,279.328,1.04575
211.5,-1.72153,279.27,1.0451
211.4,-1.52052,279.492,1.0476
211.3,0.518751,279.63,1.04914
211.2,-0.934736,279.445,1.04707
211.1,-2.1534,279.456,1.04718
211,-1.00827,279.668,1.04956
210.9,-0.211413,280.122,1.05465
210.8,-1.08922,279.822,1.05129
210.7,-1.69314,280.197,1.05549
210.6,-0.626146,280.141,1.05487
210.5,-0.963965,280.411,1.05788
210.4,-1.74605,280.687,1.06098
210.3,-1.49244,280.476,1.05862
210.2,-2.76816,280.679,1.06088
210.1,-1.05616,280.683,1.06093
210,-1.03946,280.617,1.06019
209.9,0.145073,280.931,1.06371
209.8,-1.29835,281.084,1.06541
209.7,-2.08004,281.256,1.06733
209.6,-2.24254,281.338,1.06824
209.5,-2.12503,281.477,1.0698
209.4,-2.46913,281.557,1.07069
209.3,-1.99478,281.892,1.07443
209.2,-0.0107477,282.12,1.07697
209.1,-1.23416,282.235,1.07824
209,-1.06844,282.082,1.07654
208.9,-1.20576,282.244,1.07835
208.8,-1.34128,282.504,1.08123
208.7,-2.1875,282.593,1.08222
208.6,-2.8034,282.741,1.08387
208.5,-0.683768,282.88,1.08542
208.4,-0.517846,282.674,1.08313
208.3,-0.0352289,282.768,1.08417
208.2,-1.16095,282.866,1.08526
208.1,-0.176281,283.097,1.08783
208,-1.4202,283.385,1.09102
207.9,-2.47048,283.516,1.09247
207.8,-0.733539,283.864,1.09633
207.7,-3.01336,283.877,1.09647
207.6,-1.44071,284.114,1.09909
207.5,-2.15829,284.077,1.09869
207.4,-3.01659,284.44,1.1027
207.3,-2.13472,284.523,1.10362
207.2,-2.10482,284.802,1.1067
207.1,-1.09434,284.959,1.10844
207,-1.35401,285.055,1.1095
206.9,0.399795,285.152,1.11056
206.8,-1.9157,285.337,1.11261
206.7,-0.651567,285.193,1.11103
206.6,-0.824044,285.216,1.11127
206.5,-0.794472,285.388,1.11317
206.4,-1.59787,285.813,1.11786
206.3,0.0544162,285.995,1.11986
206.2,-1.8557,286.009,1.12002
206.1,-0.498202,286.16,1.12168
206,0.100004,286.516,1.12559
205.9,-1.56735,286.789,1.12858
205.8,-1.13353,286.709,1.12771
205.7,-0.914664,287.042,1.13137
205.6,-0.417764,287.229,1.13342
205.5,-1.58785,287.212,1.13323
205.4,-1.36225,287.322,1.13444
205.3,-0.865697,287.72,1.1388
205.2,0.524624,288.254,1.14465
205.1,0.0115718,288.191,1.14396
205,0.310733,288.185,1.14388
204.9,-0.622557,288.455,1.14684
204.8,-1.11146,289.187,1.15483
204.7,-1.27535,288.95,1.15225
204.6,0.0634735,289.063,1.15348
204.5,-0.0514629,289.55,1.15879
204.4,1.25701,289.624,1.15959
204.3,0.648245,289.785,1.16135
204.2,-1.34946,289.839,1.16193
204.1,-0.217974,290.167,1.16551
204,-0.378208,290.564,1.16983
203.9,0.343794,290.448,1.16856
203.8,-0.929895,290.802,1.17241
203.7,0.670384,291.095,1.17559
203.6,1.70345,291.199,1.17671
203.5,1.78661,291.534,1.18034
203.4,-0.0821536,291.995,1.18533
203.3,1.16588,292.014,1.18554
203.2,-0.700871,292.289,1.18852
203.1,1.1218,292.178,1.18731
203,2.66353,292.33,1.18895
202.9,1.19668,292.931,1.19545
202.8,1.06485,292.86,1.19468
202.7,1.15705,293.14,1.1977
202.6,2.45254,293.41,1.20061
202.5,3.35176,293.912,1.20602
202.4,2.49069,293.79,1.2047
202.3,1.25378,294.052,1.20752
202.2,2.29577,294.594,1.21335
202.1,2.69958,294.881,1.21643
202,0.989816,294.996,1.21766
201.9,4.46481,295.307,1.221
201.8,3.17189,295.284,1.22076
201.7,1.3481,295.854,1.22686
201.6,2.3048,296.224,1.23082
201.5,2.68254,296.202,1.23058
201.4,3.17153,296.646,1.23532
201.3,1.99677,296.911,1.23815
201.2,5.20803,297.426,1.24364
201.1,3.96765,297.162,1.24083
201,2.24944,297.843,1.24809
200.9,1.96642,297.925,1.24896
200.8,2.79662,298.262,1.25254
200.7,3.02815,298.478,1.25483
200.6,4.7322,298.676,1.25693
200.5,4.46539,299.287,1.26342
200.4,3.56021,299.487,1.26553
200.3,4.62281,299.582,1.26655
200.2,4.84588,299.958,1.27052
200.1,5.78147,300.468,1.27592
200,4.5159,300.569,1.27698
199.9,6.01689,300.596,1.27726
199.8,3.90285,301.175,1.28338
199.7,5.61575,301.491,1.28671
199.6,6.59777,301.377,1.2855
199.5,6.69679,301.874,1.29074
199.4,5.06482,301.938,1.29142
199.3,5.09282,302.048,1.29257
199.2,4.73272,302.154,1.29368
199.1,6.76147,302.336,1.2956
199,3.60988,303.173,1.30438
198.9,6.11039,302.774,1.3002
198.8,6.00308,303.028,1.30287
198.7,6.07244,303.451,1.3073
198.6,5.27372,303.473,1.30753
198.5,5.82081,304.2,1.31514
198.4,5.13582,304.469,1.31795
198.3,6.9388,304.384,1.31707
198.2,8.44859,305.088,1.32441
198.1,5.77037,304.51,1.31838
198,5.65599,305.117,1.32471
197.9,5.79187,305.466,1.32835
197.8,6.57234,305.81,1.33193
197.7,6.27197,305.755,1.33136
197.6,7.87313,306.199,1.33598
197.5,6.13019,306.461,1.3387
197.4,7.07315,306.337,1.33742
197.3,6.56635,306.824,1.34248
197.2,6.7894,307.068,1.34501
197.1,8.11865,307.417,1.34863
197,7.39057,307.744,1.35202
196.9,8.61868,308.015,1.35482
196.8,8.87392,308.312,1.3579
196.7,6.31142,308.666,1.36155
196.6,8.75671,308.616,1.36104
196.5,8.89633,309.168,1.36674
196.4,9.26653,309.663,1.37184
196.3,6.54369,309.993,1.37523
196.2,7.04614,310.239,1.37776
196.1,9.68679,310.392,1.37933
196,10.0792,310.825,1.38379
195.9,6.5414,311.461,1.39031
195.8,7.54327,311.634,1.39209
195.7,8.39705,312.122,1.39708
195.6,6.49109,312.308,1.39899
195.5,9.13834,312.584,1.40181
195.4,8.04787,313.095,1.40703
195.3,8.2196,313.57,1.41188
195.2,5.62042,313.591,1.41209
195.1,7.41077,313.643,1.41262
195,8.78763,314.351,1.41982
194.9,6.78023,314.707,1.42345
194.8,8.67209,314.855,1.42495
194.7,7.84606,315.26,1.42906
194.6,7.337,315.886,1.43541
194.5,11.8172,315.693,1.43346
194.4,8.68815,316.299,1.4396
194.3,10.0753,317.064,1.44734
194.2,12.4993,317.731,1.45406
194.1,7.94541,318.053,1.45731
194,10.0982,318.918,1.46601
193.9,9.29387,319.461,1.47146
193.8,9.7494,320.456,1.48144
193.7,7.64923,320.698,1.48386
193.6,12.9279,321.432,1.4912
193.5,9.33997,321.727,1.49414
193.4,8.80474,322.248,1.49934
193.3,9.24934,322.907,1.5059
193.2,7.95155,323.283,1.50964
193.1,8.90582,323.559,1.51238
193,9.00641,324.596,1.52267
192.9,9.15867,325.194,1.52859
192.8,10.5753,325.848,1.53505
192.7,11.0005,326.494,1.54142
192.6,8.82945,327.499,1.55132
192.5,7.72775,328.299,1.55917
192.4,8.79277,328.942,1.56547
192.3,7.70924,329.718,1.57306
192.2,7.14981,330.756,1.5832
192.1,8.69456,331.306,1.58856
192,11.3906,332.221,1.59746
191.9,6.52671,332.984,1.60486
191.8,9.54914,334.03,1.61499
191.7,9.4781,334.677,1.62125
191.6,7.62047,335.741,1.6315
191.5,6.09106,336.478,1.6386
191.4,10.2569,337.957,1.65278
191.3,8.89885,338.882,1.66163
191.2,6.31981,340.141,1.67364
191.1,9.75764,341.827,1.68967
191,7.53191,343.026,1.70102
190.9,9.90858,344.429,1.71427
190.8,8.18785,345.903,1.72814
190.7,8.41903,347.49,1.74301
190.6,11.6831,348.775,1.75501
190.5,9.58768,350.412,1.77026
190.4,7.36866,351.392,1.77935
190.3,8.21363,352.631,1.79082
190.2,11.3663,354.234,1.8056
190.1,9.19981,355.192,1.81441
190,7.2966,356.792,1.82909
,,,
##### Extended Information,,,
[Comments],,,
Sample name,class,,
Comment,,,
User,,,
Division,,,
Company,Saint Mary's College,,
,,,
[Detailed Information],,,
Creation date,9/29/2021 17:01,,
,,,
Data array type,Linear data array * 3,,
Horizontal axis,Wavelength [nm],,
Vertical axis(1),CD [mdeg],,
Vertical axis(2),HT [V],,
Vertical axis(3),Abs,,
Start,290 nm,,
End,190 nm,,
Data interval,0.1 nm,,
Data points,1001,,
,,,
[Measurement Information],,,
Instrument name,J-1500,,
Model name,J-1500,,
Serial No.,B051061638,,
,,,
Detector,PM-539,,
Detector S/N,B051061638,,
  Lock-in amp.,X mode,,
  HT volt,Auto,,
,,,
Accessory,PTC-517,,
Accessory S/N,B026561646,,
  Temperature,22.64 C,,
  Control sensor,Holder,,
  Monitor sensor,Holder,,
,,,
Measurement date,9/29/2021 17:00,,
,,,
CD Overload detect,808,,
Photometric mode,CD, HT, Abs
Measure range,290 - 190 nm,,
Data pitch,0.1 nm,,
CD scale,20 mdeg/0.05 dOD,,
FL scale,20 mdeg/0.05 dOD,,
D.I.T.,64 msec,,
Bandwidth,1.00 nm,,
Start mode,Immediately,,
Scanning mode,Continuous,,
Scanning speed,50 nm/min,,
Baseline correction,None,,
Shutter control,Auto,,
No. of cycle,1-Jan,,
N2 Flowmeter,Manual,,
