TITLE,class,,
DATA TYPE,,,
ORIGIN,JASCO,,
OWNER,,,
DATE,21/09/29,,
TIME,18:04:16,,
SPECTROMETER/DATA SYSTEM,,,
LOCALE,1033,,
RESOLUTION,,,
DELTAX,-0.1,,
XUNITS,NANOMETERS,,
YUNITS,CD [mdeg],,
Y2UNITS,HT [V],,
Y3UNITS,ABSORBANCE,,
FIRSTX,290,,
LASTX,190,,
NPOINTS,1001,,
FIRSTY,1.34658,,
MAXY,12.02658,,
MINY,-4.01211,,
XYDATA,,,
290,1.34658,253.995,0.750031
289.9,1.08135,253.69,0.746327
289.8,1.26972,254.149,0.751898
289.7,1.35894,253.716,0.746646
289.6,1.62839,253.715,0.746628
289.5,1.53179,253.914,0.749044
289.4,0.752849,253.737,0.746899
289.3,1.52885,253.801,0.747672
289.2,0.445624,253.733,0.746851
289.1,1.33813,253.846,0.748221
289,0.364869,253.75,0.74705
288.9,1.33612,253.692,0.746348
288.8,0.613736,253.962,0.749636
288.7,2.66193,254.037,0.75054
288.6,1.67598,253.75,0.747054
288.5,1.81922,254.087,0.751146
288.4,1.92468,253.63,0.745599
288.3,0.245747,253.703,0.746486
288.2,2.04743,253.944,0.749417
288.1,1.49976,253.386,0.742624
288,1.68173,254.034,0.750499
287.9,2.34351,253.873,0.748553
287.8,1.1897,253.523,0.744294
287.7,1.35316,253.81,0.747778
287.6,2.146,254.613,0.757527
287.5,1.7708,253.491,0.743907
287.4,1.96505,253.534,0.744431
287.3,1.17919,253.411,0.742934
287.2,1.5359,253.466,0.743602
287.1,1.22614,253.774,0.747345
287,1.11708,254.252,0.753148
286.9,0.798486,253.937,0.749328
286.8,1.60146,253.487,0.743853
286.7,1.52074,253.436,0.743229
286.6,1.49557,253.632,0.745617
286.5,1.93554,253.517,0.744225
286.4,1.27205,253.673,0.746119
286.3,1.47316,253.048,0.738505
286.2,1.28046,253.783,0.747451
286.1,0.304651,253.181,0.740131
286,0.220462,253.65,0.745841
285.9,0.761969,253.408,0.742891
285.8,1.76557,253.561,0.74476
285.7,1.73379,253.279,0.741328
285.6,0.589886,253.059,0.738647
285.5,1.23567,253.212,0.740512
285.4,2.19898,253.203,0.740403
285.3,2.67316,252.833,0.735888
285.2,0.109799,253.493,0.743929
285.1,1.60084,253.041,0.738424
285,0.908395,253.449,0.743393
284.9,1.67437,253.621,0.74548
284.8,0.91597,253.577,0.744949
284.7,1.96914,253.43,0.743164
284.6,0.451378,253.245,0.740909
284.5,1.36376,253.386,0.742626
284.4,0.959393,253.76,0.747169
284.3,1.26593,253.488,0.743865
284.2,1.11156,253.238,0.740826
284.1,1.28547,253.499,0.744
284,0.248359,253.402,0.742824
283.9,1.75444,253.017,0.738126
283.8,1.97172,253.514,0.744182
283.7,1.26482,253.25,0.740967
283.6,0.588243,253.185,0.740175
283.5,2.32525,253.662,0.745984
283.4,1.05906,253.235,0.740788
283.3,0.736588,253.167,0.739963
283.2,1.88603,253.062,0.738678
283.1,0.00410478,253.274,0.741267
283,0.663655,253.288,0.741438
282.9,2.29097,253.113,0.739299
282.8,2.37826,252.853,0.736128
282.7,1.58749,253.564,0.74479
282.6,1.44988,253.37,0.742429
282.5,0.979665,253.249,0.740955
282.4,1.90635,253.032,0.738312
282.3,1.25992,253.255,0.741033
282.2,1.60189,252.901,0.736722
282.1,1.51588,253.232,0.740752
282,0.544583,253.167,0.739955
281.9,1.07413,253.235,0.740788
281.8,1.72541,253.117,0.739351
281.7,2.16692,253.324,0.741867
281.6,1.26373,253.552,0.744651
281.5,1.99491,253.213,0.740515
281.4,1.5676,253.009,0.738039
281.3,1.82889,253.069,0.738766
281.2,0.749859,252.88,0.73646
281.1,0.753114,253.038,0.738384
281,0.807567,253.152,0.739781
280.9,0.577496,253.407,0.742876
280.8,0.910482,252.957,0.737396
280.7,1.13494,252.922,0.736971
280.6,1.35286,253.066,0.738735
280.5,0.827179,252.779,0.735228
280.4,1.32124,252.987,0.737767
280.3,1.72885,252.831,0.735862
280.2,0.00264724,252.813,0.735641
280.1,0.659154,253.217,0.740569
280,0.522532,252.873,0.736372
279.9,1.35068,252.979,0.737672
279.8,1.80584,252.674,0.733955
279.7,1.19955,253.147,0.73972
279.6,2.52574,252.904,0.73675
279.5,1.46375,253.191,0.740246
279.4,1.50956,252.382,0.730384
279.3,0.518017,252.899,0.736695
279.2,1.58591,252.881,0.736473
279.1,0.453493,252.696,0.734216
279,1.32945,252.756,0.734945
278.9,1.53802,253.092,0.739045
278.8,1.59458,252.891,0.736591
278.7,0.829657,253.046,0.738479
278.6,2.61361,252.786,0.735316
278.5,0.734821,252.757,0.734962
278.4,1.36777,252.889,0.736575
278.3,1.04285,252.607,0.733129
278.2,1.20475,252.312,0.729536
278.1,1.02532,253.253,0.74101
278,0.639614,253.107,0.739234
277.9,1.40066,252.803,0.735527
277.8,1.78596,252.865,0.736282
277.7,2.23708,253.054,0.738586
277.6,2.06068,252.614,0.733219
277.5,1.55385,253.286,0.74141
277.4,0.16201,252.973,0.737596
277.3,2.04663,252.695,0.734206
277.2,1.06404,252.942,0.737214
277.1,1.38527,252.447,0.731183
277,1.54738,252.992,0.737822
276.9,0.524273,252.763,0.735038
276.8,1.01499,252.534,0.732246
276.7,0.785946,252.718,0.734487
276.6,1.42166,252.707,0.734349
276.5,1.48282,252.73,0.734636
276.4,1.57403,252.502,0.731852
276.3,-0.215549,252.512,0.731978
276.2,1.52984,252.453,0.731246
276.1,1.16103,252.691,0.734161
276,1.9377,252.326,0.729704
275.9,1.26403,252.239,0.72864
275.8,1.13337,252.682,0.734052
275.7,-0.209101,252.792,0.735392
275.6,1.51503,252.69,0.734142
275.5,0.535035,252.483,0.731615
275.4,0.075886,252.424,0.730902
275.3,1.3868,252.699,0.734252
275.2,0.670069,252.343,0.729904
275.1,1.30784,252.706,0.73434
275,1.76577,253.126,0.739463
274.9,2.13459,252.313,0.729546
274.8,1.42349,252.706,0.734335
274.7,1.03011,252.549,0.732419
274.6,0.65848,252.432,0.731001
274.5,0.397843,252.665,0.733843
274.4,1.23357,252.163,0.727707
274.3,1.96474,252.37,0.730238
274.2,1.69036,252.637,0.733494
274.1,0.317807,252.413,0.730762
274,0.654723,252.38,0.730359
273.9,1.26654,252.222,0.728432
273.8,0.792251,252.138,0.727402
273.7,1.0602,252.312,0.729527
273.6,1.34781,252.322,0.729654
273.5,0.806025,252.18,0.727916
273.4,1.36781,251.972,0.72537
273.3,1.47956,251.678,0.721776
273.2,2.12979,252.325,0.729692
273.1,2.05605,252.3,0.729378
273,1.55417,252.473,0.731497
272.9,0.800883,252.47,0.731463
272.8,1.05432,252.408,0.730705
272.7,1.38793,252.215,0.728346
272.6,1.06406,252.692,0.734173
272.5,0.372868,252.663,0.733813
272.4,1.34024,252.454,0.731269
272.3,1.08452,252.4,0.730603
272.2,1.58765,252.207,0.728252
272.1,-0.0743931,252.456,0.731295
272,1.52893,252.387,0.730448
271.9,0.760349,251.908,0.724594
271.8,0.43219,252.118,0.727163
271.7,1.35568,252.039,0.726196
271.6,1.6487,252.448,0.731193
271.5,0.11359,252.487,0.73167
271.4,0.25091,252.444,0.731138
271.3,0.715989,252.265,0.728951
271.2,0.984378,252.753,0.734917
271.1,0.965281,252.203,0.728193
271,0.870905,252.312,0.729533
270.9,0.9729,252.807,0.735572
270.8,0.498009,252.143,0.727461
270.7,0.673636,252.302,0.729404
270.6,0.500979,251.946,0.725063
270.5,0.541452,252.017,0.725925
270.4,1.10068,251.98,0.725472
270.3,0.47446,252.266,0.728967
270.2,0.806121,252.284,0.729188
270.1,0.113024,252.198,0.728133
270,1.34372,252.518,0.73204
269.9,0.816953,252.355,0.730057
269.8,-0.466354,252.865,0.736277
269.7,1.01471,252.578,0.732782
269.6,0.741113,252.564,0.732605
269.5,0.815238,252.173,0.727837
269.4,1.14473,252.494,0.731748
269.3,0.306508,252.327,0.729711
269.2,0.349155,252.29,0.729261
269.1,1.40936,252.933,0.737109
269,1.09564,252.431,0.730987
268.9,1.22941,252.441,0.73111
268.8,0.937837,252.288,0.729238
268.7,0.561561,252.474,0.731511
268.6,1.37422,252.596,0.732998
268.5,0.608249,252.257,0.728853
268.4,1.31217,252.388,0.730453
268.3,1.4173,252.288,0.729242
268.2,0.537713,252.558,0.73254
268.1,1.48044,252.493,0.731746
268,0.984955,252.616,0.73324
267.9,1.33,252.34,0.729878
267.8,0.694794,252.603,0.733079
267.7,0.645711,252.573,0.732716
267.6,0.427294,252.447,0.731177
267.5,0.603637,252.583,0.732835
267.4,2.07171,252.608,0.733143
267.3,2.17956,252.57,0.732676
267.2,1.33531,252.45,0.73122
267.1,0.902045,252.695,0.734209
267,0.776,252.582,0.732832
266.9,-0.28695,252.775,0.735185
266.8,0.937184,252.64,0.733537
266.7,0.826852,252.554,0.732481
266.6,0.844986,252.136,0.727383
266.5,1.57233,252.865,0.73628
266.4,0.231533,252.832,0.735871
266.3,0.941145,252.51,0.73195
266.2,0.432962,252.733,0.734669
266.1,0.150082,252.776,0.735189
266,1.30289,252.881,0.73647
265.9,1.08494,252.747,0.734835
265.8,1.24825,252.744,0.7348
265.7,0.695488,252.628,0.733385
265.6,1.05201,252.534,0.732244
265.5,1.20869,252.832,0.735878
265.4,0.385676,252.737,0.734722
265.3,1.10577,252.822,0.735759
265.2,0.480114,252.867,0.736303
265.1,0.0460062,252.765,0.735064
265,0.756278,252.74,0.734753
264.9,2.05729,252.846,0.736042
264.8,0.1601,252.968,0.737532
264.7,0.947668,252.821,0.735741
264.6,1.05764,252.817,0.735695
264.5,0.913595,252.756,0.734954
264.4,0.649633,253.134,0.739551
264.3,0.0677928,253.097,0.739103
264.2,1.75419,253.029,0.738274
264.1,0.632694,252.871,0.736358
264,1.1911,253.057,0.738616
263.9,2.08567,252.967,0.737527
263.8,0.748829,253.124,0.739434
263.7,0.615449,253.12,0.73939
263.6,0.153552,253.224,0.74065
263.5,1.25534,253.118,0.739359
263.4,1.11736,253.165,0.739929
263.3,0.721117,253.152,0.739779
263.2,1.5008,253.108,0.739241
263.1,1.15848,253.2,0.74036
263,1.08827,253.121,0.739404
262.9,0.775704,253.333,0.741976
262.8,1.29201,253.08,0.738904
262.7,2.6379,252.981,0.737692
262.6,0.126961,253.272,0.741235
262.5,1.08984,253.443,0.743314
262.4,0.732912,253.407,0.742883
262.3,0.486072,253.565,0.744799
262.2,1.16695,253.789,0.747532
262.1,0.322539,253.393,0.742705
262,1.19143,253.372,0.74245
261.9,1.52018,253.289,0.741447
261.8,0.757004,253.436,0.743229
261.7,0.848678,253.508,0.744112
261.6,-0.501212,253.129,0.739491
261.5,1.18763,253.264,0.741141
261.4,0.500195,253.16,0.739877
261.3,0.700967,253.839,0.748135
261.2,1.00565,253.552,0.744642
261.1,1.22211,253.63,0.745595
261,0.888373,253.673,0.74612
260.9,0.325967,253.678,0.746172
260.8,1.03224,253.372,0.742454
260.7,1.14552,253.506,0.744082
260.6,0.799376,253.679,0.746184
260.5,0.181502,253.297,0.741545
260.4,0.300523,253.835,0.748087
260.3,1.05514,253.581,0.745001
260.2,1.50215,253.875,0.748567
260.1,-0.201317,253.701,0.746453
260,-0.0336759,253.915,0.749063
259.9,0.721627,253.908,0.74897
259.8,0.635212,253.823,0.747935
259.7,0.569202,253.831,0.748044
259.6,2.15624,253.892,0.74878
259.5,1.02823,254.186,0.752351
259.4,0.95485,253.827,0.74799
259.3,0.165556,253.655,0.745902
259.2,-0.206664,254.143,0.751829
259.1,0.900788,253.921,0.749137
259,0.671897,254.035,0.750511
258.9,0.81016,253.989,0.749963
258.8,1.26563,254.024,0.750377
258.7,0.24476,254.002,0.750112
258.6,0.900876,254.168,0.752128
258.5,1.2262,254.144,0.751846
258.4,0.920398,254.217,0.752725
258.3,0.524651,254.218,0.752733
258.2,1.02577,254.068,0.750921
258.1,0.732367,254.356,0.754414
258,-0.392098,254.324,0.754022
257.9,0.501176,254.087,0.751143
257.8,0.787791,254.285,0.753557
257.7,0.301334,254.488,0.75602
257.6,0.610843,254.074,0.750991
257.5,-0.273616,254.626,0.757688
257.4,-0.692423,254.612,0.75752
257.3,-0.156955,254.309,0.75384
257.2,0.948287,254.605,0.757432
257.1,1.46927,254.666,0.758167
257,0.945025,254.548,0.756744
256.9,0.31365,254.624,0.757659
256.8,-0.0637286,254.717,0.75879
256.7,0.335959,254.679,0.758334
256.6,1.03843,254.387,0.754784
256.5,0.118819,254.498,0.756137
256.4,1.20587,254.545,0.756707
256.3,0.33731,254.283,0.753527
256.2,1.01974,254.773,0.759475
256.1,1.09136,254.829,0.760151
256,1.17285,254.359,0.754454
255.9,1.62919,254.763,0.75935
255.8,0.233738,254.605,0.757436
255.7,2.03766,254.474,0.755845
255.6,1.23968,254.995,0.76216
255.5,0.471885,254.966,0.761806
255.4,0.0958818,254.794,0.759726
255.3,0.366113,254.975,0.761918
255.2,1.32519,254.621,0.757623
255.1,0.820375,255.134,0.76384
255,0.576973,255.093,0.763343
254.9,1.2684,254.857,0.760489
254.8,0.249514,255.087,0.763271
254.7,0.190482,255.133,0.763828
254.6,0.620356,254.996,0.762165
254.5,1.49688,255.155,0.764092
254.4,1.67582,255.214,0.764813
254.3,0.0405444,255.101,0.763435
254.2,1.22759,254.931,0.761381
254.1,1.42067,255.018,0.762437
254,1.5737,254.984,0.762029
253.9,0.961549,255.101,0.763435
253.8,1.05146,255.199,0.764628
253.7,1.72475,255.166,0.764225
253.6,0.502725,255.331,0.766229
253.5,0.687665,255.524,0.768552
253.4,1.59576,255.11,0.763547
253.3,1.58976,255.279,0.765595
253.2,1.54491,255.473,0.767946
253.1,1.68632,255.293,0.765761
253,0.577951,255.402,0.767088
252.9,1.10269,255.538,0.768732
252.8,1.29048,255.002,0.762249
252.7,0.975615,255.163,0.764193
252.6,0.949422,255.441,0.767554
252.5,1.46324,255.447,0.767626
252.4,-0.0322472,255.364,0.766617
252.3,0.910473,255.377,0.766775
252.2,0.29275,255.248,0.765221
252.1,0.371718,255.384,0.766862
252,0.362817,255.533,0.768672
251.9,0.908399,255.636,0.76991
251.8,-0.256485,255.622,0.769742
251.7,1.24478,255.809,0.772005
251.6,1.24414,255.794,0.771822
251.5,1.32922,255.583,0.769273
251.4,0.530611,255.788,0.771747
251.3,1.27917,255.556,0.768941
251.2,1.23679,255.488,0.768117
251.1,0.957316,255.543,0.768789
251,1.01628,255.102,0.763454
250.9,1.87669,255.62,0.769723
250.8,0.432416,255.661,0.770209
250.7,1.81525,255.923,0.773382
250.6,0.558628,255.825,0.772195
250.5,0.689734,255.74,0.771171
250.4,1.07582,255.674,0.770373
250.3,1.08032,255.591,0.769369
250.2,0.483925,255.756,0.771359
250.1,1.50906,255.916,0.773297
250,-0.298899,255.54,0.768754
249.9,1.0495,255.911,0.773238
249.8,1.82863,255.837,0.772344
249.7,0.107156,255.526,0.768585
249.6,0.492743,255.499,0.76826
249.5,1.37403,255.84,0.772378
249.4,0.471067,255.822,0.772152
249.3,0.37704,255.702,0.770712
249.2,0.60942,255.905,0.773165
249.1,0.549953,256.041,0.774801
249,0.850431,255.77,0.77153
248.9,0.44684,255.903,0.773141
248.8,1.405,255.748,0.77127
248.7,0.119001,255.868,0.772713
248.6,1.46431,255.63,0.769843
248.5,0.634469,255.664,0.770255
248.4,1.06723,255.845,0.772433
248.3,2.06261,255.417,0.76726
248.2,0.783007,255.678,0.770413
248.1,1.23884,256.029,0.774657
248,0.414771,255.819,0.772123
247.9,1.40112,255.336,0.76629
247.8,1.44745,255.779,0.771638
247.7,1.74472,255.287,0.765694
247.6,0.895527,255.835,0.772313
247.5,1.25521,256.097,0.775474
247.4,1.34607,255.575,0.769177
247.3,0.804213,255.924,0.773391
247.2,1.63434,255.881,0.772866
247.1,-0.216104,255.987,0.774146
247,0.163979,255.904,0.773149
246.9,0.74171,256.012,0.77445
246.8,1.42483,256.262,0.777462
246.7,1.69792,256.285,0.777746
246.6,0.73361,255.833,0.772291
246.5,0.816608,256.153,0.776157
246.4,1.73117,256.417,0.779337
246.3,0.953343,256.203,0.776754
246.2,1.56888,256.391,0.779018
246.1,-0.799271,256.02,0.774551
246,1.06998,256.528,0.780672
245.9,1.13454,256.402,0.779149
245.8,-0.19264,256.476,0.780047
245.7,-0.099816,256.028,0.774649
245.6,0.971088,255.994,0.774233
245.5,1.52759,256.475,0.780037
245.4,2.44991,256.228,0.777056
245.3,1.30467,256.104,0.775561
245.2,1.5344,256.011,0.774437
245.1,0.590082,255.993,0.774223
245,0.702159,256.487,0.780173
244.9,1.57736,256.227,0.777042
244.8,0.580803,256.148,0.776089
244.7,1.52897,256.212,0.776863
244.6,1.17948,256.059,0.775021
244.5,0.427134,256.497,0.780301
244.4,1.35764,256.529,0.78068
244.3,0.266344,256.147,0.776086
244.2,1.24869,256.711,0.782879
244.1,0.601555,256.339,0.778393
244,0.827947,256.188,0.776573
243.9,0.978173,256.506,0.780411
243.8,-0.090682,256.489,0.780199
243.7,0.121101,256.085,0.775334
243.6,0.82769,256.387,0.778977
243.5,0.0606075,256.858,0.784649
243.4,1.34028,256.88,0.784915
243.3,0.147918,256.551,0.780948
243.2,-0.61632,256.379,0.778876
243.1,0.72923,256.481,0.780112
243,1.21557,256.734,0.783155
242.9,1.23377,256.358,0.77862
242.8,0.172745,256.446,0.779687
242.7,1.01305,256.689,0.78261
242.6,-0.038512,256.56,0.781061
242.5,0.862439,256.835,0.784369
242.4,2.44642,256.275,0.777625
242.3,0.562864,257.054,0.787006
242.2,0.501533,256.768,0.783558
242.1,0.719651,256.724,0.783029
242,-0.0273144,256.981,0.786132
241.9,0.768265,257.111,0.787694
241.8,0.803603,256.993,0.786275
241.7,1.66714,256.828,0.784286
241.6,1.12483,256.953,0.785794
241.5,0.704298,257.275,0.789662
241.4,1.12789,256.609,0.781653
241.3,0.849193,257.019,0.786587
241.2,0.407054,256.949,0.78574
241.1,1.60063,257.124,0.787845
241,1.47809,257.262,0.789509
240.9,-0.478675,257.041,0.786849
240.8,-0.127072,257.303,0.790002
240.7,0.00121176,257.347,0.790527
240.6,0.0921842,257.627,0.793891
240.5,1.07066,257.467,0.791964
240.4,0.114253,257.332,0.790346
240.3,-0.137802,257.738,0.795226
240.2,0.693875,257.422,0.791429
240.1,-0.123672,257.441,0.791655
240,1.37425,257.534,0.792769
239.9,0.274506,257.409,0.791274
239.8,-0.311934,256.868,0.784763
239.7,1.25829,257.264,0.789527
239.6,0.923095,257.773,0.795637
239.5,0.550141,257.708,0.794859
239.4,0.652395,257.492,0.792269
239.3,-0.660212,258.008,0.798461
239.2,1.24715,258.458,0.803856
239.1,0.691306,257.732,0.795155
239,1.04794,258.11,0.799682
238.9,0.224368,258.44,0.80364
238.8,-0.381673,258.088,0.799417
238.7,0.853941,258.087,0.799403
238.6,0.525108,258.023,0.798636
238.5,0.979508,258.696,0.806704
238.4,1.60287,258.373,0.80283
238.3,1.3847,257.957,0.797854
238.2,0.657322,258.371,0.802806
238.1,-0.0334229,258.927,0.809461
238,0.948633,258.832,0.808328
237.9,0.891626,258.98,0.810101
237.8,1.78395,258.635,0.805971
237.7,0.259791,258.775,0.807651
237.6,0.276148,258.652,0.806173
237.5,-0.301822,259.268,0.813545
237.4,1.04812,259.554,0.816951
237.3,0.586731,259.222,0.81299
237.2,1.20467,259.111,0.81166
237.1,-0.515908,259.539,0.816775
237,0.0869291,259.138,0.811983
236.9,0.606069,259.515,0.816492
236.8,0.181143,259.326,0.814228
236.7,0.703348,259.507,0.816397
236.6,0.92401,259.301,0.813935
236.5,0.335931,259.587,0.817347
236.4,-0.524973,259.386,0.814943
236.3,0.0105529,260.265,0.825425
236.2,0.701259,260.036,0.822696
236.1,-0.469741,259.911,0.821207
236,-0.403691,259.643,0.818016
235.9,0.100424,260.077,0.823192
235.8,-0.00278325,259.801,0.819904
235.7,0.736053,260.133,0.82385
235.6,0.246546,259.944,0.821597
235.5,-0.514377,259.965,0.821857
235.4,0.236222,260.225,0.824954
235.3,-0.342944,260.629,0.829754
235.2,0.174755,260.694,0.830525
235.1,-1.55514,260.851,0.832397
235,0.117285,260.55,0.828814
234.9,0.377261,260.349,0.826429
234.8,1.15685,260.674,0.830298
234.7,1.2069,261,0.834167
234.6,0.496671,260.561,0.828954
234.5,-0.406437,260.746,0.831144
234.4,-0.476987,260.794,0.83172
234.3,-0.165014,260.865,0.832567
234.2,0.806516,261.582,0.841075
234.1,-1.41441,261.188,0.836393
234,-1.05772,261.211,0.83667
233.9,-0.727518,261.778,0.843395
233.8,0.0803762,262.3,0.849575
233.7,0.496318,261.585,0.841104
233.6,-1.31786,261.474,0.839791
233.5,1.72158,261.935,0.84525
233.4,-0.778992,261.969,0.845654
233.3,0.246283,261.498,0.840078
233.2,0.725919,261.726,0.842779
233.1,-0.155705,261.282,0.837507
233,-0.560533,262.233,0.848782
232.9,-1.1585,261.678,0.842207
232.8,-1.16447,261.856,0.844323
232.7,-1.79299,262.182,0.848181
232.6,-0.871069,262.409,0.850863
232.5,0.134177,262.659,0.85382
232.4,-1.47957,262.066,0.846808
232.3,-0.427156,262.449,0.85134
232.2,-0.492232,262.709,0.854408
232.1,-1.65207,262.26,0.849096
232,0.129848,263.044,0.858364
231.9,0.473376,262.831,0.85585
231.8,-0.418283,262.857,0.856157
231.7,-0.805025,262.651,0.853717
231.6,-1.1421,263.166,0.859804
231.5,-1.24056,263.607,0.865003
231.4,-0.937765,262.984,0.857654
231.3,-0.260271,263.575,0.864624
231.2,-0.857238,263.643,0.865423
231.1,-0.850846,263.157,0.859694
231,-0.052228,263.349,0.86196
230.9,-0.54026,263.454,0.863198
230.8,-0.575461,263.586,0.864749
230.7,-0.274652,263.472,0.863415
230.6,-0.943342,263.808,0.867369
230.5,-0.399879,263.88,0.868216
230.4,-0.295297,263.353,0.86201
230.3,-0.884366,263.558,0.864424
230.2,-1.43926,263.482,0.863523
230.1,-1.70624,263.965,0.86921
230,-0.816677,264.036,0.870044
229.9,-1.349,263.48,0.863498
229.8,-0.830682,263.618,0.865125
229.7,-0.0436144,263.471,0.863403
229.6,-0.0507709,263.773,0.866953
229.5,-0.897196,263.958,0.869126
229.4,-0.202769,263.648,0.865479
229.3,-0.535999,263.858,0.867951
229.2,-0.327379,263.838,0.867716
229.1,-1.59651,264.089,0.870674
229,-1.18762,264.714,0.878016
228.9,-1.54783,264.652,0.877291
228.8,-0.627553,264.284,0.872969
228.7,-0.532968,265.278,0.884627
228.6,-1.83992,265.712,0.889713
228.5,-0.428486,264.952,0.88081
228.4,-1.65899,265.318,0.885098
228.3,-1.57701,265.394,0.885994
228.2,-1.06058,265.653,0.889019
228.1,-0.944484,265.69,0.889457
228,-1.60433,265.926,0.892217
227.9,-2.01751,266.235,0.895822
227.8,-1.07003,266.211,0.895551
227.7,-0.510354,265.753,0.890196
227.6,-1.04862,266.575,0.899801
227.5,-2.40996,265.941,0.892386
227.4,-0.855433,266.643,0.900588
227.3,-1.94082,266.45,0.898337
227.2,-1.84414,266.749,0.901832
227.1,-1.01465,266.875,0.903292
227,-0.898178,266.531,0.899285
226.9,-0.655644,267.092,0.905831
226.8,-0.69909,266.958,0.904261
226.7,-1.09597,266.826,0.902727
226.6,-1.94898,267.309,0.908355
226.5,-1.26822,267.197,0.907045
226.4,-2.00806,267.508,0.910664
226.3,-2.31164,267.232,0.907454
226.2,-1.7216,267.369,0.909054
226.1,-2.76357,267.077,0.905646
226,-1.37693,267.361,0.908958
225.9,-2.20674,266.886,0.903427
225.8,-0.0176081,266.971,0.904418
225.7,-2.10386,267.594,0.911673
225.6,-0.450026,267.988,0.916251
225.5,-1.76517,267.927,0.915541
225.4,-1.45867,268.375,0.920749
225.3,-2.61016,268.345,0.920395
225.2,-1.92401,268.323,0.920135
225.1,-1.25222,268.361,0.920579
225,-1.80802,268.386,0.92087
224.9,-1.47292,268.65,0.923929
224.8,-1.71686,268.751,0.925105
224.7,-1.53613,268.595,0.923292
224.6,-2.03159,268.721,0.924752
224.5,-0.675047,269.218,0.930509
224.4,-1.82002,268.924,0.927104
224.3,-1.09957,269.207,0.930383
224.2,-1.34706,269.527,0.934089
224.1,-2.85911,269.282,0.931251
224,-0.822522,269.374,0.932321
223.9,-1.83445,269.448,0.933172
223.8,-1.35511,269.459,0.9333
223.7,-1.75218,269.929,0.938736
223.6,-0.585735,269.527,0.934093
223.5,-2.0956,269.977,0.939289
223.4,-2.3238,269.472,0.933455
223.3,-3.11479,270.255,0.942497
223.2,-1.21267,270.281,0.942799
223.1,-1.21855,270.315,0.943186
223,-0.970382,270.181,0.941642
222.9,-1.72927,270.73,0.94798
222.8,-2.7357,271.168,0.95302
222.7,-1.77394,270.476,0.945043
222.6,-2.38472,270.876,0.949655
222.5,-1.96258,270.751,0.94822
222.4,-2.16225,270.583,0.946279
222.3,-1.60513,271.611,0.958108
222.2,-1.90796,271.322,0.954794
222.1,-2.04909,270.933,0.950317
222,-2.47035,270.902,0.949952
221.9,-1.78662,271.189,0.953256
221.8,-2.85063,271.434,0.956079
221.7,-0.516026,271.428,0.956004
221.6,-0.691657,271.453,0.956296
221.5,-0.711128,271.187,0.953234
221.4,-1.98826,271.61,0.958095
221.3,-2.08349,271.635,0.958388
221.2,-0.48885,271.002,0.951103
221.1,-0.385023,271.842,0.960764
221,-2.15888,271.798,0.960255
220.9,-2.56196,272.247,0.965412
220.8,-2.09178,272.213,0.965019
220.7,-2.36188,272.058,0.963248
220.6,0.140037,272.005,0.962634
220.5,-0.00996567,271.982,0.962375
220.4,-2.90487,272.538,0.968747
220.3,-0.77711,272.707,0.970681
220.2,-1.00562,272.21,0.964982
220.1,-1.72447,272.2,0.964871
220,-1.91038,272.302,0.966037
219.9,-1.58891,273.09,0.975064
219.8,-2.44419,272.92,0.973124
219.7,-0.356442,272.735,0.971
219.6,-0.91668,272.646,0.969982
219.5,-1.50144,273.409,0.978719
219.4,-1.33018,273.284,0.977281
219.3,-1.55263,272.862,0.972453
219.2,-1.62932,273.228,0.976648
219.1,-1.20954,273.156,0.97582
219,-1.56862,273.554,0.980366
218.9,-2.50798,273.33,0.977815
218.8,-0.863604,272.981,0.973816
218.7,-1.52714,273.439,0.97906
218.6,-1.26725,273.613,0.981039
218.5,-4.01211,273.234,0.976708
218.4,-2.09571,273.554,0.980367
218.3,-2.89759,274.026,0.985762
218.2,-0.643392,273.323,0.977728
218.1,-1.37678,274.252,0.988333
218,-1.78887,273.688,0.981901
217.9,-1.41893,274.241,0.98821
217.8,-2.2996,273.913,0.984463
217.7,-0.840906,274.761,0.994132
217.6,-1.39295,273.943,0.984807
217.5,-1.21751,274.482,0.99096
217.4,-2.48512,274.393,0.989939
217.3,-2.33923,274.348,0.989427
217.2,-0.681375,275.18,0.998901
217.1,-1.80973,274.756,0.994074
217,-1.40896,274.839,0.995013
216.9,-1.44853,275.438,1.00183
216.8,-2.60385,274.993,0.996774
216.7,-0.0570951,275.554,1.00315
216.6,-2.19154,275.286,1.0001
216.5,-1.19357,275.016,0.997029
216.4,-3.86817,275.423,1.00166
216.3,-1.41199,275.441,1.00186
216.2,-0.505061,275.329,1.00059
216.1,-1.82457,275.684,1.00462
216,-2.40611,275.202,0.999146
215.9,-2.11114,275.778,1.00569
215.8,-1.42772,275.78,1.00571
215.7,-1.86937,276.239,1.01091
215.6,-0.549565,276.098,1.00931
215.5,-1.33821,276.235,1.01087
215.4,-2.4735,276.584,1.01482
215.3,-1.94205,276.085,1.00917
215.2,-1.75357,276.278,1.01135
215.1,-1.81364,276.304,1.01166
215,-1.29318,276.682,1.01593
214.9,-0.764275,276.98,1.01931
214.8,-0.126536,276.289,1.01148
214.7,-1.54503,277.242,1.02226
214.6,-1.3231,277.065,1.02026
214.5,-0.467265,276.605,1.01506
214.4,-3.34576,276.564,1.01459
214.3,-1.35412,276.808,1.01736
214.2,-0.54299,276.882,1.01819
214.1,-1.44164,277.109,1.02076
214,-3.41824,277.164,1.02138
213.9,-1.00442,277.532,1.02553
213.8,-1.78572,277.435,1.02444
213.7,-1.20695,277.539,1.02561
213.6,-1.51604,277.383,1.02385
213.5,-0.942323,277.49,1.02506
213.4,-0.977186,277.731,1.02778
213.3,-1.97205,277.803,1.02859
213.2,-1.62207,277.638,1.02673
213.1,-1.34748,277.776,1.02829
213,-1.41256,277.617,1.02649
212.9,-1.38746,277.927,1.02999
212.8,-0.738254,277.835,1.02895
212.7,-1.98155,277.85,1.02912
212.6,-2.24982,277.975,1.03053
212.5,-0.888051,278.666,1.03831
212.4,-1.93365,278.641,1.03803
212.3,-2.03121,278.215,1.03324
212.2,-0.608598,278.225,1.03335
212.1,-1.17559,278.933,1.04131
212,-1.25343,278.834,1.0402
211.9,-0.523634,279.059,1.04273
211.8,-1.93061,278.846,1.04034
211.7,-1.0642,279.013,1.04221
211.6,-1.47718,279.518,1.04789
211.5,-1.92074,279.948,1.0527
211.4,-1.61392,279.269,1.04509
211.3,-2.15293,279.789,1.05092
211.2,-1.46023,279.931,1.05252
211.1,-2.34447,279.739,1.05036
211,0.74733,280.117,1.05459
210.9,-0.760138,280.186,1.05537
210.8,-0.331332,279.91,1.05227
210.7,-0.802871,280.57,1.05966
210.6,-1.13467,280.307,1.05673
210.5,-1.26755,280.251,1.0561
210.4,-2.11501,280.159,1.05507
210.3,-0.703866,280.31,1.05676
210.2,-2.53698,281.026,1.06476
210.1,-1.58619,281.059,1.06513
210,-1.24537,281.254,1.06731
209.9,-1.50908,280.996,1.06443
209.8,-3.79499,281.403,1.06897
209.7,-1.09093,281.297,1.06778
209.6,-2.15429,280.925,1.06363
209.5,-1.88009,281.668,1.07193
209.4,-1.58101,281.877,1.07425
209.3,-1.33236,281.93,1.07484
209.2,-1.51842,282.171,1.07753
209.1,-1.06686,282.498,1.08117
209,-1.40821,282.362,1.07966
208.9,-2.19458,282.607,1.08238
208.8,-0.519308,282.264,1.07857
208.7,-1.68676,282.436,1.08048
208.6,-3.0957,282.835,1.08491
208.5,-1.65383,283.021,1.08698
208.4,-2.88081,283.333,1.09045
208.3,-2.00599,283.599,1.09339
208.2,-1.07695,283.05,1.08731
208.1,-0.708246,283.388,1.09105
208,-2.46697,283.633,1.09377
207.9,-0.193643,283.673,1.09422
207.8,-1.69239,283.978,1.09759
207.7,-0.349324,284.007,1.09792
207.6,-2.57798,283.753,1.0951
207.5,-2.81132,284.676,1.10531
207.4,-1.44213,284.25,1.1006
207.3,-0.313095,284.381,1.10205
207.2,-0.714121,284.608,1.10456
207.1,-0.742487,284.939,1.10822
207,-0.710164,285.432,1.11365
206.9,-2.07312,285.37,1.11297
206.8,-0.872935,285.435,1.11369
206.7,-0.745812,285.378,1.11306
206.6,-0.659332,285.151,1.11055
206.5,-0.712844,285.6,1.11551
206.4,0.297327,286.121,1.12124
206.3,-0.293833,286.28,1.12299
206.2,-1.39688,286.414,1.12447
206.1,-1.72204,286.578,1.12627
206,0.835074,286.687,1.12747
205.9,-2.137,287.267,1.13383
205.8,-1.89613,287.023,1.13116
205.7,-0.57006,287.398,1.13527
205.6,-0.721023,287.141,1.13245
205.5,-1.61551,287.155,1.13261
205.4,0.0344994,287.582,1.13728
205.3,0.371998,287.77,1.13934
205.2,-0.356047,288.192,1.14396
205.1,-0.866645,288.538,1.14775
205,-1.12174,288.617,1.14861
204.9,-0.492119,288.391,1.14614
204.8,-1.58947,288.688,1.14939
204.7,-1.15201,288.872,1.1514
204.6,-2.06132,289.21,1.15508
204.5,0.709874,289.177,1.15472
204.4,-1.79869,289.704,1.16046
204.3,0.242769,289.965,1.16331
204.2,-0.0815958,290.01,1.16379
204.1,1.95305,290.263,1.16655
204,1.07726,290.379,1.16781
203.9,0.189311,290.915,1.17364
203.8,1.962,291.128,1.17594
203.7,1.1671,290.983,1.17437
203.6,-0.367817,291.468,1.17963
203.5,-0.402006,291.82,1.18344
203.4,1.83717,291.716,1.18232
203.3,1.39205,292.031,1.18572
203.2,1.58909,292.414,1.18987
203.1,2.19111,292.285,1.18847
203,1.94659,292.827,1.19432
202.9,3.05567,292.904,1.19515
202.8,0.521142,293.008,1.19628
202.7,2.45907,292.819,1.19424
202.6,4.87662,293.4,1.20051
202.5,1.47437,293.598,1.20263
202.4,1.90618,294.056,1.20757
202.3,3.69317,294.516,1.21251
202.2,2.18119,294.697,1.21446
202.1,3.96245,295.176,1.21959
202,2.79961,295.08,1.21857
201.9,1.83824,295.122,1.21901
201.8,3.59718,295.749,1.22573
201.7,2.9525,296.08,1.22928
201.6,1.0394,296.424,1.23295
201.5,0.962354,296.922,1.23827
201.4,2.92511,296.701,1.23591
201.3,4.0662,297.082,1.23998
201.2,3.28806,297.424,1.24362
201.1,2.95493,297.71,1.24667
201,3.31713,297.615,1.24566
200.9,1.6313,297.848,1.24813
200.8,3.98652,298.162,1.25148
200.7,4.19271,298.904,1.25936
200.6,3.02715,299.008,1.26046
200.5,3.42539,299.471,1.26536
200.4,4.70136,299.358,1.26417
200.3,4.59287,299.736,1.26818
200.2,4.60597,299.678,1.26757
200.1,4.1923,300.234,1.27344
200,3.15336,300.462,1.27585
199.9,3.49644,300.851,1.27995
199.8,5.26737,301.133,1.28293
199.7,4.88596,301.304,1.28474
199.6,3.49651,301.72,1.28911
199.5,3.22097,302.173,1.29388
199.4,5.46954,302.007,1.29214
199.3,4.69706,302.2,1.29417
199.2,6.18923,302.098,1.2931
199.1,7.31502,302.648,1.29888
199,5.35927,303.188,1.30454
198.9,4.89014,303.03,1.30288
198.8,4.92052,303.712,1.31003
198.7,5.01583,303.855,1.31153
198.6,5.29366,303.999,1.31303
198.5,6.18023,304.183,1.31496
198.4,7.26113,304.718,1.32055
198.3,3.59234,304.677,1.32012
198.2,7.27434,304.709,1.32046
198.1,6.50579,304.607,1.3194
198,6.40411,305.608,1.32983
197.9,5.66223,305.524,1.32896
197.8,5.96427,305.822,1.33206
197.7,5.90698,306.093,1.33488
197.6,6.97802,306.306,1.33709
197.5,6.80263,306.416,1.33824
197.4,6.7427,306.682,1.341
197.3,8.37872,307.197,1.34634
197.2,7.63083,307.225,1.34664
197.1,7.5897,307.707,1.35164
197,8.78496,307.77,1.35228
196.9,6.04863,307.646,1.351
196.8,5.68004,308.609,1.36096
196.7,10.5565,308.911,1.36408
196.6,8.16024,309.327,1.36837
196.5,9.1473,309.35,1.36861
196.4,7.52073,309.844,1.3737
196.3,9.0805,310.036,1.37568
196.2,7.89996,310.355,1.37896
196.1,9.34522,310.636,1.38185
196,9.70346,311.254,1.38819
195.9,8.08995,311.112,1.38674
195.8,8.50991,312.114,1.39701
195.7,8.53066,312.057,1.39642
195.6,7.81498,312.415,1.40008
195.5,7.89465,312.784,1.40385
195.4,7.2547,313.204,1.40815
195.3,8.20678,313.342,1.40955
195.2,6.1584,313.74,1.41361
195.1,8.15059,314.219,1.41849
195,6.0919,314.277,1.41908
194.9,7.01816,314.813,1.42453
194.8,9.79255,315.271,1.42918
194.7,7.63602,315.317,1.42965
194.6,9.22878,315.654,1.43306
194.5,9.49684,315.72,1.43373
194.4,8.66134,316.457,1.4412
194.3,7.91657,317.033,1.44701
194.2,7.98686,317.683,1.45358
194.1,5.54093,318.537,1.46218
194,8.42851,318.929,1.46612
193.9,8.81181,319.548,1.47234
193.8,10.0837,320.031,1.47718
193.7,7.81505,321.102,1.4879
193.6,9.09544,321.313,1.49001
193.5,7.77326,321.728,1.49416
193.4,8.06425,322.314,1.5
193.3,10.7677,322.923,1.50606
193.2,9.65259,323.1,1.50782
193.1,12.0266,324.347,1.5202
193,7.22687,324.389,1.52061
192.9,7.45754,325.081,1.52747
192.8,8.20237,325.849,1.53506
192.7,9.57558,326.358,1.54008
192.6,8.66742,327.316,1.54951
192.5,9.03141,328.42,1.56036
192.4,10.9224,329.084,1.56687
192.3,9.57451,330.086,1.57666
192.2,9.70156,330.9,1.58461
192.1,10.0355,331.146,1.58701
192,7.29906,332.045,1.59575
191.9,6.43366,333.232,1.60727
191.8,9.23726,334.161,1.61626
191.7,8.59783,334.534,1.61987
191.6,10.1134,335.783,1.63191
191.5,9.24652,336.473,1.63854
191.4,7.61956,338.269,1.65577
191.3,7.9524,339.197,1.66464
191.2,10.8488,340.094,1.67319
191.1,8.43819,341.557,1.6871
191,9.17993,342.465,1.69572
190.9,8.34461,344.164,1.71177
190.8,9.05755,345.99,1.72896
190.7,9.95766,347.054,1.73894
190.6,8.86017,348.686,1.75419
190.5,8.54265,349.811,1.76467
190.4,8.36395,351.308,1.77857
190.3,8.20044,352.266,1.78744
190.2,9.52809,354.102,1.80438
190.1,6.6029,355.028,1.81291
190,7.43037,356.466,1.8261
,,,
##### Extended Information,,,
[Comments],,,
Sample name,class,,
Comment,,,
User,,,
Division,,,
Company,Saint Mary's College,,
,,,
[Detailed Information],,,
Creation date,9/29/2021 17:04,,
,,,
Data array type,Linear data array * 3,,
Horizontal axis,Wavelength [nm],,
Vertical axis(1),CD [mdeg],,
Vertical axis(2),HT [V],,
Vertical axis(3),Abs,,
Start,290 nm,,
End,190 nm,,
Data interval,0.1 nm,,
Data points,1001,,
,,,
[Measurement Information],,,
Instrument name,J-1500,,
Model name,J-1500,,
Serial No.,B051061638,,
,,,
Detector,PM-539,,
Detector S/N,B051061638,,
  Lock-in amp.,X mode,,
  HT volt,Auto,,
,,,
Accessory,PTC-517,,
Accessory S/N,B026561646,,
  Temperature,22.61 C,,
  Control sensor,Holder,,
  Monitor sensor,Holder,,
,,,
Measurement date,9/29/2021 17:03,,
,,,
CD Overload detect,815,,
Photometric mode,CD, HT, Abs
Measure range,290 - 190 nm,,
Data pitch,0.1 nm,,
CD scale,20 mdeg/0.05 dOD,,
FL scale,20 mdeg/0.05 dOD,,
D.I.T.,64 msec,,
Bandwidth,1.00 nm,,
Start mode,Immediately,,
Scanning mode,Continuous,,
Scanning speed,50 nm/min,,
Baseline correction,None,,
Shutter control,Auto,,
No. of cycle,1-Jan,,
N2 Flowmeter,Manual,,
