TITLE,class,,
DATA TYPE,,,
ORIGIN,JASCO,,
OWNER,,,
DATE,21/09/29,,
TIME,17:22:56,,
SPECTROMETER/DATA SYSTEM,,,
LOCALE,1033,,
RESOLUTION,,,
DELTAX,-0.1,,
XUNITS,NANOMETERS,,
YUNITS,CD [mdeg],,
Y2UNITS,HT [V],,
Y3UNITS,ABSORBANCE,,
FIRSTX,290,,
LASTX,190,,
NPOINTS,1001,,
FIRSTY,2.22094,,
MAXY,5.38507,,
MINY,-0.49913,,
XYDATA,,,
290,2.22094,253.127,0.739472
289.9,1.07741,252.87,0.736344
289.8,1.76061,253.374,0.74248
289.7,1.4895,253.048,0.738504
289.6,1.03769,253.133,0.739548
289.5,1.07103,252.946,0.737266
289.4,1.20666,253.041,0.738424
289.3,0.943748,253.233,0.740762
289.2,1.72059,253.232,0.740752
289.1,1.81173,253.177,0.740086
289,2.03605,253.072,0.738802
288.9,0.786088,253.104,0.739197
288.8,1.24927,253.071,0.738794
288.7,2.07568,253.019,0.73816
288.6,2.54545,252.893,0.736622
288.5,1.69374,253.048,0.738514
288.4,0.670195,253.056,0.738605
288.3,1.85312,252.469,0.731447
288.2,1.95399,253.141,0.739639
288.1,2.24094,252.874,0.736391
288,1.52483,252.835,0.735918
287.9,1.52908,252.855,0.736157
287.8,1.95356,252.926,0.737017
287.7,1.16967,253.019,0.738157
287.6,1.08767,252.88,0.73646
287.5,2.21145,252.77,0.735114
287.4,1.54667,252.989,0.737791
287.3,1.66144,252.898,0.736684
287.2,2.02849,252.939,0.737183
287.1,0.971705,252.958,0.737414
287,2.0291,252.749,0.734864
286.9,1.28398,252.961,0.737446
286.8,1.68516,253.057,0.738616
286.7,1.70866,252.66,0.733774
286.6,1.82136,252.605,0.733107
286.5,2.01713,252.778,0.735216
286.4,1.51372,252.914,0.736876
286.3,1.11882,252.697,0.734225
286.2,1.26738,252.956,0.737392
286.1,0.97896,252.671,0.733908
286,1.31735,252.835,0.735907
285.9,1.41768,252.787,0.735328
285.8,2.05736,252.81,0.735608
285.7,1.56005,252.76,0.735004
285.6,1.03828,252.661,0.733791
285.5,1.55826,252.865,0.736278
285.4,0.801878,252.927,0.737038
285.3,1.34993,252.604,0.733098
285.2,1.67402,252.67,0.733898
285.1,1.12816,252.881,0.736473
285,1.72083,252.961,0.737446
284.9,0.442604,252.466,0.731409
284.8,0.871682,252.922,0.73698
284.7,2.01838,252.512,0.731971
284.6,2.0725,253.176,0.74007
284.5,1.52908,252.315,0.729571
284.4,1.18091,252.731,0.734643
284.3,1.22934,252.295,0.729325
284.2,2.01359,252.089,0.726808
284.1,0.755889,252.842,0.735999
284,0.790603,252.788,0.735341
283.9,1.30915,252.396,0.730551
283.8,1.19352,252.532,0.732215
283.7,1.08144,252.496,0.731774
283.6,1.72298,252.297,0.729342
283.5,1.45988,253.046,0.738481
283.4,0.833966,252.501,0.731838
283.3,0.660614,252.448,0.731196
283.2,1.42057,252.408,0.730707
283.1,1.58429,252.577,0.73277
283,2.21425,252.485,0.731648
282.9,1.68244,252.575,0.732742
282.8,1.30514,252.199,0.728145
282.7,1.74667,252.139,0.727421
282.6,0.178446,252.232,0.728557
282.5,0.805106,252.459,0.731328
282.4,1.86491,252.546,0.732393
282.3,1.21411,252.633,0.733447
282.2,1.1758,252.38,0.730358
282.1,1.30656,252.104,0.72699
282,1.39319,252.215,0.72834
281.9,0.490256,252.252,0.728794
281.8,1.49866,252.299,0.729373
281.7,1.66548,252.262,0.728923
281.6,0.89874,251.913,0.724658
281.5,1.82714,252.305,0.729446
281.4,2.0521,252.742,0.734776
281.3,0.790937,251.956,0.725184
281.2,0.936936,252.701,0.734283
281.1,1.6802,252.414,0.73078
281,0.744357,252.148,0.727532
280.9,0.764977,252.485,0.731641
280.8,1.17052,252.104,0.726992
280.7,1.49655,251.982,0.7255
280.6,0.999462,252.151,0.727567
280.5,1.9619,252.16,0.727672
280.4,1.26783,251.999,0.725707
280.3,1.30224,252.094,0.726869
280.2,1.40446,252.314,0.729555
280.1,1.47201,251.621,0.721077
280,0.976528,252.231,0.728545
279.9,1.38638,252.146,0.727501
279.8,1.4603,252.005,0.725777
279.7,1.75703,251.828,0.723615
279.6,1.57163,252.122,0.727203
279.5,1.45539,251.86,0.724011
279.4,0.849902,252.261,0.728903
279.3,3.38514,251.925,0.724798
279.2,2.57401,252.021,0.725971
279.1,1.51635,252.179,0.727906
279,1.43969,252.11,0.727058
278.9,1.26308,252.132,0.727336
278.8,1.55292,252.148,0.727527
278.7,1.50281,251.943,0.725016
278.6,2.32783,251.897,0.724464
278.5,1.5888,252.252,0.728802
278.4,1.21019,252.148,0.727529
278.3,1.73992,252.032,0.726109
278.2,1.20565,251.876,0.724206
278.1,1.91128,251.879,0.72424
278,1.23911,251.915,0.724677
277.9,1.9414,252.093,0.726859
277.8,0.708213,251.998,0.72569
277.7,1.33637,252.144,0.727475
277.6,1.75893,252.087,0.726777
277.5,1.41698,251.709,0.722156
277.4,1.1533,251.791,0.723157
277.3,0.663193,252.076,0.726641
277.2,1.01799,251.964,0.725283
277.1,1.26752,252.19,0.728039
277,2.28445,251.591,0.720713
276.9,1.7788,251.895,0.724439
276.8,1.97228,251.896,0.724443
276.7,0.613339,251.816,0.723466
276.6,0.714879,252.022,0.725983
276.5,1.56705,251.659,0.721542
276.4,0.600302,252.053,0.726365
276.3,1.82765,251.258,0.716639
276.2,0.780061,251.471,0.719241
276.1,2.73347,251.314,0.717325
276,1.31262,251.798,0.723251
275.9,1.05952,251.753,0.722691
275.8,1.1267,251.92,0.724736
275.7,-0.263177,251.773,0.722943
275.6,0.990622,251.874,0.724174
275.5,1.84076,251.711,0.722182
275.4,1.78401,251.854,0.723937
275.3,1.37231,251.364,0.717927
275.2,1.75688,251.753,0.722696
275.1,1.40115,252.065,0.726509
275,0.877563,251.835,0.723698
274.9,1.40973,251.72,0.722293
274.8,1.0869,251.654,0.721487
274.7,1.25507,251.736,0.72249
274.6,1.84331,251.839,0.723754
274.5,1.26683,251.509,0.719707
274.4,0.332037,251.772,0.722925
274.3,-0.0517033,251.459,0.719097
274.2,1.0503,251.724,0.722338
274.1,1.53814,251.349,0.717745
274,0.724537,251.552,0.720238
273.9,0.453765,251.804,0.723324
273.8,1.18512,251.51,0.719723
273.7,0.530373,251.782,0.723057
273.6,1.33077,251.705,0.722112
273.5,2.88556,251.437,0.718824
273.4,0.887178,251.66,0.721552
273.3,1.30219,251.572,0.720479
273.2,0.95759,251.521,0.719858
273.1,1.26265,251.475,0.719289
273,1.52485,251.623,0.721102
272.9,2.00738,251.756,0.722731
272.8,1.57865,251.733,0.722457
272.7,1.01412,251.64,0.721318
272.6,0.909139,251.588,0.720673
272.5,2.03972,251.698,0.722027
272.4,1.24458,251.548,0.720186
272.3,0.935059,251.423,0.718651
272.2,0.690564,251.635,0.721251
272.1,0.961649,251.381,0.718142
272,1.55487,251.526,0.719915
271.9,0.922896,251.429,0.718724
271.8,0.588142,251.536,0.720035
271.7,1.95854,251.31,0.717269
271.6,1.11208,251.852,0.723909
271.5,0.917635,251.642,0.721341
271.4,0.868576,251.437,0.71883
271.3,1.19198,251.437,0.718828
271.2,0.426911,251.487,0.719438
271.1,0.967722,251.359,0.717877
271,1.31572,251.316,0.717342
270.9,1.1148,251.671,0.721696
270.8,1.05274,251.364,0.717938
270.7,1.03852,251.482,0.719383
270.6,1.25927,251.53,0.719973
270.5,0.075653,251.583,0.72062
270.4,0.823417,251.316,0.717348
270.3,1.40196,251.549,0.720196
270.2,0.211519,251.393,0.718293
270.1,1.36009,251.346,0.717717
270,1.27123,251.498,0.71957
269.9,1.56767,251.687,0.721894
269.8,0.972766,251.762,0.722807
269.7,1.19532,251.498,0.719575
269.6,1.97336,251.578,0.720554
269.5,0.989453,251.686,0.721878
269.4,1.33299,251.933,0.7249
269.3,1.38832,251.485,0.719416
269.2,0.885936,251.585,0.72064
269.1,0.836925,251.614,0.720999
269,0.999444,251.59,0.720698
268.9,1.68908,252.164,0.727719
268.8,1.25558,251.764,0.722837
268.7,0.395457,251.929,0.724848
268.6,0.473558,251.562,0.720363
268.5,1.17149,251.606,0.720899
268.4,0.728692,251.803,0.723305
268.3,1.45676,251.637,0.721273
268.2,0.345712,251.574,0.720505
268.1,1.37144,251.552,0.720241
268,0.409954,251.715,0.722227
267.9,0.256493,251.754,0.722709
267.8,0.953875,251.777,0.722991
267.7,1.64453,251.586,0.720658
267.6,0.963028,251.626,0.721143
267.5,1.12831,251.679,0.721792
267.4,1.82293,251.563,0.720371
267.3,0.562557,251.768,0.722884
267.2,1.70696,251.594,0.720744
267.1,1.55074,251.756,0.722731
267,0.617865,251.736,0.72249
266.9,1.00558,251.768,0.722878
266.8,1.42833,251.771,0.722911
266.7,1.14173,251.716,0.722242
266.6,0.728383,251.913,0.724658
266.5,0.830626,251.339,0.717627
266.4,0.254075,251.52,0.719848
266.3,1.33516,251.807,0.723357
266.2,1.3365,252.006,0.725789
266.1,1.45841,251.626,0.721141
266,0.940205,251.832,0.72366
265.9,0.247082,252.033,0.726119
265.8,0.360856,251.933,0.724897
265.7,1.16023,251.931,0.72488
265.6,2.14157,252.195,0.728107
265.5,0.140515,251.788,0.723123
265.4,1.88736,252.086,0.726771
265.3,0.909795,252.131,0.727321
265.2,0.598474,251.875,0.724187
265.1,0.707037,251.896,0.724443
265,1.17135,251.964,0.72528
264.9,0.903301,252.094,0.726867
264.8,1.03329,252.008,0.725818
264.7,0.281669,252.369,0.730231
264.6,-0.0417635,251.826,0.723594
264.5,0.870886,251.971,0.725359
264.4,1.69321,252.313,0.729541
264.3,1.35966,252.1,0.726935
264.2,1.10083,252.183,0.727958
264.1,1.31533,252.084,0.726746
264,2.09599,252.366,0.73019
263.9,0.651196,252.197,0.728129
263.8,1.01049,251.829,0.723629
263.7,1.70311,252.243,0.72869
263.6,0.670564,252.167,0.727757
263.5,-0.499134,252.225,0.728467
263.4,0.371452,252.455,0.731281
263.3,1.00676,252.335,0.729816
263.2,1.57403,252.301,0.729393
263.1,1.41719,252.352,0.730024
263,0.877954,252.61,0.733172
262.9,2.84512,252.409,0.730714
262.8,1.11761,252.413,0.730762
262.7,0.787769,252.526,0.732142
262.6,0.911983,252.413,0.730766
262.5,1.35595,252.407,0.73069
262.4,0.356444,252.603,0.733084
262.3,0.912189,252.468,0.731437
262.2,0.665352,252.257,0.728863
262.1,1.2684,252.667,0.733867
262,0.798639,252.641,0.733544
261.9,0.415756,252.216,0.728361
261.8,0.0720113,252.197,0.728122
261.7,1.34585,252.608,0.733139
261.6,0.838971,252.281,0.729147
261.5,1.0199,252.613,0.7332
261.4,0.741553,252.87,0.736339
261.3,0.654292,252.599,0.733036
261.2,2.15375,252.534,0.732235
261.1,1.1289,252.681,0.734038
261,0.461809,252.665,0.733843
260.9,0.0601523,252.57,0.73268
260.8,0.670582,252.617,0.733257
260.7,0.266969,252.709,0.73438
260.6,1.18452,252.579,0.732792
260.5,1.24335,252.644,0.733587
260.4,-0.338501,252.874,0.736391
260.3,1.58268,252.908,0.736809
260.2,0.901875,253.051,0.738552
260.1,-0.00867653,252.947,0.737283
260,0.882071,253.252,0.74099
259.9,1.3019,252.997,0.737889
259.8,0.641891,252.837,0.73594
259.7,0.979781,253.277,0.741302
259.6,1.70976,253.266,0.74116
259.5,0.106562,253.128,0.739482
259.4,0.992561,253.039,0.738402
259.3,1.95736,253.186,0.740188
259.2,1.61886,253.37,0.742436
259.1,0.729176,253.183,0.740151
259,1.11879,253.734,0.746862
258.9,1.01782,253.192,0.74026
258.8,2.4853,253.241,0.740864
258.7,0.993078,253.424,0.743086
258.6,1.11536,253.249,0.740962
258.5,0.76738,253.437,0.743241
258.4,1.00174,253.667,0.746046
258.3,1.94397,253.485,0.743836
258.2,0.473181,253.554,0.74467
258.1,0.536038,253.629,0.745586
258,-0.363489,253.386,0.74263
257.9,1.31672,253.43,0.743162
257.8,1.6444,253.736,0.746888
257.7,1.74204,252.83,0.735852
257.6,0.506735,253.722,0.746716
257.5,0.558511,253.592,0.745137
257.4,1.191,254.021,0.750346
257.3,1.46367,253.781,0.747426
257.2,1.39687,253.832,0.748052
257.1,-0.171037,253.231,0.740741
257,1.27317,253.796,0.74761
256.9,0.498185,253.28,0.741331
256.8,1.26832,253.952,0.74951
256.7,1.49581,253.743,0.746968
256.6,0.693952,253.605,0.745294
256.5,1.08803,253.49,0.743886
256.4,-0.170663,253.944,0.749417
256.3,0.236015,253.326,0.74189
256.2,2.05942,253.801,0.747677
256.1,1.17351,253.897,0.748839
256,1.17147,253.626,0.74555
255.9,0.522557,254.13,0.751667
255.8,0.755228,254.271,0.753386
255.7,0.652662,254.295,0.753677
255.6,0.635318,254.015,0.750269
255.5,0.739513,253.992,0.749995
255.4,2.20889,253.741,0.746938
255.3,0.811559,254.291,0.753623
255.2,0.895307,254.086,0.75113
255.1,1.33244,254.082,0.751089
255,0.433665,253.882,0.74866
254.9,0.882785,254.363,0.7545
254.8,0.386335,254.12,0.75155
254.7,0.18794,253.847,0.74823
254.6,0.802766,254.211,0.752659
254.5,1.22078,254.301,0.753746
254.4,1.20135,253.649,0.745828
254.3,0.611013,254.041,0.750594
254.2,1.93691,254.443,0.755471
254.1,0.855987,254.279,0.753481
254,0.186631,254.697,0.758553
253.9,1.02117,253.929,0.749229
253.8,1.34511,254.733,0.758984
253.7,0.678065,254.032,0.750485
253.6,1.3874,254.517,0.756362
253.5,1.26245,254.375,0.754648
253.4,0.739943,254.053,0.750735
253.3,0.276316,254.465,0.755739
253.2,2.0433,254.389,0.754815
253.1,0.86119,254.78,0.759559
253,0.558996,254.747,0.759159
252.9,-0.388292,254.228,0.752859
252.8,0.728579,254.623,0.757657
252.7,0.516816,254.696,0.758538
252.6,0.536272,254.367,0.75455
252.5,1.19834,255.095,0.763372
252.4,0.643146,254.945,0.761553
252.3,0.85383,254.788,0.759655
252.2,0.697182,254.926,0.761323
252.1,1.61957,254.89,0.760884
252,0.859009,255.207,0.764722
251.9,0.0946653,254.917,0.761218
251.8,0.638677,255.048,0.762794
251.7,0.329397,254.564,0.756939
251.6,0.0192981,254.615,0.757549
251.5,0.535544,254.99,0.762094
251.4,0.47253,254.845,0.760341
251.3,2.09159,254.432,0.75533
251.2,1.97788,254.885,0.76082
251.1,1.6808,254.56,0.756893
251,0.909851,255.288,0.765708
250.9,0.902212,255.145,0.763972
250.8,1.42153,255.07,0.763067
250.7,1.34338,254.917,0.761208
250.6,2.07882,255.397,0.767018
250.5,1.64301,254.602,0.757393
250.4,1.11257,254.762,0.759332
250.3,0.866959,255.181,0.76441
250.2,0.844925,255.138,0.763885
250.1,1.523,255.006,0.762297
250,2.59983,254.86,0.760518
249.9,1.13966,255.215,0.764817
249.8,1.11516,254.734,0.758996
249.7,0.237154,254.406,0.755014
249.6,1.63316,254.404,0.754997
249.5,0.626495,254.906,0.761084
249.4,1.28698,254.957,0.761702
249.3,2.04145,254.89,0.760884
249.2,0.769757,254.833,0.760192
249.1,1.55477,254.885,0.760829
249,1.34068,254.939,0.761479
248.9,1.24218,254.807,0.759883
248.8,0.51561,254.786,0.759629
248.7,0.418707,254.964,0.761777
248.6,1.29032,254.593,0.757283
248.5,1.56378,255.044,0.762753
248.4,1.34527,254.791,0.759691
248.3,0.616806,254.615,0.757556
248.2,1.25008,254.602,0.757396
248.1,1.97039,254.839,0.760271
248,0.74451,254.504,0.756213
247.9,1.09747,254.706,0.758663
247.8,1.96264,254.632,0.757764
247.7,0.689373,254.827,0.76012
247.6,1.9287,254.976,0.761925
247.5,0.91004,254.808,0.759899
247.4,2.24791,255.106,0.763506
247.3,0.0690232,254.96,0.761733
247.2,1.21447,255.059,0.762936
247.1,0.158499,255.711,0.770817
247,1.43532,255.386,0.766895
246.9,0.817057,255.274,0.76554
246.8,1.008,254.924,0.761304
246.7,1.18071,255.147,0.764001
246.6,0.725113,255.664,0.77025
246.5,0.201494,255.082,0.763209
246.4,1.83552,255.228,0.764981
246.3,-0.124923,255.344,0.766381
246.2,1.38616,254.953,0.76165
246.1,1.43565,255.313,0.766001
246,1.463,254.878,0.760736
245.9,-0.0860421,255.642,0.76998
245.8,0.365443,255.435,0.767482
245.7,1.33703,255.249,0.765231
245.6,0.521155,255.193,0.764555
245.5,2.39637,255.529,0.768624
245.4,0.425345,255.282,0.765634
245.3,0.850683,255.385,0.766883
245.2,0.771297,255.695,0.770618
245.1,1.30076,255.319,0.766076
245,1.41056,255.439,0.767525
244.9,1.16161,255.791,0.771785
244.8,1.5541,255.362,0.766593
244.7,1.13751,255.332,0.766241
244.6,1.85493,255.349,0.766441
244.5,1.75429,255.505,0.768331
244.4,1.07633,255.663,0.770241
244.3,1.05764,255.274,0.76553
244.2,2.10677,255.844,0.772426
244.1,1.57326,255.759,0.771402
244,2.15438,255.793,0.771809
243.9,1.84039,255.717,0.770895
243.8,1.3398,255.493,0.768184
243.7,-0.0775527,255.123,0.763705
243.6,0.165378,255.654,0.770127
243.5,2.00087,255.314,0.766023
243.4,1.25106,255.861,0.772633
243.3,0.58747,255.868,0.772719
243.2,1.30338,255.612,0.769622
243.1,2.4343,255.217,0.764842
243,1.66668,255.289,0.765713
242.9,1.24521,255.295,0.765785
242.8,1.39752,255.73,0.771053
242.7,0.61689,255.176,0.764352
242.6,1.30437,255.577,0.769196
242.5,1.00559,256.023,0.774584
242.4,1.55694,255.699,0.770676
242.3,1.77508,255.442,0.767566
242.2,0.613296,255.891,0.77299
242.1,1.74295,255.758,0.771381
242,0.666482,255.91,0.773226
241.9,2.23762,255.828,0.772233
241.8,0.535741,255.857,0.77258
241.7,1.04576,255.803,0.771934
241.6,1.49634,255.307,0.765929
241.5,1.31642,256.142,0.776014
241.4,1.06393,256.235,0.777136
241.3,1.81253,255.881,0.772869
241.2,1.62055,256.07,0.775151
241.1,0.409161,256.264,0.777488
241,0.655336,255.762,0.771432
240.9,1.65988,256.39,0.779015
240.8,0.991508,256.126,0.775833
240.7,1.36079,255.859,0.772599
240.6,1.4282,256.339,0.778397
240.5,0.772127,256.096,0.775469
240.4,0.97127,256.708,0.782843
240.3,1.63323,256.365,0.778712
240.2,-0.42316,256.421,0.779387
240.1,1.3341,256.67,0.782386
240,0.676312,256.295,0.77786
239.9,0.991383,256.404,0.779173
239.8,0.400263,256.787,0.783792
239.7,1.37591,256.786,0.783785
239.6,1.53641,256.682,0.782528
239.5,0.913954,257.004,0.786406
239.4,1.20617,257.086,0.787394
239.3,1.42554,256.625,0.781846
239.2,2.41517,256.873,0.784823
239.1,0.520251,256.747,0.783316
239,0.879346,257.268,0.78958
238.9,0.563018,257.04,0.786835
238.8,1.3797,257.087,0.787404
238.7,0.437936,257.143,0.788079
238.6,0.791067,257.013,0.786515
238.5,1.25614,257.191,0.788656
238.4,1.51298,257.847,0.796536
238.3,0.652394,257.073,0.787234
238.2,1.35172,257.565,0.79314
238.1,0.701246,257.311,0.790089
238,1.41341,257.377,0.790887
237.9,0.545379,257.875,0.796861
237.8,1.88406,257.776,0.795678
237.7,1.8638,257.165,0.788339
237.6,1.73873,257.828,0.796297
237.5,2.28084,257.853,0.796601
237.4,0.953093,257.663,0.79432
237.3,1.32695,257.937,0.797613
237.2,0.741358,257.853,0.796608
237.1,0.568752,258.159,0.800267
237,1.18807,257.879,0.79692
236.9,0.646404,258.206,0.800829
236.8,1.57573,257.895,0.797102
236.7,1.89935,258.223,0.801034
236.6,1.443,258.303,0.802002
236.5,0.963933,257.966,0.797961
236.4,0.895143,258.141,0.80006
236.3,0.958692,258.455,0.80382
236.2,2.06066,258.47,0.803996
236.1,0.971678,258.196,0.800714
236,1.96446,258.178,0.800495
235.9,1.32667,258.191,0.800654
235.8,2.24379,258.235,0.801177
235.7,1.14066,258.073,0.799242
235.6,1.15665,258.18,0.800519
235.5,1.29496,258.561,0.805092
235.4,0.93166,258.932,0.809524
235.3,1.46442,258.873,0.808814
235.2,0.778181,259.229,0.813071
235.1,0.0896104,259.09,0.811416
235,2.61533,259.098,0.811511
234.9,1.63621,259.222,0.812995
234.8,0.939615,259.191,0.812619
234.7,1.18151,259.674,0.818384
234.6,2.66524,259.13,0.811887
234.5,0.518432,259.628,0.817837
234.4,1.72998,259.358,0.814615
234.3,1.52112,259.753,0.819328
234.2,1.63025,259.543,0.81682
234.1,0.95311,259.496,0.816255
234,1.26813,259.355,0.814581
233.9,2.63077,259.86,0.820605
233.8,1.50351,259.745,0.819235
233.7,1.00803,259.857,0.820562
233.6,2.12153,259.757,0.819375
233.5,1.3359,260.277,0.825565
233.4,1.57941,260.688,0.830456
233.3,1.75857,260.481,0.827994
233.2,1.0947,260.714,0.830767
233.1,1.21479,260.263,0.825401
233,1.07104,260.615,0.829585
232.9,1.0954,260.362,0.826576
232.8,1.7465,260.287,0.825686
232.7,0.754424,260.722,0.830857
232.6,1.23881,260.693,0.830515
232.5,1.85846,260.479,0.82797
232.4,0.986032,260.419,0.827255
232.3,1.23798,261.069,0.834984
232.2,1.39919,261.015,0.834345
232.1,0.990808,260.369,0.826659
232,1.74788,260.799,0.831781
231.9,1.62664,261.091,0.83525
231.8,1.27551,261.26,0.837255
231.7,1.82364,261.397,0.838882
231.6,1.74294,261.394,0.838847
231.5,1.01207,261.263,0.837282
231.4,1.96601,261.394,0.838838
231.3,0.912951,261.241,0.837022
231.2,1.51336,261.572,0.840951
231.1,0.638768,261.374,0.838608
231,0.754852,261.831,0.844026
230.9,0.618505,261.65,0.841878
230.8,1.56036,261.254,0.83718
230.7,1.17276,261.765,0.843239
230.6,1.61537,261.956,0.8455
230.5,2.74783,261.829,0.843999
230.4,1.63222,261.555,0.840751
230.3,0.987243,261.703,0.842504
230.2,1.0019,261.202,0.836566
230.1,1.27195,261.315,0.837901
230,1.78338,261.349,0.838312
229.9,1.51494,261.639,0.841745
229.8,2.70931,261.552,0.840721
229.7,1.66668,261.525,0.840394
229.6,0.825627,261.527,0.840416
229.5,0.86772,261.493,0.840011
229.4,0.931132,261.659,0.841989
229.3,1.78929,261.608,0.841384
229.2,1.39526,261.857,0.844335
229.1,1.04339,261.972,0.845691
229,0.945601,262.028,0.846357
228.9,1.62825,262.399,0.850744
228.8,1.92241,262.563,0.852688
228.7,2.13453,262.656,0.853776
228.6,2.755,262.889,0.856529
228.5,0.651027,262.853,0.856107
228.4,0.522363,263.026,0.858155
228.3,2.59784,263.082,0.858807
228.2,0.934674,263.454,0.863198
228.1,1.96392,263.263,0.860945
228,1.8425,263.387,0.862413
227.9,1.53973,263.315,0.861558
227.8,1.02576,263.592,0.864823
227.7,1.36373,263.625,0.865217
227.6,1.75794,264.469,0.875136
227.5,2.82164,263.967,0.869243
227.4,2.22794,264.234,0.872373
227.3,1.32909,264.019,0.869855
227.2,1.8213,263.686,0.86593
227.1,1.09975,263.665,0.865684
227,1.1014,264.571,0.876339
226.9,2.08885,264.032,0.870008
226.8,1.70718,264.429,0.874673
226.7,1.70895,264.402,0.874354
226.6,2.0446,264.458,0.875009
226.5,1.9115,264.407,0.874414
226.4,1.73517,264.917,0.880401
226.3,1.4162,264.63,0.877029
226.2,2.80849,264.527,0.875826
226.1,1.43951,264.33,0.873512
226,1.37198,264.541,0.875986
225.9,1.60627,264.88,0.879966
225.8,2.63674,265.065,0.882137
225.7,2.12169,264.742,0.878345
225.6,2.27898,265.313,0.885037
225.5,2.02071,265.318,0.885105
225.4,2.24833,264.913,0.880353
225.3,1.51584,265.81,0.890862
225.2,0.776585,265.523,0.887505
225.1,0.897531,265.389,0.885926
225,1.8677,265.706,0.889637
224.9,1.23861,266.305,0.896643
224.8,2.53859,265.682,0.889359
224.7,2.60558,265.558,0.887907
224.6,1.72578,266.072,0.893917
224.5,1.03728,266.379,0.897515
224.4,1.42775,266.159,0.894942
224.3,1.78906,266.276,0.896305
224.2,1.78712,266.074,0.89395
224.1,3.35048,266.337,0.89702
224,1.39169,266.036,0.893498
223.9,1.04104,266.543,0.899424
223.8,2.13248,266.589,0.89996
223.7,3.18432,266.375,0.897467
223.6,2.53934,266.69,0.901141
223.5,2.75755,266.175,0.895131
223.4,2.84122,267.555,0.911215
223.3,1.59579,266.939,0.904048
223.2,0.768643,266.557,0.899586
223.1,1.9024,266.512,0.899056
223,1.6078,267.143,0.90642
222.9,1.2657,266.771,0.902085
222.8,2.3559,266.97,0.904401
222.7,1.05211,267.196,0.907042
222.6,0.997452,266.947,0.904137
222.5,2.32345,267.506,0.91065
222.4,1.67331,266.991,0.904654
222.3,1.05832,267.573,0.911431
222.2,2.71965,268.138,0.917988
222.1,2.12128,268.019,0.916616
222,2.97798,267.492,0.910481
221.9,1.63731,267.34,0.908711
221.8,0.681957,267.368,0.909042
221.7,1.43489,267.757,0.913561
221.6,2.16515,268.097,0.917516
221.5,2.50509,267.695,0.912849
221.4,1.41628,267.74,0.913366
221.3,1.34752,267.519,0.910793
221.2,1.87306,268.251,0.919307
221.1,1.96285,268.014,0.916553
221,1.75893,268.721,0.924755
220.9,2.02673,268.473,0.921884
220.8,3.41491,268.068,0.917182
220.7,2.11738,268.568,0.92298
220.6,2.52931,268.586,0.923192
220.5,0.982572,268.341,0.920347
220.4,1.97385,268.433,0.921414
220.3,2.64308,268.682,0.92431
220.2,2.81312,268.728,0.924841
220.1,1.56728,268.785,0.925501
220,1.855,268.384,0.920844
219.9,1.73554,268.371,0.920694
219.8,2.56407,268.529,0.922533
219.7,2.10392,269.249,0.930868
219.6,2.41956,269.449,0.933187
219.5,0.67177,269.012,0.928131
219.4,2.45235,269.362,0.932176
219.3,1.90711,269.285,0.931287
219.2,3.22061,269.456,0.93327
219.1,2.05802,269.128,0.929471
219,2.61811,269.584,0.934749
218.9,2.36341,269.354,0.932094
218.8,2.34004,269.317,0.931658
218.7,2.51084,269.344,0.931971
218.6,2.69061,269.231,0.930663
218.5,2.40139,269.961,0.939099
218.4,2.71594,269.834,0.937642
218.3,1.90966,269.983,0.939354
218.2,2.18528,269.302,0.931481
218.1,1.43726,269.85,0.937818
218,3.29288,269.664,0.935668
217.9,2.15938,269.809,0.937352
217.8,1.87249,269.945,0.938916
217.7,1.99074,269.857,0.937898
217.6,2.08348,270.19,0.941751
217.5,2.44257,270.091,0.9406
217.4,1.6183,270.282,0.942813
217.3,2.13705,270.706,0.947701
217.2,2.23831,270.783,0.948582
217.1,4.2,270.585,0.946302
217,2.67081,270.831,0.949142
216.9,2.90653,270.962,0.95065
216.8,2.91417,270.764,0.948362
216.7,3.18378,270.963,0.950653
216.6,3.5603,271.078,0.951985
216.5,2.63338,270.966,0.950694
216.4,3.39291,270.955,0.950569
216.3,3.63198,271.309,0.95464
216.2,1.20746,271.022,0.951338
216.1,2.5854,271.137,0.952663
216,1.99377,271.241,0.953855
215.9,2.259,271.514,0.956991
215.8,2.04659,271.691,0.959035
215.7,2.25312,271.303,0.95457
215.6,1.2688,271.424,0.955959
215.5,1.8607,271.607,0.958067
215.4,1.81446,271.601,0.957997
215.3,3.04925,271.11,0.952347
215.2,2.16202,271.454,0.95631
215.1,2.52684,271.549,0.957396
215,1.98855,271.584,0.9578
214.9,3.35455,271.609,0.958085
214.8,2.47019,271.3,0.95454
214.7,2.92357,272.346,0.966542
214.6,1.52425,272.057,0.96323
214.5,2.29787,272.108,0.963817
214.4,2.32664,271.797,0.960245
214.3,1.95862,272.023,0.962837
214.2,1.13006,271.959,0.962104
214.1,1.60881,271.985,0.962405
214,3.89045,272.036,0.962993
213.9,3.68854,272.247,0.965414
213.8,2.25433,272.244,0.965381
213.7,3.45528,272.407,0.96725
213.6,2.61945,272.312,0.966158
213.5,1.21202,272.568,0.969088
213.4,3.19729,272.573,0.969153
213.3,1.70045,272.405,0.967221
213.2,3.22323,272.697,0.970564
213.1,1.76236,272.765,0.971349
213,2.61541,272.31,0.966135
212.9,2.92525,272.942,0.973374
212.8,2.0174,272.933,0.973268
212.7,1.27646,272.935,0.973298
212.6,1.68768,272.777,0.97149
212.5,2.24336,272.954,0.973508
212.4,2.20704,273.022,0.974288
212.3,2.33077,272.968,0.973672
212.2,3.00655,273.306,0.97754
212.1,2.0233,273.576,0.980616
212,2.36424,273.313,0.977619
211.9,3.44029,273.351,0.978045
211.8,1.18959,273.257,0.97697
211.7,1.37979,273.65,0.981467
211.6,2.48493,273.619,0.981116
211.5,2.10338,273.521,0.979998
211.4,2.189,273.778,0.982922
211.3,1.02839,273.969,0.985109
211.2,2.10446,273.064,0.974771
211.1,2.2682,273.963,0.985038
211,3.15988,274.29,0.988765
210.9,2.03226,273.885,0.984146
210.8,1.6772,274.095,0.986549
210.7,3.69319,274.353,0.989482
210.6,1.58336,274.95,0.996282
210.5,1.32454,274.345,0.98939
210.4,2.18559,274.393,0.989935
210.3,2.2361,274.172,0.987422
210.2,3.46367,274.728,0.993756
210.1,2.15236,274.314,0.989045
210,1.88223,274.645,0.992805
209.9,3.344,274.917,0.995906
209.8,-0.058881,275.065,0.997584
209.7,1.58385,275.271,0.999933
209.6,2.48575,274.809,0.99468
209.5,2.94156,275.121,0.998227
209.4,2.82917,275.139,0.998435
209.3,2.2345,275.374,1.00111
209.2,2.41721,275.468,1.00217
209.1,1.54575,275.414,1.00156
209,2.10091,275.808,1.00603
208.9,2.50531,275.694,1.00473
208.8,2.48927,275.534,1.00292
208.7,3.25795,276.179,1.01023
208.6,2.68363,276.445,1.01325
208.5,2.17062,275.835,1.00633
208.4,1.76313,276.355,1.01223
208.3,3.73265,275.97,1.00787
208.2,3.05003,276.412,1.01287
208.1,2.99841,276.654,1.01561
208,1.20682,276.49,1.01375
207.9,2.74507,276.886,1.01824
207.8,2.4182,276.487,1.01373
207.7,2.05693,277.167,1.02141
207.6,2.78219,277.161,1.02134
207.5,2.12567,277.019,1.01974
207.4,2.12517,276.691,1.01603
207.3,4.40178,277.131,1.02101
207.2,2.10454,277.79,1.02844
207.1,2.06923,277.875,1.02941
207,3.67326,277.725,1.02771
206.9,2.45381,277.714,1.02759
206.8,4.32473,277.755,1.02805
206.7,0.290536,278.273,1.03389
206.6,2.2581,277.851,1.02913
206.5,2.65234,277.876,1.02941
206.4,1.65103,277.846,1.02908
206.3,3.5909,278.028,1.03113
206.2,2.37176,277.944,1.03018
206.1,3.24805,278.565,1.03717
206,2.29176,278.513,1.03659
205.9,3.14477,278.676,1.03842
205.8,1.88013,278.758,1.03934
205.7,3.53515,278.827,1.04012
205.6,2.4527,278.53,1.03678
205.5,2.18618,279.194,1.04424
205.4,2.88816,279.08,1.04296
205.3,1.86318,279.387,1.04641
205.2,2.40291,279.361,1.04612
205.1,1.84587,279.94,1.05261
205,1.84456,279.91,1.05228
204.9,3.78906,280.501,1.0589
204.8,2.73959,279.897,1.05213
204.7,1.29781,280.369,1.05742
204.6,3.27428,280.452,1.05835
204.5,1.35435,280.369,1.05741
204.4,4.06831,281.016,1.06465
204.3,1.46814,280.27,1.05631
204.2,2.29759,280.893,1.06328
204.1,3.64459,281.02,1.0647
204,3.46903,281,1.06447
203.9,1.37427,281.002,1.0645
203.8,1.96404,281.228,1.06702
203.7,3.40734,281.954,1.07511
203.6,2.10251,281.304,1.06787
203.5,2.58894,281.538,1.07047
203.4,2.08918,282.194,1.07779
203.3,2.32253,282.086,1.07658
203.2,2.99069,281.967,1.07526
203.1,2.82351,282.308,1.07906
203,4.47855,282.477,1.08093
202.9,2.30336,282.548,1.08172
202.8,3.46749,282.46,1.08074
202.7,2.46203,282.76,1.08408
202.6,1.29109,282.924,1.0859
202.5,2.92232,282.92,1.08586
202.4,1.37983,283.396,1.09114
202.3,1.93002,283.476,1.09202
202.2,1.47657,283.47,1.09196
202.1,3.7914,284.563,1.10407
202,2.31149,284.174,1.09977
201.9,2.35307,284.415,1.10243
201.8,2.18858,284.843,1.10716
201.7,4.10929,284.457,1.10289
201.6,3.64817,284.816,1.10685
201.5,2.12561,284.983,1.10871
201.4,3.02565,285.321,1.11243
201.3,3.64195,285.111,1.11011
201.2,1.88462,285.602,1.11553
201.1,2.11229,285.642,1.11597
201,3.24504,285.878,1.11857
200.9,1.92499,285.701,1.11662
200.8,0.589701,285.392,1.11322
200.7,2.51826,286.103,1.12104
200.6,2.16417,286.349,1.12376
200.5,3.2574,286.202,1.12213
200.4,2.75832,286.754,1.12821
200.3,2.4582,287.031,1.13125
200.2,2.41948,287.067,1.13164
200.1,1.63849,287.502,1.13641
200,1.79964,287.453,1.13588
199.9,1.64661,287.801,1.13969
199.8,2.40965,287.783,1.13949
199.7,3.13892,288.009,1.14196
199.6,1.86377,287.997,1.14183
199.5,3.76319,287.623,1.13773
199.4,3.40512,288.165,1.14367
199.3,1.88093,288.66,1.14909
199.2,1.85447,288.105,1.14301
199.1,1.02069,288.845,1.1511
199,2.66404,289.432,1.15751
198.9,2.13235,288.585,1.14826
198.8,0.87123,288.81,1.15071
198.7,1.7183,288.924,1.15197
198.6,0.829687,289.27,1.15574
198.5,2.7863,290.054,1.16427
198.4,2.91233,289.627,1.15963
198.3,2.0236,289.78,1.1613
198.2,3.05831,289.991,1.16359
198.1,2.09193,290.121,1.165
198,0.383183,289.996,1.16365
197.9,2.00255,290.355,1.16755
197.8,1.35578,290.697,1.17127
197.7,3.36221,290.755,1.1719
197.6,2.41062,290.83,1.17271
197.5,2.55531,290.94,1.1739
197.4,3.21004,291.357,1.17842
197.3,2.77308,291.52,1.1802
197.2,2.13766,291.58,1.18085
197.1,2.24967,292.021,1.18561
197,1.04089,291.868,1.18396
196.9,2.49417,291.894,1.18424
196.8,3.53183,292.136,1.18686
196.7,3.4649,292.722,1.19319
196.6,2.33802,292.895,1.19506
196.5,1.49479,292.836,1.19442
196.4,3.16461,293.259,1.19899
196.3,3.39823,293.671,1.20343
196.2,2.65728,294.228,1.20942
196.1,1.39969,294.223,1.20936
196,3.19423,294.535,1.21272
195.9,2.50001,295.023,1.21796
195.8,1.69527,295.126,1.21906
195.7,2.89676,295.066,1.21841
195.6,2.55073,295.493,1.22299
195.5,3.15721,295.836,1.22666
195.4,2.09903,296.038,1.22883
195.3,0.888568,296.256,1.23116
195.2,2.95487,296.411,1.23281
195.1,3.78667,296.627,1.23512
195,2.16313,296.987,1.23896
194.9,3.00326,297.239,1.24165
194.8,3.74757,297.519,1.24463
194.7,3.64681,297.677,1.24631
194.6,3.64512,298.046,1.25025
194.5,2.03885,298.493,1.255
194.4,3.72426,298.592,1.25604
194.3,2.48045,298.986,1.26022
194.2,3.01625,299.731,1.26812
194.1,2.46509,300.149,1.27254
194,2.86743,300.867,1.28013
193.9,2.62307,301.226,1.28392
193.8,4.26807,301.941,1.29144
193.7,1.47173,302.664,1.29905
193.6,2.00702,302.892,1.30144
193.5,2.44097,303.563,1.30847
193.4,1.85187,303.66,1.30949
193.3,4.26108,304.078,1.31387
193.2,1.40024,304.458,1.31784
193.1,0.994328,305.032,1.32383
193,5.38507,305.967,1.33357
192.9,1.83134,306.469,1.33879
192.8,3.1754,306.911,1.34338
192.7,1.09678,307.404,1.3485
192.6,2.34775,308.897,1.36394
192.5,2.09138,309.28,1.36789
192.4,0.178114,310.13,1.37664
192.3,3.52209,311.105,1.38666
192.2,4.0515,311.832,1.39411
192.1,2.72706,312.18,1.39768
192,2.40864,312.98,1.40585
191.9,2.00565,313.478,1.41094
191.8,3.26246,315.05,1.42693
191.7,4.48886,314.943,1.42585
191.6,1.96539,316.073,1.43731
191.5,1.23339,316.948,1.44615
191.4,3.60205,317.749,1.45424
191.3,2.88549,319.363,1.47048
191.2,2.205,320.211,1.47898
191.1,2.50877,321.424,1.49112
191,3.3561,322.705,1.5039
190.9,3.60603,323.901,1.51578
190.8,2.10975,325.294,1.52958
190.7,4.10796,327.034,1.54674
190.6,3.1266,327.706,1.55334
190.5,0.242328,329.019,1.56623
190.4,2.02179,330.462,1.58033
190.3,0.322828,332.095,1.59623
190.2,3.36484,333.569,1.61053
190.1,0.387512,334.133,1.61599
190,-0.0622606,335.594,1.63009
,,,
##### Extended Information,,,
[Comments],,,
Sample name,class,,
Comment,,,
User,,,
Division,,,
Company,Saint Mary's College,,
,,,
[Detailed Information],,,
Creation date,9/29/2021 16:22,,
,,,
Data array type,Linear data array * 3,,
Horizontal axis,Wavelength [nm],,
Vertical axis(1),CD [mdeg],,
Vertical axis(2),HT [V],,
Vertical axis(3),Abs,,
Start,290 nm,,
End,190 nm,,
Data interval,0.1 nm,,
Data points,1001,,
,,,
[Measurement Information],,,
Instrument name,J-1500,,
Model name,J-1500,,
Serial No.,B051061638,,
,,,
Detector,PM-539,,
Detector S/N,B051061638,,
  Lock-in amp.,X mode,,
  HT volt,Auto,,
,,,
Accessory,PTC-517,,
Accessory S/N,B026561646,,
  Temperature,22.71 C,,
  Control sensor,Holder,,
  Monitor sensor,Holder,,
,,,
Measurement date,9/29/2021 16:19,,
,,,
CD Overload detect,803,,
Photometric mode,CD, HT, Abs
Measure range,290 - 190 nm,,
Data pitch,0.1 nm,,
CD scale,20 mdeg/0.05 dOD,,
FL scale,20 mdeg/0.05 dOD,,
D.I.T.,64 msec,,
Bandwidth,1.00 nm,,
Start mode,Immediately,,
Scanning mode,Continuous,,
Scanning speed,50 nm/min,,
Baseline correction,None,,
Shutter control,Auto,,
No. of cycle,1-Jan,,
N2 Flowmeter,Manual,,
