TITLE,class
DATA TYPE,
ORIGIN,JASCO
OWNER,
DATE,21/10/06
TIME,16:19:58
SPECTROMETER/DATA SYSTEM,
LOCALE,1033
RESOLUTION,
DELTAX,-0.1
XUNITS,NANOMETERS
YUNITS,CD [mdeg]
Y2UNITS,HT [V]
Y3UNITS,ABSORBANCE
FIRSTX,  290.0000
LASTX,  190.0000
NPOINTS,    1001
FIRSTY,     1.67964
MAXY,    11.05140
MINY,    -3.96735
XYDATA
290.0000,1.67964,253.707,0.746534
289.9000,1.85005,253.863,0.748433
289.8000,1.00621,254.175,0.752219
289.7000,0.483559,254.221,0.752778
289.6000,1.70381,253.944,0.749407
289.5000,0.657726,254.186,0.752345
289.4000,0.935545,253.486,0.743845
289.3000,-0.00987404,254.034,0.750501
289.2000,1.35567,254.015,0.750269
289.1000,1.32326,253.402,0.742817
289.0000,1.61999,254.221,0.752776
288.9000,1.42273,253.717,0.746653
288.8000,1.01665,253.584,0.74504
288.7000,1.25526,253.796,0.747617
288.6000,1.07244,253.811,0.747789
288.5000,0.531087,253.575,0.744927
288.4000,1.51852,253.679,0.746188
288.3000,2.36925,253.769,0.747279
288.2000,2.32791,253.684,0.74625
288.1000,1.75813,253.606,0.745297
288.0000,1.38411,254.09,0.751189
287.9000,0.892496,253.486,0.743839
287.8000,2.40642,253.905,0.748942
287.7000,1.98803,253.537,0.744467
287.6000,0.484623,253.737,0.74689
287.5000,1.59049,253.508,0.744112
287.4000,0.408749,253.751,0.747064
287.3000,1.06847,253.654,0.745883
287.2000,1.00828,253.511,0.744143
287.1000,0.219524,253.802,0.747686
287.0000,1.04053,253.738,0.746913
286.9000,0.654833,253.455,0.74346
286.8000,1.1048,253.842,0.748173
286.7000,0.357778,253.378,0.742526
286.6000,-0.0447987,253.62,0.745474
286.5000,1.69414,253.609,0.745342
286.4000,0.70116,253.656,0.745907
286.3000,0.791426,253.959,0.749588
286.2000,-0.342573,253.785,0.747479
286.1000,2.12405,253.021,0.738176
286.0000,0.988707,253.616,0.745428
285.9000,0.727175,253.287,0.741416
285.8000,1.44686,253.64,0.745721
285.7000,1.43965,253.567,0.744828
285.6000,0.631489,253.794,0.747588
285.5000,2.12941,253.236,0.740798
285.4000,1.3995,253.381,0.742559
285.3000,0.482683,253.297,0.741541
285.2000,1.85257,253.415,0.742978
285.1000,1.02341,253.527,0.744343
285.0000,1.15353,253.405,0.742852
284.9000,0.441902,253.286,0.741409
284.8000,0.894423,253.405,0.742855
284.7000,1.75467,253.498,0.743993
284.6000,0.17452,253.06,0.738661
284.5000,0.820739,253.044,0.738462
284.4000,1.33885,253.172,0.740026
284.3000,0.907173,253.647,0.7458
284.2000,1.1886,252.671,0.733919
284.1000,0.559895,253.285,0.741395
284.0000,0.727092,253.141,0.739637
283.9000,1.50276,253.083,0.738939
283.8000,-0.152801,252.879,0.736453
283.7000,0.475893,253.368,0.742404
283.6000,0.963141,253.008,0.73802
283.5000,1.78067,253.347,0.742147
283.4000,1.09836,253.228,0.740707
283.3000,2.02224,253.279,0.741319
283.2000,1.68703,253.181,0.740124
283.1000,-0.320644,252.574,0.732732
283.0000,1.36891,253.226,0.740678
282.9000,1.30016,252.888,0.736565
282.8000,0.0681694,253.4,0.742798
282.7000,1.04416,253.065,0.738719
282.6000,1.17634,253.315,0.741755
282.5000,0.472124,253.259,0.741081
282.4000,0.489549,253.165,0.739936
282.3000,1.64252,253.444,0.743334
282.2000,0.272248,253.356,0.742259
282.1000,0.686764,252.902,0.736731
282.0000,-0.185071,253.075,0.738837
281.9000,0.610693,253.003,0.737964
281.8000,0.548349,253.174,0.740046
281.7000,0.727189,252.965,0.737496
281.6000,0.573677,253.1,0.739146
281.5000,1.25665,253.003,0.737965
281.4000,0.455071,253.011,0.738064
281.3000,1.38419,252.824,0.735779
281.2000,0.537873,253.435,0.743222
281.1000,0.391172,252.956,0.737385
281.0000,0.921014,253.074,0.738823
280.9000,1.27281,252.87,0.736337
280.8000,0.866463,253.117,0.739344
280.7000,1.28418,252.725,0.734568
280.6000,1.40634,253.296,0.741528
280.5000,0.886043,253,0.737924
280.4000,0.807725,253.139,0.73962
280.3000,1.69764,252.843,0.736009
280.2000,-0.0613416,253.202,0.740391
280.1000,0.828584,253.303,0.741616
280.0000,1.51316,253.418,0.743012
279.9000,1.1487,253.008,0.738022
279.8000,1.36187,253,0.737924
279.7000,0.00916458,252.919,0.736943
279.6000,-0.128701,253.07,0.738773
279.5000,0.536141,252.927,0.737038
279.4000,0.624998,253.193,0.740272
279.3000,-0.0939214,253.189,0.740222
279.2000,0.704671,252.685,0.734088
279.1000,0.663072,252.894,0.736631
279.0000,0.522405,252.95,0.737319
278.9000,1.0175,253.322,0.741847
278.8000,1.11011,252.666,0.733848
278.7000,0.27576,252.434,0.731017
278.6000,1.38463,252.822,0.735755
278.5000,0.960595,252.852,0.736116
278.4000,0.440642,252.909,0.736819
278.3000,0.443065,252.761,0.735005
278.2000,0.844408,252.114,0.727117
278.1000,1.15262,252.727,0.734593
278.0000,0.714425,253.159,0.739856
277.9000,0.918938,252.224,0.728456
277.8000,1.33586,252.82,0.735734
277.7000,-0.117711,253.596,0.745176
277.6000,0.693152,253.02,0.738167
277.5000,1.38865,252.541,0.732327
277.4000,-0.0987699,252.614,0.733221
277.3000,1.2755,252.765,0.735063
277.2000,1.28556,252.37,0.73024
277.1000,1.11683,252.646,0.733611
277.0000,2.41652,253.04,0.738407
276.9000,1.24871,252.57,0.732675
276.8000,1.37462,252.835,0.735911
276.7000,0.407341,252.838,0.735949
276.6000,0.289033,252.588,0.732904
276.5000,0.728157,252.554,0.732484
276.4000,1.65947,253.046,0.738479
276.3000,2.11054,252.347,0.729963
276.2000,1.15487,252.567,0.732644
276.1000,0.49974,252.852,0.736119
276.0000,0.78962,252.503,0.731867
275.9000,0.933024,252.562,0.732586
275.8000,0.659334,252.768,0.735094
275.7000,0.513411,252.807,0.735577
275.6000,0.00434687,252.599,0.733038
275.5000,0.0343327,252.769,0.735113
275.4000,0.841928,252.207,0.728252
275.3000,0.843937,253.149,0.739739
275.2000,0.882898,252.835,0.735912
275.1000,0.362371,252.239,0.728633
275.0000,0.968767,252.672,0.733922
274.9000,0.655826,252.929,0.737062
274.8000,1.26628,252.451,0.731228
274.7000,1.15848,252.628,0.733392
274.6000,0.661283,252.825,0.735797
274.5000,0.878137,252.548,0.732412
274.4000,0.735979,252.365,0.730176
274.3000,0.197266,252.444,0.731148
274.2000,0.741714,252.296,0.729332
274.1000,1.4385,252.432,0.730992
274.0000,0.476429,252.418,0.73083
273.9000,1.39507,252.182,0.727944
273.8000,1.14206,252.82,0.735733
273.7000,-0.210797,252.585,0.732866
273.6000,-0.508869,252.199,0.728153
273.5000,0.0298502,252.434,0.731017
273.4000,0.56685,252.393,0.730522
273.3000,0.00748896,252.574,0.732728
273.2000,1.24096,252.259,0.728882
273.1000,1.08789,252.414,0.730778
273.0000,1.14521,252.366,0.730188
272.9000,0.525303,252.435,0.731027
272.8000,0.605618,252.341,0.729886
272.7000,0.346534,252.457,0.731307
272.6000,-0.63006,252.231,0.728538
272.5000,1.61032,252.471,0.731478
272.4000,0.624591,252.688,0.734118
272.3000,1.54427,252.26,0.728891
272.2000,-0.24324,252.456,0.73129
272.1000,1.29965,252.538,0.732287
272.0000,-0.0329835,252.707,0.734351
271.9000,0.701868,251.979,0.725456
271.8000,0.243417,252.205,0.728225
271.7000,1.45841,252.806,0.735555
271.6000,0.243423,252.049,0.726322
271.5000,0.712214,251.999,0.7257
271.4000,-0.364206,251.854,0.723932
271.3000,0.514841,252.299,0.729377
271.2000,0.507135,252.265,0.728953
271.1000,0.253333,252.723,0.734546
271.0000,1.52381,252.295,0.729325
270.9000,0.262453,252.238,0.728629
270.8000,-0.349012,252.232,0.72855
270.7000,0.338665,252.357,0.730084
270.6000,0.246505,252.305,0.729446
270.5000,1.38011,252.429,0.730963
270.4000,-0.217318,252.785,0.735299
270.3000,1.06119,252.566,0.732637
270.2000,0.913445,252.218,0.72838
270.1000,1.23618,252.268,0.728996
270.0000,0.911055,252.589,0.732915
269.9000,0.83698,252.401,0.730614
269.8000,0.247353,252.201,0.728176
269.7000,-0.404934,253.023,0.738203
269.6000,0.52091,252.41,0.730724
269.5000,0.276534,252.72,0.73451
269.4000,0.807191,252.582,0.73283
269.3000,0.551682,252.523,0.732104
269.2000,0.923952,252.427,0.730935
269.1000,0.0710664,252.166,0.727747
269.0000,1.36648,252.882,0.736486
268.9000,0.0609754,252.456,0.731283
268.8000,0.185355,252.856,0.736166
268.7000,1.12743,252.704,0.734321
268.6000,0.70068,252.388,0.730454
268.5000,0.467276,252.193,0.728081
268.4000,1.22883,252.758,0.734969
268.3000,-0.0168712,252.487,0.731667
268.2000,0.289176,252.844,0.736018
268.1000,0.640876,252.716,0.734461
268.0000,1.24741,253.175,0.740053
267.9000,1.36464,252.561,0.732576
267.8000,-0.278096,253.216,0.74056
267.7000,-0.410484,251.994,0.725645
267.6000,0.468573,252.917,0.736917
267.5000,0.450362,252.121,0.727198
267.4000,0.776907,252.947,0.737275
267.3000,2.06673,252.221,0.728415
267.2000,0.19624,252.582,0.732823
267.1000,0.50739,252.542,0.732334
267.0000,0.078828,252.762,0.735026
266.9000,-0.917612,252.535,0.732258
266.8000,0.957938,252.995,0.737858
266.7000,1.79282,252.24,0.728647
266.6000,0.634193,252.874,0.736391
266.5000,0.0254036,252.809,0.735595
266.4000,0.82629,253.006,0.737998
266.3000,0.0723803,252.824,0.735778
266.2000,0.367885,252.779,0.735225
266.1000,0.0989965,252.703,0.734304
266.0000,1.59287,252.813,0.735643
265.9000,-0.248015,252.843,0.736007
265.8000,0.622689,253.009,0.738031
265.7000,-0.158579,252.985,0.737744
265.6000,0.898633,252.951,0.737332
265.5000,0.459285,252.986,0.737756
265.4000,0.791441,253.087,0.738987
265.3000,0.066124,253.106,0.739218
265.2000,0.535937,252.689,0.734131
265.1000,0.0468072,253.079,0.738881
265.0000,-0.544375,252.818,0.735703
264.9000,-0.0240981,252.965,0.737503
264.8000,-0.034128,252.915,0.736893
264.7000,0.696322,253.075,0.738844
264.6000,0.470631,252.506,0.7319
264.5000,0.632942,253.054,0.738583
264.4000,0.950357,253.327,0.741907
264.3000,-0.129842,252.926,0.737021
264.2000,0.782122,253.311,0.741707
264.1000,0.00341507,253.228,0.740703
264.0000,1.0579,253.152,0.739774
263.9000,1.13621,252.973,0.737592
263.8000,0.92003,253.194,0.740288
263.7000,0.282425,253.03,0.738293
263.6000,0.208555,253.253,0.74101
263.5000,0.580247,253.021,0.738186
263.4000,-0.0563431,253.559,0.744729
263.3000,-0.375385,252.916,0.736903
263.2000,0.813411,253.219,0.740596
263.1000,-0.197119,253.572,0.744884
263.0000,2.24498,253.701,0.746461
262.9000,-0.303819,253.302,0.7416
262.8000,0.491173,253.087,0.738982
262.7000,0.623605,253.396,0.742753
262.6000,0.591497,253.272,0.74124
262.5000,0.373087,253.366,0.742386
262.4000,0.360517,253.272,0.741236
262.3000,-0.345013,253.305,0.741641
262.2000,-0.259381,253.546,0.744568
262.1000,-0.125431,253.655,0.745902
262.0000,0.85669,253.699,0.746439
261.9000,0.496377,253.594,0.745152
261.8000,0.782436,253.43,0.743166
261.7000,1.31737,253.257,0.74105
261.6000,0.735347,253.282,0.741365
261.5000,0.783879,253.231,0.740741
261.4000,0.0575179,253.366,0.742386
261.3000,0.106611,253.702,0.746466
261.2000,0.648133,253.731,0.746823
261.1000,0.795216,254.052,0.750728
261.0000,0.588261,253.71,0.746568
260.9000,0.197817,253.77,0.747298
260.8000,0.883669,253.382,0.742583
260.7000,-0.423792,253.766,0.747245
260.6000,-0.454025,253.806,0.747737
260.5000,0.898586,253.919,0.749109
260.4000,-0.205796,254.041,0.750592
260.3000,0.448493,253.796,0.747618
260.2000,-0.0146034,254.263,0.75329
260.1000,-0.137978,253.931,0.749255
260.0000,0.368375,253.943,0.749403
259.9000,0.22183,254.216,0.752711
259.8000,0.307637,253.859,0.748378
259.7000,0.926747,254.09,0.751191
259.6000,1.7309,253.672,0.7461
259.5000,0.343023,254.058,0.750797
259.4000,0.759723,254.094,0.751232
259.3000,0.14254,254.263,0.753287
259.2000,0.51722,253.924,0.749164
259.1000,0.82647,254.385,0.754766
259.0000,0.174895,253.989,0.749961
258.9000,-0.166535,254.726,0.758898
258.8000,0.923212,254.211,0.752652
258.7000,0.0244106,253.799,0.747651
258.6000,0.684975,254.441,0.75544
258.5000,0.723738,254.467,0.755765
258.4000,0.593409,254.632,0.757755
258.3000,0.886909,255.003,0.762252
258.2000,0.218935,254.241,0.753015
258.1000,0.0748947,254.568,0.756986
258.0000,-0.00962807,254.266,0.753326
257.9000,0.80058,254.576,0.757087
257.8000,0.931939,254.309,0.753847
257.7000,1.24773,254.454,0.755608
257.6000,0.64161,254.716,0.758778
257.5000,0.224426,254.353,0.754376
257.4000,1.31668,254.051,0.750716
257.3000,0.581604,254.805,0.759859
257.2000,1.46754,254.648,0.757952
257.1000,-0.779199,254.481,0.755935
257.0000,0.0704123,255.003,0.76225
256.9000,1.44045,254.893,0.760925
256.8000,0.560539,254.635,0.7578
256.7000,0.192537,254.561,0.756905
256.6000,0.530423,254.51,0.75628
256.5000,0.329509,254.819,0.760031
256.4000,0.38218,254.887,0.760856
256.3000,0.885778,254.814,0.759962
256.2000,1.09378,254.835,0.760225
256.1000,1.19989,255.163,0.764193
256.0000,0.89501,254.966,0.761805
255.9000,0.823264,255.275,0.76555
255.8000,1.03867,254.936,0.761439
255.7000,1.0867,254.969,0.761842
255.6000,0.288333,255.036,0.762653
255.5000,-0.222498,255.096,0.763384
255.4000,0.366248,255.248,0.765214
255.3000,1.60689,255.104,0.763478
255.2000,0.119393,255.153,0.764071
255.1000,1.25488,255.639,0.769947
255.0000,0.743456,255.022,0.762487
254.9000,0.65584,255.353,0.766492
254.8000,0.909016,255.449,0.767655
254.7000,-0.0782967,255.093,0.763341
254.6000,0.273432,255.65,0.770084
254.5000,1.78069,255.065,0.763008
254.4000,0.58315,255.687,0.770526
254.3000,0.232614,255.516,0.768461
254.2000,0.937354,254.788,0.759653
254.1000,0.795977,255.073,0.763105
254.0000,0.611712,255.37,0.766695
253.9000,0.0823969,255.233,0.765045
253.8000,-0.22943,255.421,0.767308
253.7000,0.773759,255.25,0.76524
253.6000,0.0148864,255.543,0.768785
253.5000,0.270943,255.297,0.765816
253.4000,-0.0362182,255.959,0.773809
253.3000,0.982231,255.398,0.767039
253.2000,0.750695,255.33,0.766213
253.1000,-0.151809,255.559,0.768977
253.0000,0.345206,255.95,0.773705
252.9000,0.650524,255.213,0.764794
252.8000,0.0171725,255.574,0.769157
252.7000,0.241733,255.358,0.766551
252.6000,0.0448896,255.78,0.771646
252.5000,1.18192,255.9,0.773096
252.4000,1.10075,255.647,0.770042
252.3000,2.2001,255.865,0.772681
252.2000,0.534652,256.311,0.778055
252.1000,0.249117,255.979,0.774052
252.0000,0.0612791,255.88,0.772855
251.9000,0.488808,255.686,0.770512
251.8000,0.836263,255.532,0.76865
251.7000,0.964578,255.808,0.771993
251.6000,0.907709,255.848,0.772467
251.5000,1.04277,255.875,0.772801
251.4000,0.686137,256.242,0.777225
251.3000,1.08319,255.789,0.771762
251.2000,1.42226,256.109,0.775619
251.1000,0.286719,255.748,0.77127
251.0000,1.21284,255.79,0.771769
250.9000,0.858698,255.998,0.774288
250.8000,0.182651,256.328,0.778265
250.7000,1.19899,256.127,0.775841
250.6000,1.00324,256.038,0.774767
250.5000,1.20485,256.084,0.775322
250.4000,0.695893,256.165,0.776301
250.3000,0.460018,255.68,0.770445
250.2000,0.918767,256.133,0.775908
250.1000,0.565383,255.914,0.773266
250.0000,0.939505,256.309,0.778033
249.9000,0.634645,256.426,0.779443
249.8000,1.05975,256.212,0.776865
249.7000,0.790493,256.223,0.777001
249.6000,0.410545,255.823,0.772168
249.5000,0.0503757,256.347,0.778492
249.4000,0.721408,256.054,0.774958
249.3000,0.24401,255.954,0.773748
249.2000,1.32664,256.118,0.775736
249.1000,0.149837,256.384,0.778933
249.0000,0.542761,255.929,0.77345
248.9000,0.101371,256.383,0.778931
248.8000,0.544119,256.062,0.775055
248.7000,1.35654,255.782,0.77167
248.6000,0.516534,256.047,0.774874
248.5000,2.05159,256.035,0.774732
248.4000,0.53118,255.745,0.771222
248.3000,0.337977,256.192,0.77662
248.2000,0.436068,255.95,0.773705
248.1000,0.0950171,255.87,0.772732
248.0000,-0.770691,256.398,0.779103
247.9000,2.23962,255.711,0.770813
247.8000,0.570846,255.622,0.769745
247.7000,0.150319,256.027,0.774638
247.6000,1.86002,255.922,0.77336
247.5000,0.0407492,256.15,0.776122
247.4000,0.553044,256.229,0.777073
247.3000,0.303539,256.132,0.775901
247.2000,0.404117,255.708,0.770775
247.1000,1.46641,256.173,0.77639
247.0000,-1.00434,256.41,0.779248
246.9000,0.49744,256.42,0.779371
246.8000,0.0643996,256.215,0.776904
246.7000,0.0421764,256.29,0.777801
246.6000,0.214976,256.635,0.781967
246.5000,0.30766,256.184,0.776521
246.4000,-0.208561,256.628,0.781875
246.3000,0.932163,256.59,0.781421
246.2000,1.12006,256.406,0.779201
246.1000,-0.535276,256.347,0.77849
246.0000,1.28521,256.632,0.781931
245.9000,0.817859,256.647,0.782112
245.8000,0.311697,256.493,0.78025
245.7000,-0.0514595,256.351,0.77854
245.6000,0.395152,256.474,0.78002
245.5000,-0.487535,256.862,0.7847
245.4000,1.72065,256.562,0.781088
245.3000,-0.14478,256.715,0.782927
245.2000,0.707465,255.902,0.773127
245.1000,0.724919,256.759,0.783456
245.0000,0.359374,256.614,0.781713
244.9000,1.37071,256.668,0.782359
244.8000,-0.320931,256.652,0.782166
244.7000,-0.0956777,256.978,0.786091
244.6000,-0.0150244,256.481,0.780104
244.5000,0.389556,256.733,0.783144
244.4000,0.898464,256.817,0.784158
244.3000,-0.254006,256.963,0.785908
244.2000,1.64765,256.483,0.780136
244.1000,0.725608,256.919,0.785383
244.0000,-0.0457144,256.527,0.78066
243.9000,1.59511,256.974,0.78604
243.8000,0.601735,256.316,0.778115
243.7000,0.474386,256.632,0.781927
243.6000,0.589599,257.051,0.786968
243.5000,0.517796,256.567,0.781141
243.4000,0.660085,256.553,0.78097
243.3000,1.73143,256.894,0.785075
243.2000,0.787069,256.901,0.78516
243.1000,0.620838,256.729,0.783094
243.0000,1.31083,256.737,0.783193
242.9000,1.6204,256.708,0.78284
242.8000,-0.016491,256.858,0.784642
242.7000,0.259668,257.203,0.788797
242.6000,-0.253057,256.916,0.785341
242.5000,-0.649367,257.088,0.787419
242.4000,1.74346,256.902,0.785172
242.3000,0.897677,256.783,0.783744
242.2000,0.0064947,256.935,0.785573
242.1000,0.166318,256.95,0.785748
242.0000,0.923573,257.344,0.790486
241.9000,0.178503,257.496,0.792317
241.8000,-0.409622,256.983,0.786145
241.7000,1.27698,257.415,0.791347
241.6000,-0.123208,257.716,0.794954
241.5000,1.16904,257.465,0.791947
241.4000,0.22544,257.212,0.788909
241.3000,1.7134,257.432,0.791553
241.2000,0.0576073,257.442,0.791674
241.1000,-0.0799271,257.445,0.791704
241.0000,0.206586,257.179,0.788503
240.9000,-0.12687,257.211,0.788893
240.8000,0.130966,257.738,0.795219
240.7000,-0.0883899,257.355,0.790624
240.6000,0.658267,257.399,0.791155
240.5000,0.281304,258.032,0.79875
240.4000,0.506077,257.475,0.79207
240.3000,-0.0813919,257.762,0.795513
240.2000,0.591574,257.924,0.797454
240.1000,0.545212,257.976,0.798082
240.0000,0.528985,258.106,0.799632
239.9000,-0.576385,257.85,0.796563
239.8000,-0.438128,257.771,0.795615
239.7000,0.963718,258.323,0.802238
239.6000,0.180344,257.986,0.798203
239.5000,0.205082,257.767,0.795566
239.4000,0.300601,257.637,0.794012
239.3000,0.0687148,257.782,0.79575
239.2000,0.0618346,257.786,0.795795
239.1000,-0.300744,257.911,0.797301
239.0000,-0.635484,258.329,0.802305
238.9000,-0.169136,258.703,0.806781
238.8000,-1.10328,258.504,0.804408
238.7000,0.116568,258.107,0.799643
238.6000,-0.384735,258.56,0.805078
238.5000,0.472835,258.537,0.804793
238.4000,-0.320894,258.332,0.802344
238.3000,0.796929,258.85,0.808543
238.2000,-0.596938,259.004,0.810387
238.1000,0.863025,258.773,0.807629
238.0000,-0.535563,258.839,0.808416
237.9000,0.0779019,259.253,0.81336
237.8000,-0.58978,258.988,0.810194
237.7000,-0.159679,258.989,0.810211
237.6000,-0.43372,259.242,0.813227
237.5000,-0.817199,259.212,0.812873
237.4000,0.290963,259.153,0.812163
237.3000,-0.798725,258.963,0.809889
237.2000,-0.215944,258.857,0.80863
237.1000,0.0820483,260.01,0.822387
237.0000,-0.061167,259.878,0.820811
236.9000,-0.0606412,259.165,0.812311
236.8000,-0.0348201,259.237,0.813168
236.7000,-0.824913,259.566,0.817098
236.6000,-0.0175332,259.813,0.820039
236.5000,0.362913,260.186,0.824489
236.4000,-0.20827,259.959,0.821786
236.3000,-0.627123,259.666,0.818293
236.2000,-0.74395,259.897,0.821049
236.1000,-0.33933,259.966,0.821864
236.0000,-1.13871,259.996,0.822228
235.9000,-0.642008,260.238,0.825106
235.8000,-0.675282,260.139,0.823931
235.7000,0.49404,260.258,0.825342
235.6000,-0.792943,260.294,0.825775
235.5000,-0.388311,260.611,0.829546
235.4000,-0.910832,260.473,0.827897
235.3000,-0.974944,260.441,0.827522
235.2000,-1.15651,260.726,0.830912
235.1000,-0.948108,261.034,0.834567
235.0000,-0.0961289,260.871,0.832636
234.9000,-0.949303,260.441,0.827522
234.8000,0.247344,260.928,0.833315
234.7000,-1.33055,261.074,0.835048
234.6000,-0.810939,260.573,0.82909
234.5000,-0.95122,260.856,0.832452
234.4000,-0.506725,261.027,0.834483
234.3000,-1.35969,261.009,0.834273
234.2000,-0.687595,261.546,0.840642
234.1000,-0.319081,261.504,0.840145
234.0000,-0.28,261.222,0.836807
233.9000,-0.407613,261.52,0.840335
233.8000,-1.17228,261.754,0.843105
233.7000,-0.37531,261.36,0.83844
233.6000,-1.01027,261.525,0.840394
233.5000,-0.560547,261.487,0.83994
233.4000,-0.40878,261.63,0.841643
233.3000,-0.301946,262.005,0.846084
233.2000,-0.92979,262.073,0.846892
233.1000,-1.46496,262.265,0.849164
233.0000,-0.19171,261.973,0.845707
232.9000,-0.238042,262.366,0.850359
232.8000,-0.37218,262.506,0.852005
232.7000,-1.12391,262.747,0.854851
232.6000,-1.00583,262.615,0.853293
232.5000,-0.858891,262.676,0.854018
232.4000,-0.53979,262.884,0.856478
232.3000,-0.618506,262.501,0.851949
232.2000,-0.550981,262.742,0.854794
232.1000,-0.81297,263.288,0.861244
232.0000,-1.37073,262.923,0.85693
231.9000,-0.346529,263.006,0.857911
231.8000,-1.18286,262.963,0.857411
231.7000,-1.548,263.539,0.864194
231.6000,-0.458176,263.095,0.858967
231.5000,-1.8097,263.446,0.863101
231.4000,-1.04713,263.136,0.859445
231.3000,-0.797155,263.504,0.863785
231.2000,-0.794377,263.348,0.861946
231.1000,-1.08255,263.52,0.863969
231.0000,-1.89194,264.201,0.871985
230.9000,-2.61341,263.755,0.866743
230.8000,-0.936713,263.578,0.864656
230.7000,-0.919646,263.67,0.865747
230.6000,-1.56092,263.971,0.869288
230.5000,-0.837331,263.821,0.867521
230.4000,-0.481681,264.024,0.869905
230.3000,-2.1164,263.414,0.86273
230.2000,-1.65089,263.846,0.86781
230.1000,-1.67943,263.782,0.867059
230.0000,-1.80257,263.687,0.865947
229.9000,-1.45942,263.658,0.865595
229.8000,0.134372,263.899,0.86844
229.7000,-1.79197,263.797,0.867231
229.6000,-1.57774,263.835,0.867683
229.5000,-1.31119,263.894,0.868383
229.4000,-1.82664,263.196,0.860157
229.3000,-0.994745,263.77,0.866921
229.2000,-0.937394,264.211,0.872112
229.1000,-2.68861,264.095,0.870747
229.0000,-1.78266,264.542,0.875992
228.9000,-0.925428,264.831,0.879391
228.8000,-0.383264,264.579,0.876437
228.7000,-0.938324,265.063,0.882114
228.6000,-1.04221,264.97,0.881024
228.5000,-0.468695,265.19,0.883601
228.4000,-0.8791,265.442,0.886557
228.3000,-1.72621,265.503,0.88727
228.2000,-0.970384,265.382,0.885845
228.1000,-1.04204,265.61,0.88852
228.0000,-2.08785,265.996,0.89303
227.9000,-1.70175,265.891,0.891811
227.8000,-1.51265,266.1,0.894255
227.7000,-1.57677,266.446,0.898297
227.6000,-2.06401,266.701,0.901262
227.5000,-0.622767,266.31,0.896702
227.4000,-0.831441,266.334,0.896985
227.3000,-2.28894,266.832,0.902798
227.2000,-1.15679,266.755,0.9019
227.1000,-1.98656,266.832,0.902798
227.0000,-2.57443,266.428,0.898077
226.9000,-2.52041,266.992,0.904661
226.8000,-3.39693,266.962,0.904311
226.7000,-1.13131,267.136,0.906332
226.6000,-2.12585,266.902,0.903609
226.5000,-2.03043,267.241,0.90756
226.4000,-2.74674,267.14,0.90638
226.3000,-2.35796,267.131,0.906276
226.2000,-2.31076,267.371,0.90907
226.1000,-2.48878,267.235,0.907494
226.0000,-2.88046,267.559,0.911264
225.9000,-1.70349,267.406,0.909487
225.8000,-2.34395,267.59,0.911628
225.7000,-0.668579,267.878,0.914967
225.6000,-1.44392,268.166,0.918318
225.5000,-1.60472,267.853,0.91468
225.4000,-2.49025,268.036,0.916813
225.3000,-2.56456,268.223,0.918976
225.2000,-2.54034,267.98,0.916157
225.1000,-1.94962,268.323,0.920139
225.0000,-2.82218,268.618,0.92356
224.9000,-2.44697,268.379,0.920796
224.8000,-0.853765,268.657,0.924018
224.7000,-2.06845,269.033,0.928377
224.6000,-2.67814,268.751,0.925102
224.5000,-1.8756,268.968,0.927621
224.4000,-2.8379,268.81,0.925794
224.3000,-2.22177,269.622,0.935185
224.2000,-2.49182,269.14,0.929615
224.1000,-1.48513,268.99,0.927872
224.0000,-2.16908,268.899,0.92682
223.9000,-1.70624,269.361,0.932172
223.8000,-3.45245,269.667,0.935704
223.7000,-0.658992,269.314,0.931628
223.6000,-2.49431,269.664,0.935678
223.5000,-1.93022,269.568,0.934567
223.4000,-3.87655,269.21,0.930427
223.3000,-2.07042,269.915,0.938573
223.2000,-3.65867,269.986,0.939389
223.1000,-2.1705,269.516,0.933957
223.0000,-2.29162,269.969,0.939192
222.9000,-1.57939,270.322,0.943274
222.8000,-2.36547,270.081,0.940486
222.7000,-1.99991,270.118,0.940914
222.6000,-1.08814,270.334,0.943405
222.5000,-1.54386,270.45,0.944744
222.4000,-1.6441,270.499,0.945308
222.3000,-2.33139,270.274,0.942719
222.2000,-3.24007,270.478,0.945069
222.1000,-2.24637,270.822,0.949037
222.0000,-2.33678,270.728,0.947952
221.9000,-0.255309,270.79,0.948668
221.8000,-1.88672,270.704,0.94768
221.7000,-2.96555,271.343,0.955026
221.6000,-3.08482,270.769,0.948419
221.5000,-3.5274,271.507,0.956918
221.4000,-1.06351,271.386,0.955529
221.3000,-2.82481,271.193,0.953301
221.2000,-2.44763,271.165,0.952986
221.1000,-1.87169,271.533,0.957219
221.0000,-1.80979,271.334,0.954921
220.9000,-2.30003,271.148,0.952789
220.8000,-2.48837,271.368,0.955316
220.7000,-1.57029,271.383,0.95549
220.6000,-2.47169,271.666,0.958742
220.5000,-2.72473,271.933,0.961811
220.4000,-1.3361,271.833,0.960655
220.3000,-3.55505,271.722,0.959383
220.2000,-3.2179,272.416,0.967348
220.1000,-3.55275,272.109,0.963832
220.0000,-0.439387,271.873,0.961123
219.9000,-3.28603,272.386,0.967004
219.8000,-1.90427,272.313,0.966171
219.7000,-2.23013,272.828,0.972067
219.6000,-2.25244,272.497,0.968279
219.5000,-2.73811,272.895,0.972837
219.4000,-0.78778,272.535,0.968708
219.3000,-0.829564,273.311,0.977597
219.2000,-2.49939,272.724,0.970874
219.1000,-1.65592,272.821,0.971991
219.0000,-1.64343,272.95,0.973466
218.9000,-1.84799,273.02,0.97427
218.8000,-1.41586,272.802,0.971772
218.7000,-1.49222,272.874,0.972589
218.6000,-1.75107,273.301,0.977478
218.5000,-1.52421,273.096,0.97513
218.4000,-2.79866,273.628,0.98122
218.3000,-1.54842,273.484,0.979566
218.2000,-2.24857,273.493,0.97967
218.1000,-1.12883,273.493,0.979677
218.0000,-2.77161,273.561,0.980455
217.9000,-2.16339,273.804,0.983227
217.8000,-2.94195,273.765,0.982777
217.7000,-1.51534,273.835,0.983582
217.6000,-1.38981,273.952,0.984914
217.5000,-1.3557,273.901,0.984329
217.4000,-2.77137,274.248,0.988292
217.3000,-1.76128,274.51,0.99127
217.2000,-1.04389,274.403,0.990055
217.1000,-1.54008,274.365,0.989621
217.0000,-2.25644,274.632,0.992668
216.9000,-1.88516,274.593,0.992217
216.8000,-1.92992,274.834,0.994962
216.7000,-3.17906,274.935,0.996111
216.6000,-2.30837,274.635,0.992699
216.5000,-2.79667,274.946,0.996231
216.4000,-2.65983,274.858,0.995239
216.3000,-3.03042,274.886,0.995558
216.2000,-2.4789,275.129,0.998314
216.1000,-0.605917,275.281,1.00004
216.0000,-3.69605,275.086,0.997829
215.9000,-2.09076,275.162,0.998691
215.8000,-3.14695,275.315,1.00043
215.7000,-1.79913,275.31,1.00037
215.6000,-1.11842,275.49,1.00242
215.5000,-2.06125,275.604,1.00371
215.4000,-2.00711,275.504,1.00258
215.3000,-2.97944,275.725,1.00509
215.2000,-2.20718,275.815,1.00611
215.1000,-3.10887,275.633,1.00404
215.0000,-1.98627,275.772,1.00562
214.9000,-2.70034,275.965,1.00781
214.8000,-2.19434,275.945,1.00758
214.7000,-2.51427,276.004,1.00825
214.6000,-1.22532,276.113,1.00948
214.5000,-2.80614,276.369,1.01239
214.4000,-0.703153,276.38,1.01251
214.3000,-2.03086,276.557,1.01451
214.2000,-1.38616,276.327,1.01191
214.1000,-2.65784,276.607,1.01509
214.0000,-1.68737,276.411,1.01286
213.9000,-2.32855,276.769,1.01692
213.8000,-2.43676,276.909,1.01849
213.7000,-1.81468,276.765,1.01686
213.6000,-2.22894,276.807,1.01734
213.5000,-1.68254,276.84,1.01772
213.4000,-2.04301,276.743,1.01663
213.3000,-3.96735,276.959,1.01907
213.2000,-3.25082,277.057,1.02017
213.1000,-2.95983,277.379,1.02381
213.0000,-3.44482,277.403,1.02408
212.9000,-1.3743,277.46,1.02472
212.8000,-3.09354,277.405,1.0241
212.7000,-1.13702,277.175,1.0215
212.6000,-2.02656,277.492,1.02508
212.5000,-3.43975,277.565,1.02591
212.4000,-3.28657,277.638,1.02673
212.3000,-2.09964,277.691,1.02732
212.2000,-2.50551,277.911,1.02981
212.1000,-3.14808,278.171,1.03274
212.0000,-1.23489,278.177,1.03281
211.9000,-1.97421,278.333,1.03456
211.8000,-1.6546,278.599,1.03756
211.7000,-2.73844,278.678,1.03845
211.6000,-2.6375,278.695,1.03863
211.5000,-1.62359,278.566,1.03719
211.4000,-2.70364,278.592,1.03748
211.3000,-3.79279,278.618,1.03778
211.2000,-1.99488,278.456,1.03595
211.1000,-0.6034,278.938,1.04137
211.0000,-0.824293,279.041,1.04252
210.9000,-1.40282,279.03,1.0424
210.8000,-1.44669,279.493,1.0476
210.7000,-2.6475,279.326,1.04573
210.6000,-2.8587,279.39,1.04644
210.5000,-1.46522,279.323,1.04569
210.4000,-2.19359,279.627,1.0491
210.3000,-2.18589,279.621,1.04903
210.2000,-1.61138,279.759,1.05059
210.1000,-2.84233,279.632,1.04916
210.0000,-2.05108,279.97,1.05295
209.9000,-1.54195,280.273,1.05635
209.8000,-3.07324,280.339,1.05708
209.7000,-3.44458,280.736,1.06152
209.6000,-1.48267,280.464,1.05848
209.5000,-2.88515,280.713,1.06127
209.4000,-2.19982,280.598,1.05998
209.3000,-1.04556,280.706,1.06119
209.2000,-3.04099,280.901,1.06337
209.1000,-3.26218,281.204,1.06675
209.0000,-2.62274,281.091,1.06549
208.9000,-2.25351,282.136,1.07714
208.8000,-1.15209,281.194,1.06664
208.7000,-2.11071,281.31,1.06793
208.6000,-2.19377,281.36,1.06849
208.5000,-2.71658,281.423,1.06919
208.4000,-3.90465,281.124,1.06586
208.3000,-1.95796,281.789,1.07328
208.2000,-1.6953,282.202,1.07787
208.1000,-2.05395,282.191,1.07776
208.0000,-1.36449,281.894,1.07445
207.9000,-2.13734,282.117,1.07693
207.8000,-1.37436,282.542,1.08166
207.7000,-2.13394,282.949,1.08618
207.6000,-1.48168,283.269,1.08973
207.5000,-2.48503,283.088,1.08772
207.4000,-2.51975,283.245,1.08946
207.3000,-2.89439,283.388,1.09106
207.2000,-0.717336,283.592,1.09331
207.1000,-2.46374,283.827,1.09592
207.0000,-2.08118,283.756,1.09513
206.9000,-2.04375,284.121,1.09917
206.8000,-2.75451,284.03,1.09816
206.7000,-0.770206,284.047,1.09835
206.6000,0.235653,284.315,1.10132
206.5000,-2.31945,284.591,1.10437
206.4000,-1.22411,284.528,1.10368
206.3000,-2.62174,284.903,1.10782
206.2000,-1.93522,285.223,1.11136
206.1000,-1.63127,285.282,1.112
206.0000,-0.611627,285.307,1.11228
205.9000,-1.09276,285.703,1.11664
205.8000,-1.13282,286.044,1.1204
205.7000,0.456409,285.41,1.11341
205.6000,-1.75185,286.207,1.12219
205.5000,-0.250682,286.049,1.12045
205.4000,-1.15212,286.466,1.12504
205.3000,-0.430597,286.408,1.1244
205.2000,-1.07398,286.654,1.1271
205.1000,-0.274455,286.882,1.12961
205.0000,-1.6441,286.987,1.13076
204.9000,-0.684722,287.344,1.13467
204.8000,-0.824939,287.171,1.13278
204.7000,-1.1203,287.637,1.13789
204.6000,-0.194067,287.868,1.14042
204.5000,-0.22108,288.173,1.14376
204.4000,0.0586773,288.319,1.14535
204.3000,-0.0208736,288.684,1.14934
204.2000,-0.897163,289.246,1.15548
204.1000,-0.619983,288.727,1.14981
204.0000,0.505193,289.268,1.15571
203.9000,0.330857,289.31,1.15617
203.8000,2.03472,289.743,1.16089
203.7000,0.630166,289.917,1.16279
203.6000,-0.2115,290.221,1.16609
203.5000,-1.09708,289.919,1.16281
203.4000,0.254968,290.414,1.16819
203.3000,0.0192737,290.411,1.16816
203.2000,0.288358,290.571,1.1699
203.1000,1.38522,290.901,1.17348
203.0000,0.987705,291.491,1.17987
202.9000,1.0944,291.395,1.17884
202.8000,1.13414,291.475,1.17971
202.7000,-0.33333,291.339,1.17823
202.6000,1.677,291.735,1.18253
202.5000,1.59708,292.274,1.18836
202.4000,1.13656,292.418,1.1899
202.3000,0.141195,292.721,1.19318
202.2000,-0.344631,292.967,1.19584
202.1000,3.13453,293.082,1.19708
202.0000,0.118846,293.383,1.20032
201.9000,2.93786,293.636,1.20305
201.8000,-0.190478,293.7,1.20374
201.7000,2.58571,294.222,1.20935
201.6000,2.63145,294.462,1.21193
201.5000,3.65913,294.532,1.21268
201.4000,3.56799,294.509,1.21244
201.3000,2.54795,295.2,1.21985
201.2000,1.9572,295.426,1.22228
201.1000,0.692947,295.467,1.22271
201.0000,1.71784,296.026,1.2287
200.9000,3.98854,296.365,1.23232
200.8000,2.86182,296.239,1.23098
200.7000,3.25553,296.207,1.23064
200.6000,3.47532,296.693,1.23582
200.5000,2.74727,296.773,1.23668
200.4000,4.06711,297.307,1.24237
200.3000,3.23774,297.933,1.24904
200.2000,4.91937,297.47,1.24411
200.1000,3.04513,298.055,1.25034
200.0000,4.18637,298.758,1.25781
199.9000,3.54036,298.569,1.2558
199.8000,4.73083,298.887,1.25917
199.7000,5.33149,299.197,1.26246
199.6000,3.90923,299.589,1.26661
199.5000,3.17892,299.743,1.26825
199.4000,4.18027,299.861,1.2695
199.3000,5.13796,299.889,1.26979
199.2000,6.67544,299.953,1.27047
199.1000,6.30665,300.878,1.28025
199.0000,4.24087,300.516,1.27642
198.9000,7.11059,300.635,1.27768
198.8000,5.35327,301.327,1.28498
198.7000,5.42584,301.443,1.2862
198.6000,7.22913,301.579,1.28764
198.5000,4.84938,301.952,1.29156
198.4000,4.9376,302.065,1.29275
198.3000,6.91708,302.336,1.2956
198.2000,6.15308,302.496,1.29728
198.1000,5.91611,302.827,1.30075
198.0000,5.91716,303.147,1.30411
197.9000,5.31671,303.36,1.30634
197.8000,8.30778,303.185,1.30451
197.7000,7.1783,303.39,1.30666
197.6000,3.62689,304.192,1.31506
197.5000,7.54344,304.384,1.31706
197.4000,7.71346,304.777,1.32117
197.3000,5.30381,304.628,1.31961
197.2000,8.43732,304.857,1.32201
197.1000,8.25707,305.242,1.32602
197.0000,6.06646,305.593,1.32967
196.9000,5.10727,306.013,1.33405
196.8000,6.72528,306.004,1.33395
196.7000,8.0962,306.535,1.33948
196.6000,5.50468,306.512,1.33923
196.5000,8.34466,306.903,1.3433
196.4000,7.11845,307.44,1.34887
196.3000,10.1226,307.514,1.34964
196.2000,7.60129,307.527,1.34977
196.1000,7.91758,308.736,1.36227
196.0000,7.37627,308.609,1.36096
195.9000,6.33575,308.881,1.36377
195.8000,9.79021,309.551,1.37068
195.7000,7.92218,309.775,1.37299
195.6000,6.55202,309.996,1.37527
195.5000,7.11847,310.093,1.37626
195.4000,7.48706,310.632,1.38181
195.3000,6.96783,310.834,1.38388
195.2000,7.89103,311.266,1.38832
195.1000,9.46826,311.274,1.38839
195.0000,8.54681,311.711,1.39288
194.9000,8.24249,312.348,1.3994
194.8000,9.6593,312.238,1.39827
194.7000,7.99928,312.626,1.40224
194.6000,9.25667,313.018,1.40624
194.5000,8.57542,313.43,1.41044
194.4000,6.58593,314.106,1.41734
194.3000,7.26314,314.418,1.42051
194.2000,8.72392,314.688,1.42326
194.1000,7.94929,315.342,1.42989
194.0000,7.96906,315.664,1.43317
193.9000,9.99001,316.992,1.4466
193.8000,7.65958,317.211,1.44882
193.7000,9.01371,317.887,1.45564
193.6000,8.61342,318.132,1.45811
193.5000,10.9415,318.958,1.46641
193.4000,9.45582,319.437,1.47122
193.3000,6.46843,319.493,1.47178
193.2000,10.3747,320.173,1.47861
193.1000,9.40718,320.882,1.4857
193.0000,8.14487,321.623,1.49311
192.9000,8.17218,322.139,1.49825
192.8000,8.57444,322.705,1.50389
192.7000,6.65724,323.389,1.51069
192.6000,7.20993,324.358,1.52031
192.5000,9.29131,325.227,1.52892
192.4000,10.001,326.172,1.53825
192.3000,6.96933,326.554,1.54201
192.2000,8.19591,327.838,1.55465
192.1000,10.1722,327.907,1.55532
192.0000,8.07402,328.748,1.56357
191.9000,9.10608,329.51,1.57104
191.8000,8.10966,330.557,1.58126
191.7000,7.74842,331.312,1.58862
191.6000,8.88462,331.863,1.59398
191.5000,8.58215,332.977,1.6048
191.4000,8.9939,334.198,1.61662
191.3000,7.69452,334.984,1.62421
191.2000,6.26874,336.06,1.63457
191.1000,9.62518,337.682,1.65015
191.0000,8.64509,338.763,1.66049
190.9000,11.0514,340.026,1.67255
190.8000,7.50369,341.819,1.68959
190.7000,5.77254,342.894,1.69977
190.6000,10.0004,344.004,1.71026
190.5000,10.1642,345.122,1.7208
190.4000,6.99084,346.269,1.73157
190.3000,8.4811,347.934,1.74716
190.2000,7.51203,349.247,1.75942
190.1000,7.46206,350.415,1.77028
190.0000,7.01939,351.724,1.78243

##### Extended Information
[Comments]
Sample name,class
Comment
User
Division
Company,Saint Mary's College

[Detailed Information]
Creation date,10/6/2021 3:19 PM

Data array type,Linear data array * 3
Horizontal axis,Wavelength [nm]
Vertical axis(1),CD [mdeg]
Vertical axis(2),HT [V]
Vertical axis(3),Abs
Start,290 nm
End,190 nm
Data interval,0.1 nm
Data points,1001    

[Measurement Information]
Instrument name,J-1500
Model name,J-1500
Serial No.,B051061638

Detector,PM-539
Detector S/N,B051061638
  Lock-in amp.,X mode
  HT volt,Auto

Accessory,PTC-517
Accessory S/N,B026561646
  Temperature,25.64 C
  Control sensor,Holder
  Monitor sensor,Holder

Measurement date,10/6/2021 3:19 PM

CD Overload detect,833
Photometric mode,CD, HT, Abs
Measure range,290 - 190 nm
Data pitch,0.1 nm
CD scale,20 mdeg/0.05 dOD
FL scale,20 mdeg/0.05 dOD
D.I.T.,64 msec
Bandwidth,1.00 nm
Start mode,Immediately
Scanning mode,Continuous
Scanning speed,50 nm/min
Baseline correction,None
Shutter control,Auto
No. of cycle,1/1
N2 Flowmeter,Manual


