TITLE,class
DATA TYPE,
ORIGIN,JASCO
OWNER,
DATE,21/10/06
TIME,15:54:46
SPECTROMETER/DATA SYSTEM,
LOCALE,1033
RESOLUTION,
DELTAX,-0.1
XUNITS,NANOMETERS
YUNITS,CD [mdeg]
Y2UNITS,HT [V]
Y3UNITS,ABSORBANCE
FIRSTX,  290.0000
LASTX,  190.0000
NPOINTS,    1001
FIRSTY,     0.53616
MAXY,    13.28192
MINY,    -4.30026
XYDATA
290.0000,0.536155,252.993,0.737839
289.9000,1.65847,252.847,0.736056
289.8000,1.39888,252.971,0.737568
289.7000,0.64817,253.344,0.742116
289.6000,2.03671,253.387,0.742638
289.5000,1.70277,253.349,0.742174
289.4000,0.893284,253.555,0.744686
289.3000,0.915836,252.94,0.737192
289.2000,2.09855,253.608,0.745323
289.1000,1.74925,252.843,0.736007
289.0000,0.649976,253.059,0.73864
288.9000,0.651877,253.594,0.745159
288.8000,0.267921,253.559,0.744735
288.7000,1.68977,253.27,0.741219
288.6000,1.8494,253.435,0.743222
288.5000,2.2071,253.57,0.744868
288.4000,1.52055,253.279,0.741319
288.3000,0.3818,253.326,0.7419
288.2000,1.28098,253.157,0.739843
288.1000,1.07176,253.139,0.739617
288.0000,0.673364,253.183,0.74015
287.9000,1.39093,253.329,0.741931
287.8000,0.68029,253.456,0.743481
287.7000,0.0912966,253.426,0.743115
287.6000,1.0874,253.293,0.741492
287.5000,0.482004,253.692,0.746344
287.4000,0.967257,253.595,0.745164
287.3000,0.674454,253.178,0.740095
287.2000,0.553163,252.995,0.73786
287.1000,2.26012,253.243,0.740885
287.0000,0.493592,253.23,0.740724
286.9000,1.41257,253.485,0.743829
286.8000,2.10536,253.384,0.742597
286.7000,1.106,252.968,0.737535
286.6000,1.2933,252.785,0.735299
286.5000,1.9272,252.708,0.734365
286.4000,0.37411,252.985,0.737741
286.3000,1.62802,253.148,0.739732
286.2000,1.74157,253.298,0.74155
286.1000,1.35217,253.643,0.745752
286.0000,1.39449,252.971,0.737575
285.9000,0.273339,253.133,0.739546
285.8000,0.457651,253.246,0.740921
285.7000,1.35763,253.189,0.740227
285.6000,0.964919,253.136,0.739587
285.5000,0.83995,253.013,0.738084
285.4000,1.00387,252.933,0.737111
285.3000,1.018,252.607,0.733138
285.2000,1.54876,252.812,0.735638
285.1000,2.1772,253.258,0.741062
285.0000,1.74329,252.909,0.736812
284.9000,0.980973,252.765,0.735059
284.8000,0.711979,253.034,0.738336
284.7000,1.49397,252.864,0.736263
284.6000,1.63228,253.092,0.739047
284.5000,1.56215,253.272,0.741236
284.4000,2.26164,253.332,0.741973
284.3000,1.72382,252.908,0.736802
284.2000,1.92872,253.458,0.743503
284.1000,-0.110974,252.853,0.736133
284.0000,0.825883,252.926,0.737026
283.9000,0.503246,253.1,0.739142
283.8000,1.22124,252.829,0.73584
283.7000,0.64526,253.364,0.742362
283.6000,0.827884,252.873,0.736382
283.5000,1.13512,253.077,0.738859
283.4000,0.872417,252.897,0.736672
283.3000,2.02822,252.807,0.735577
283.2000,1.1794,252.93,0.737069
283.1000,1.26545,252.888,0.736563
283.0000,1.28877,253.025,0.738228
282.9000,1.90659,252.897,0.736672
282.8000,0.925273,252.788,0.735339
282.7000,1.49803,252.776,0.73519
282.6000,1.04554,252.943,0.737231
282.5000,1.20592,252.639,0.733527
282.4000,1.40249,252.833,0.735893
282.3000,1.62424,252.708,0.734361
282.2000,0.616804,253.018,0.738138
282.1000,1.08241,252.606,0.733119
282.0000,1.6273,252.865,0.736282
281.9000,1.56757,252.917,0.736911
281.8000,1.13314,253.124,0.739437
281.7000,1.62855,252.563,0.732597
281.6000,0.755125,252.676,0.733977
281.5000,0.792248,252.857,0.736177
281.4000,0.291586,252.696,0.734223
281.3000,0.559296,252.734,0.734681
281.2000,1.28004,252.965,0.737494
281.1000,0.398562,252.502,0.731846
281.0000,1.32835,252.894,0.736629
280.9000,0.849414,252.299,0.729368
280.8000,0.99895,251.984,0.72552
280.7000,1.435,252.631,0.733421
280.6000,1.00138,252.684,0.734071
280.5000,1.48946,252.632,0.73344
280.4000,0.157451,252.799,0.735479
280.3000,0.267393,252.525,0.73213
280.2000,1.36951,252.443,0.731131
280.1000,2.01588,252.366,0.730193
280.0000,-0.179367,252.573,0.732718
279.9000,0.740451,252.439,0.731079
279.8000,0.769866,252.628,0.73339
279.7000,1.20262,252.815,0.735669
279.6000,-0.0300983,252.717,0.734472
279.5000,1.17418,252.833,0.735888
279.4000,1.43242,252.585,0.732858
279.3000,1.6728,252.559,0.732547
279.2000,0.744511,252.269,0.729003
279.1000,1.53033,253.292,0.741481
279.0000,1.18203,252.585,0.732865
278.9000,0.583585,252.482,0.73161
278.8000,0.627193,252.637,0.733499
278.7000,1.59027,252.504,0.731874
278.6000,0.656167,252.41,0.730731
278.5000,0.915295,252.385,0.730425
278.4000,1.89302,252.332,0.729775
278.3000,0.559227,252.456,0.731284
278.2000,1.61739,252.723,0.734546
278.1000,0.455978,252.301,0.729394
278.0000,1.36852,252.348,0.729968
277.9000,1.14366,252.382,0.730387
277.8000,2.03794,252.712,0.734408
277.7000,1.29779,252.272,0.729047
277.6000,1.22517,252.41,0.730722
277.5000,1.69305,252.558,0.732536
277.4000,1.4333,252.512,0.731974
277.3000,0.256992,252.353,0.730029
277.2000,0.629069,252.375,0.730304
277.1000,1.98703,252.65,0.733658
277.0000,2.13729,252.53,0.732191
276.9000,0.481819,252.793,0.735399
276.8000,0.949719,252.566,0.732631
276.7000,0.31696,252.269,0.729005
276.6000,1.28716,252.868,0.736318
276.5000,0.599659,252.008,0.725813
276.4000,0.97604,252.432,0.731001
276.3000,0.0640133,252.143,0.727472
276.2000,0.937119,252.369,0.730224
276.1000,-0.192132,251.99,0.725591
276.0000,0.449811,252.514,0.732
275.9000,1.05372,252.397,0.73057
275.8000,1.11145,252.163,0.727705
275.7000,-0.615199,251.99,0.72559
275.6000,0.84909,252.263,0.728931
275.5000,2.42958,252.612,0.733188
275.4000,1.22861,252.658,0.73376
275.3000,0.682755,252.579,0.732792
275.2000,1.1834,252.326,0.729706
275.1000,1.17477,252.185,0.72798
275.0000,-0.363588,252.601,0.73306
274.9000,1.72827,252.818,0.735702
274.8000,1.13773,252.638,0.733513
274.7000,1.1806,251.734,0.722469
274.6000,0.54794,252.322,0.729654
274.5000,0.886083,252.144,0.727484
274.4000,0.987789,252.255,0.728832
274.3000,0.65349,251.889,0.724355
274.2000,1.6306,252.183,0.727951
274.1000,0.562121,252.266,0.728974
274.0000,1.77567,251.948,0.725084
273.9000,1.51622,252.08,0.726693
273.8000,-0.116899,252.073,0.726608
273.7000,1.4573,251.973,0.72539
273.6000,0.0854549,252.211,0.728299
273.5000,1.31111,252.083,0.726738
273.4000,0.710604,252.171,0.727804
273.3000,0.665721,252.626,0.733359
273.2000,1.26458,251.658,0.721539
273.1000,0.564855,251.983,0.72551
273.0000,0.42903,252.104,0.726983
272.9000,0.270318,251.668,0.721655
272.8000,1.19835,252.425,0.730911
272.7000,1.24253,252.301,0.729391
272.6000,1.00834,252.169,0.727781
272.5000,1.22236,252.538,0.732292
272.4000,0.61972,252.222,0.728427
272.3000,-0.661728,252.06,0.72645
272.2000,0.896014,252.689,0.73413
272.1000,1.08054,252.244,0.7287
272.0000,0.919715,252.146,0.727498
271.9000,0.740916,252.294,0.729308
271.8000,0.693695,252.049,0.72632
271.7000,0.310115,252.076,0.726642
271.6000,0.487556,251.865,0.724063
271.5000,-0.0257681,251.794,0.723201
271.4000,0.800774,252.436,0.731041
271.3000,1.08194,251.313,0.717313
271.2000,1.21039,251.864,0.724055
271.1000,0.792058,252.647,0.733617
271.0000,1.14131,252.248,0.728747
270.9000,0.48827,252.196,0.728117
270.8000,0.43797,252.496,0.731782
270.7000,1.43294,252.016,0.72591
270.6000,0.7051,252.087,0.726777
270.5000,1.03893,252.101,0.726957
270.4000,1.37344,252.563,0.7326
270.3000,0.889938,252.037,0.726175
270.2000,0.10332,252.251,0.728783
270.1000,0.0214275,251.961,0.72524
270.0000,0.338036,252.133,0.727338
269.9000,0.955655,251.98,0.725477
269.8000,0.488079,251.995,0.725659
269.7000,0.779609,252.295,0.72932
269.6000,0.249787,252.226,0.728476
269.5000,0.379448,252.752,0.734904
269.4000,0.897384,251.964,0.72528
269.3000,0.289853,252.421,0.730861
269.2000,0.967285,251.564,0.72038
269.1000,1.87589,251.65,0.721441
269.0000,0.590868,252.479,0.731575
268.9000,1.3099,251.629,0.721181
268.8000,0.564071,252.018,0.725934
268.7000,0.820321,252.187,0.727998
268.6000,0.566325,251.726,0.72236
268.5000,1.01413,251.589,0.720694
268.4000,0.0963164,252.14,0.727432
268.3000,1.0426,252.003,0.725759
268.2000,0.446049,252.163,0.727714
268.1000,0.898004,252.313,0.729548
268.0000,2.14922,252.571,0.73269
267.9000,0.668799,252.255,0.728833
267.8000,1.275,252.34,0.729877
267.7000,0.69506,252.082,0.726722
267.6000,0.27813,252.268,0.728995
267.5000,0.143295,252.24,0.728647
267.4000,1.56911,252.091,0.726833
267.3000,0.307951,252.475,0.731527
267.2000,1.20603,251.82,0.723521
267.1000,0.0776442,252.27,0.729014
267.0000,1.06285,252.47,0.731463
266.9000,0.699414,252.296,0.729339
266.8000,1.30284,252.342,0.729894
266.7000,1.14622,252.588,0.732894
266.6000,1.05226,252.642,0.733556
266.5000,0.180769,252.29,0.729261
266.4000,1.0286,252.742,0.734781
266.3000,-0.170549,252.614,0.733219
266.2000,0.875153,252.411,0.730745
266.1000,1.60812,252.377,0.73033
266.0000,0.632423,252.245,0.728709
265.9000,1.26362,252.48,0.731586
265.8000,-0.137097,252.206,0.728231
265.7000,0.0148372,252.393,0.73052
265.6000,0.767568,252.488,0.731675
265.5000,1.21501,252.481,0.731596
265.4000,0.0285874,252.902,0.736726
265.3000,0.0330184,252.723,0.734553
265.2000,0.379235,252.426,0.73092
265.1000,0.113194,252.431,0.730989
265.0000,1.00209,252.656,0.73373
264.9000,1.13696,252.634,0.733456
264.8000,1.0995,252.484,0.731632
264.7000,1.52513,252.814,0.735653
264.6000,0.974153,252.566,0.732631
264.5000,1.4349,252.467,0.731426
264.4000,-0.0900878,252.761,0.735009
264.3000,0.854503,252.576,0.73275
264.2000,0.696777,252.931,0.737085
264.1000,1.31596,252.905,0.736767
264.0000,1.19108,252.926,0.737019
263.9000,0.508852,252.69,0.734143
263.8000,0.851775,252.999,0.737908
263.7000,0.0682199,252.745,0.734817
263.6000,-0.0592318,252.781,0.735254
263.5000,0.480249,253.085,0.738956
263.4000,0.713108,252.62,0.733293
263.3000,0.175191,252.552,0.732455
263.2000,-0.0167145,253.572,0.744889
263.1000,0.955125,252.947,0.737275
263.0000,-0.00144158,253.064,0.738702
262.9000,-0.618491,252.749,0.734869
262.8000,1.27991,252.776,0.735199
262.7000,-0.0358036,253.321,0.741829
262.6000,0.0465897,252.555,0.732497
262.5000,0.671063,253.235,0.740786
262.4000,1.59768,252.837,0.735935
262.3000,0.262693,253.14,0.739632
262.2000,1.06041,252.906,0.736774
262.1000,0.499043,253.098,0.739116
262.0000,1.37972,253.588,0.745087
261.9000,0.540745,253.397,0.742762
261.8000,0.378331,253.314,0.741745
261.7000,0.870653,253.23,0.740722
261.6000,-0.67916,253.045,0.738474
261.5000,0.509464,253.74,0.746937
261.4000,0.584754,253.306,0.741657
261.3000,0.259645,253.587,0.745075
261.2000,0.234654,252.988,0.737779
261.1000,0.399105,253.523,0.744298
261.0000,0.246215,253.293,0.741488
260.9000,0.246984,253.519,0.744244
260.8000,0.537925,253.419,0.743031
260.7000,1.14626,253.867,0.748472
260.6000,0.340188,253.822,0.747923
260.5000,0.944629,253.375,0.742493
260.4000,0.0860343,253.62,0.745474
260.3000,-0.216747,253.813,0.74782
260.2000,0.357225,253.569,0.744858
260.1000,1.34771,253.443,0.743321
260.0000,-0.287939,253.821,0.747918
259.9000,0.695192,253.872,0.748541
259.8000,1.81335,253.377,0.742517
259.7000,0.236183,253.644,0.74576
259.6000,-0.803331,253.983,0.749885
259.5000,0.739818,254.174,0.752205
259.4000,0.271739,253.879,0.748625
259.3000,1.12758,253.874,0.748557
259.2000,0.971912,253.681,0.746219
259.1000,0.413676,253.745,0.746997
259.0000,0.930225,253.777,0.747381
258.9000,2.12102,253.898,0.748853
258.8000,1.81663,253.988,0.74994
258.7000,0.161777,253.671,0.746093
258.6000,-0.142708,254.041,0.750585
258.5000,0.161,253.671,0.746089
258.4000,0.552982,253.676,0.746153
258.3000,0.119349,253.813,0.747816
258.2000,0.158876,254.238,0.752986
258.1000,2.26763,254.088,0.751165
258.0000,1.25227,253.916,0.749073
257.9000,0.704741,253.934,0.749286
257.8000,0.131394,254.47,0.755796
257.7000,0.915898,254.206,0.752596
257.6000,0.0497603,254.205,0.75258
257.5000,1.4227,254.314,0.7539
257.4000,1.73013,254.241,0.75302
257.3000,0.550492,254.322,0.754002
257.2000,0.521617,254.554,0.75681
257.1000,1.58911,254.706,0.758658
257.0000,0.829164,254.449,0.755541
256.9000,1.63937,254.374,0.754637
256.8000,0.562371,254.704,0.758629
256.7000,0.969062,255.039,0.762688
256.6000,1.54728,254.492,0.756065
256.5000,0.732206,254.613,0.757535
256.4000,0.144492,254.377,0.754674
256.3000,1.68718,254.061,0.750836
256.2000,0.717444,254.864,0.760566
256.1000,-0.550976,254.719,0.758818
256.0000,0.776264,254.707,0.758675
255.9000,0.839818,254.86,0.76052
255.8000,0.203481,254.825,0.760103
255.7000,-0.113051,254.71,0.758711
255.6000,-0.0351512,254.591,0.757259
255.5000,0.590781,254.863,0.760559
255.4000,1.2497,254.97,0.761859
255.3000,0.885022,254.95,0.761611
255.2000,1.51466,254.786,0.759633
255.1000,0.492264,254.536,0.756598
255.0000,0.265214,254.788,0.759646
254.9000,0.191836,254.911,0.761146
254.8000,0.761651,254.893,0.76092
254.7000,0.168644,254.988,0.762079
254.6000,0.957159,255.124,0.763722
254.5000,1.65051,254.615,0.757552
254.4000,1.19992,254.828,0.760136
254.3000,0.883532,254.532,0.75655
254.2000,0.165554,254.899,0.760997
254.1000,0.713002,255.273,0.765521
254.0000,0.0767692,255.34,0.766331
253.9000,1.45439,255.094,0.763362
253.8000,0.0496037,255.12,0.763672
253.7000,0.431608,255.121,0.763684
253.6000,1.46298,254.796,0.759748
253.5000,0.383549,255.236,0.765081
253.4000,1.80921,255.273,0.765523
253.3000,0.36061,255.412,0.7672
253.2000,0.230918,255.117,0.763631
253.1000,0.899534,255.319,0.766083
253.0000,-0.17272,255.284,0.765651
252.9000,-0.116983,255.438,0.767522
252.8000,1.20194,255.243,0.765163
252.7000,0.4023,255.252,0.765274
252.6000,0.0655961,255.234,0.765046
252.5000,0.627447,254.987,0.762064
252.4000,0.736311,255.425,0.767366
252.3000,1.45044,255.532,0.76865
252.2000,0.651591,255.59,0.76935
252.1000,-0.00687648,255.441,0.767551
252.0000,0.429272,255.293,0.76577
251.9000,1.18555,255.408,0.76716
251.8000,1.02822,255.605,0.769542
251.7000,1.2339,255.218,0.764858
251.6000,0.0609128,255.58,0.769235
251.5000,-0.271858,255.864,0.77266
251.4000,0.510715,255.547,0.768831
251.3000,1.67093,255.633,0.76987
251.2000,1.43902,255.292,0.765757
251.1000,0.325428,255.691,0.770579
251.0000,1.50951,255.407,0.767145
250.9000,-0.664506,255.798,0.771869
250.8000,0.668166,255.712,0.770827
250.7000,0.232934,255.702,0.770705
250.6000,0.730863,255.752,0.771309
250.5000,-0.272292,255.705,0.770745
250.4000,-0.0373305,255.518,0.768482
250.3000,0.00426301,255.57,0.76911
250.2000,-0.0729113,255.606,0.769554
250.1000,0.548835,255.55,0.768878
250.0000,-0.000527707,255.889,0.772961
249.9000,1.05488,255.649,0.770067
249.8000,1.7198,255.833,0.772294
249.7000,0.977974,255.632,0.769868
249.6000,1.23252,255.849,0.772479
249.5000,0.361857,255.533,0.768672
249.4000,0.783679,255.688,0.770539
249.3000,1.02207,255.528,0.768609
249.2000,1.71334,255.665,0.770257
249.1000,1.40251,255.583,0.769266
249.0000,0.701383,255.522,0.768532
248.9000,1.62476,255.565,0.769059
248.8000,1.6098,255.586,0.769312
248.7000,0.421495,255.542,0.768777
248.6000,0.416911,255.651,0.770096
248.5000,0.757376,256.043,0.774826
248.4000,1.20069,255.665,0.770262
248.3000,0.964414,255.634,0.769888
248.2000,0.216228,255.704,0.770728
248.1000,-0.353982,255.742,0.771188
248.0000,0.615219,255.728,0.771022
247.9000,0.893741,255.802,0.771922
247.8000,1.09295,255.751,0.771297
247.7000,0.497159,255.753,0.771319
247.6000,0.127935,255.507,0.768356
247.5000,0.602881,255.883,0.772896
247.4000,1.08394,255.725,0.770989
247.3000,1.49662,255.798,0.771865
247.2000,0.702078,255.739,0.771152
247.1000,1.27095,256.028,0.774647
247.0000,1.19777,256.115,0.775689
246.9000,0.0620386,255.887,0.772948
246.8000,-0.513501,256.358,0.778625
246.7000,0.3458,255.864,0.772671
246.6000,-0.62647,255.779,0.771641
246.5000,0.769989,256.252,0.777346
246.4000,1.68728,256.216,0.776909
246.3000,0.376102,256.17,0.776354
246.2000,1.24964,255.674,0.770368
246.1000,0.647336,256.249,0.777314
246.0000,2.01563,256.175,0.776414
245.9000,1.42845,255.706,0.77076
245.8000,1.07473,256.043,0.774825
245.7000,0.784926,256.379,0.77888
245.6000,0.127249,256.281,0.777702
245.5000,1.1825,256.016,0.774497
245.4000,0.965305,256.248,0.777295
245.3000,0.433639,256.241,0.777213
245.2000,1.21239,256.348,0.778506
245.1000,0.614976,256.6,0.781544
245.0000,1.22305,256.357,0.778617
244.9000,1.63565,256.453,0.779772
244.8000,0.897519,256.44,0.779609
244.7000,0.726607,255.659,0.77019
244.6000,0.491646,256.187,0.776564
244.5000,1.23379,256.315,0.778111
244.4000,1.15166,256.16,0.776243
244.3000,2.01134,256.622,0.78181
244.2000,0.690185,256.405,0.779194
244.1000,1.29062,256.591,0.781438
244.0000,0.604789,256.574,0.781231
243.9000,0.899698,256.313,0.778082
243.8000,1.08382,256.652,0.782161
243.7000,1.22852,256.54,0.780822
243.6000,0.559967,256.518,0.780554
243.5000,1.29506,256.378,0.778866
243.4000,1.70484,256.662,0.782286
243.3000,0.42787,256.621,0.781798
243.2000,0.178278,256.308,0.778017
243.1000,0.679197,256.53,0.780696
243.0000,-0.373257,256.484,0.780144
242.9000,0.347284,256.393,0.779052
242.8000,1.9434,256.646,0.782089
242.7000,0.373823,256.604,0.781583
242.6000,0.271335,256.939,0.785619
242.5000,0.612381,256.87,0.784794
242.4000,0.0672048,256.629,0.781888
242.3000,0.750993,257.177,0.788487
242.2000,0.434335,256.393,0.779045
242.1000,-0.091971,256.551,0.780946
242.0000,0.457246,256.889,0.785026
241.9000,0.619766,257.209,0.788863
241.8000,0.395518,257.01,0.786481
241.7000,0.166743,256.833,0.784349
241.6000,0.455145,257.593,0.793485
241.5000,0.633305,256.983,0.786154
241.4000,0.941685,257.101,0.787568
241.3000,0.234931,257.016,0.786553
241.2000,-0.156638,256.928,0.785488
241.1000,-0.898414,256.543,0.780858
241.0000,0.578858,257.343,0.790481
240.9000,0.617781,257.388,0.791024
240.8000,1.87543,257.085,0.787373
240.7000,0.362992,257.511,0.792502
240.6000,0.963861,256.582,0.781322
240.5000,0.866364,257.389,0.791032
240.4000,0.767494,257.373,0.790835
240.3000,1.01332,257.725,0.795063
240.2000,-0.911925,257.227,0.789088
240.1000,-0.238881,257.185,0.788583
240.0000,-0.50069,257.73,0.795122
239.9000,0.963792,257.851,0.796582
239.8000,0.173206,257.302,0.789992
239.7000,0.586183,257.578,0.793298
239.6000,-0.12567,257.42,0.791403
239.5000,0.914279,258.15,0.800164
239.4000,0.383072,257.68,0.794529
239.3000,0.516712,258.12,0.799799
239.2000,-0.0445927,257.905,0.797229
239.1000,-0.121757,257.955,0.797821
239.0000,0.955228,258.155,0.800228
238.9000,-0.0982757,258.311,0.80209
238.8000,0.752396,258.291,0.801854
238.7000,-0.00742483,257.523,0.792647
238.6000,0.586554,258.25,0.801357
238.5000,-0.389512,258.437,0.803598
238.4000,0.927747,258.28,0.801722
238.3000,0.682278,257.85,0.796565
238.2000,0.130435,258.567,0.805153
238.1000,0.398608,258.391,0.803052
238.0000,-0.156726,258.575,0.805255
237.9000,-1.23209,258.684,0.80656
237.8000,0.524012,258.914,0.809312
237.7000,0.808093,258.658,0.806244
237.6000,0.605258,259.088,0.811384
237.5000,0.563147,258.68,0.806512
237.4000,1.52161,258.791,0.807842
237.3000,0.632165,258.777,0.807674
237.2000,0.0926684,258.729,0.8071
237.1000,-0.346003,258.74,0.807229
237.0000,0.529573,259.076,0.811242
236.9000,0.538322,259.447,0.815672
236.8000,0.399598,259.426,0.815423
236.7000,0.536277,259.608,0.817595
236.6000,-0.445928,259.256,0.813401
236.5000,-1.00052,259.474,0.816
236.4000,0.403321,259.633,0.817891
236.3000,0.270807,259.839,0.820355
236.2000,0.393846,259.707,0.818772
236.1000,-0.246883,260.067,0.823064
236.0000,0.132477,259.977,0.821997
235.9000,-0.978788,259.527,0.816625
235.8000,0.469731,259.795,0.819821
235.7000,-0.439321,260.195,0.824598
235.6000,-0.283856,259.613,0.817659
235.5000,-0.84247,259.768,0.819511
235.4000,-0.345531,259.805,0.819941
235.3000,-0.747997,260.078,0.823195
235.2000,-0.636366,260.499,0.828207
235.1000,-0.752821,260.322,0.826108
235.0000,-1.7263,260.645,0.829952
234.9000,-0.112404,260.047,0.822827
234.8000,-0.879035,260.624,0.829701
234.7000,-0.802402,261.185,0.836364
234.6000,-1.34107,261.112,0.835492
234.5000,-0.483476,260.886,0.832812
234.4000,-0.474491,261.205,0.836605
234.3000,-0.444393,260.735,0.831022
234.2000,-0.353726,260.921,0.833226
234.1000,-1.66042,261.267,0.837334
234.0000,-0.240934,261.232,0.836924
233.9000,-0.341637,261.087,0.835196
233.8000,-1.38688,261.28,0.837491
233.7000,-1.15892,261.732,0.842843
233.6000,-0.633258,261.339,0.838185
233.5000,-0.359432,261.525,0.840392
233.4000,0.929248,261.565,0.840864
233.3000,-0.231292,262.1,0.847204
233.2000,-0.0805374,261.686,0.842299
233.1000,0.563092,261.63,0.841643
233.0000,-0.725687,261.764,0.843227
232.9000,0.920143,261.688,0.842333
232.8000,-0.878109,261.829,0.843997
232.7000,-0.431952,262.068,0.846831
232.6000,-1.29378,261.916,0.845024
232.5000,-1.53911,262.316,0.849761
232.4000,-0.632268,262.13,0.847559
232.3000,-0.438042,262.341,0.850061
232.2000,-1.00728,262.382,0.850538
232.1000,-0.354683,262.179,0.848137
232.0000,-0.959429,262.321,0.849819
231.9000,-1.30213,262.646,0.853665
231.8000,-0.921235,263.057,0.858518
231.7000,-1.15707,262.602,0.853146
231.6000,0.260418,262.806,0.855554
231.5000,-0.395908,262.772,0.855149
231.4000,-0.379488,262.884,0.856475
231.3000,-0.895315,263.343,0.86189
231.2000,-1.16499,263.409,0.862665
231.1000,-1.78456,263.333,0.861772
231.0000,-1.46241,263.037,0.858274
230.9000,0.13177,263.459,0.863258
230.8000,-1.30632,263.507,0.863822
230.7000,-0.941313,263.475,0.863448
230.6000,-0.8536,263.42,0.862794
230.5000,-1.63483,263.499,0.863723
230.4000,-0.036877,263.27,0.861032
230.3000,-1.21416,263.173,0.85988
230.2000,-1.14684,263.429,0.862905
230.1000,-2.08854,263.345,0.86191
230.0000,-1.20375,263.399,0.862553
229.9000,-1.6665,263.019,0.858062
229.8000,0.0188052,263.206,0.860279
229.7000,-2.36796,263.415,0.862734
229.6000,-0.542603,263.188,0.86006
229.5000,-0.938753,263.241,0.860685
229.4000,-2.07962,263.254,0.860838
229.3000,-1.35915,263.316,0.86157
229.2000,-1.3439,263.832,0.867648
229.1000,-0.520837,263.792,0.86718
229.0000,-1.84178,264.16,0.871509
228.9000,-1.3597,264.191,0.87187
228.8000,-0.864959,264.294,0.873082
228.7000,-1.81963,264.812,0.879163
228.6000,-0.273931,264.599,0.876666
228.5000,-1.17955,264.468,0.875129
228.4000,-3.32562,265.004,0.881419
228.3000,-1.37765,264.635,0.87709
228.2000,-0.354311,264.62,0.876915
228.1000,-1.09518,265.158,0.883226
228.0000,-2.31742,265.074,0.882237
227.9000,-1.06531,265.605,0.888455
227.8000,-1.64956,265.493,0.887145
227.7000,-1.99139,265.838,0.891183
227.6000,-2.43387,265.645,0.888931
227.5000,-1.01979,265.384,0.885873
227.4000,-1.69295,265.868,0.891539
227.3000,-2.07107,265.976,0.892796
227.2000,-0.910927,266.546,0.899461
227.1000,-2.66579,266.27,0.896239
227.0000,-0.869883,266.154,0.894876
226.9000,-2.02858,266.116,0.894432
226.8000,-2.42888,266.581,0.899872
226.7000,-2.88754,266.435,0.898166
226.6000,-0.74906,266.244,0.895936
226.5000,-3.59232,266.183,0.895225
226.4000,-1.99752,266.296,0.896539
226.3000,-2.66268,266.747,0.901805
226.2000,-1.94986,267.241,0.907565
226.1000,-2.10617,266.958,0.90426
226.0000,-2.57975,267.24,0.907555
225.9000,-2.35815,267.243,0.90759
225.8000,-1.90701,266.937,0.904018
225.7000,-1.63397,267.303,0.908279
225.6000,-2.35071,267.168,0.90671
225.5000,-3.43072,267.512,0.910717
225.4000,-3.21741,267.69,0.912788
225.3000,-1.9643,267.507,0.910658
225.2000,-1.93332,267.443,0.909911
225.1000,-2.49761,267.464,0.910155
225.0000,-1.82811,267.614,0.9119
224.9000,-3.10872,268.371,0.920701
224.8000,-3.60309,267.775,0.91377
224.7000,-2.29727,268.176,0.918429
224.6000,-2.30852,268.429,0.92137
224.5000,-1.37656,268.615,0.923525
224.4000,-1.47174,268.224,0.918986
224.3000,-1.96984,268.529,0.922535
224.2000,-1.34689,268.487,0.922045
224.1000,-1.25167,268.465,0.921784
224.0000,-1.46075,268.878,0.926572
223.9000,-2.64395,268.909,0.926932
223.8000,-2.41942,268.534,0.922587
223.7000,-1.60738,269.145,0.929674
223.6000,-2.76982,268.881,0.926617
223.5000,-2.16508,268.95,0.927409
223.4000,-2.27576,269.41,0.932734
223.3000,-2.91103,269.201,0.930315
223.2000,-1.02627,269.313,0.931614
223.1000,-3.60619,269.583,0.934736
223.0000,-2.2456,269.768,0.936881
222.9000,-2.21796,269.514,0.933942
222.8000,-2.48459,269.496,0.93373
222.7000,-1.61128,269.773,0.936933
222.6000,-3.62011,270.071,0.940373
222.5000,-2.76893,269.675,0.9358
222.4000,-2.82801,269.741,0.936563
222.3000,-4.11578,270.489,0.945195
222.2000,-2.18188,270.486,0.945161
222.1000,-0.920023,269.929,0.938736
222.0000,-2.36652,270.039,0.940009
221.9000,-2.00691,269.993,0.939474
221.8000,-2.87071,270.128,0.941035
221.7000,-3.15745,270.805,0.94884
221.6000,-1.10625,270.228,0.942186
221.5000,-2.42625,270.652,0.947074
221.4000,-2.06201,270.723,0.947895
221.3000,-2.11018,270.591,0.94637
221.2000,-2.28287,270.931,0.95029
221.1000,-2.11193,270.994,0.951017
221.0000,-2.38444,271.119,0.952448
220.9000,-0.884064,270.859,0.94946
220.8000,-2.45446,271.591,0.957883
220.7000,-2.71459,271.062,0.951801
220.6000,-2.73342,271.686,0.958972
220.5000,-2.03788,271.38,0.955451
220.4000,-2.12976,272.081,0.963511
220.3000,-2.14359,271.434,0.956074
220.2000,-2.58616,271.457,0.956346
220.1000,-3.13659,271.722,0.959385
220.0000,-2.96214,271.936,0.961842
219.9000,-1.84776,271.827,0.960597
219.8000,-1.30724,271.831,0.960637
219.7000,-2.72767,272.152,0.964324
219.6000,-2.36388,272.169,0.964514
219.5000,-2.36757,272.06,0.963266
219.4000,-3.02344,272.076,0.963455
219.3000,-2.34156,271.668,0.958767
219.2000,-3.05435,272.04,0.96304
219.1000,-1.8465,272.338,0.96646
219.0000,-1.27166,272.648,0.970012
218.9000,-1.59399,272.209,0.964974
218.8000,-2.34041,272.583,0.96926
218.7000,-1.79204,272.378,0.966909
218.6000,-2.41973,272.359,0.966697
218.5000,-3.6513,272.779,0.971506
218.4000,-3.3356,272.756,0.971243
218.3000,-2.87025,272.908,0.972978
218.2000,-1.02665,272.886,0.972737
218.1000,-2.36661,272.945,0.973406
218.0000,-3.85293,273.107,0.975258
217.9000,-0.813225,273.316,0.97765
217.8000,-2.62714,272.872,0.972571
217.7000,-2.26865,272.957,0.973544
217.6000,-2.55778,273.005,0.974093
217.5000,-1.60688,273.638,0.981325
217.4000,-0.600388,273.594,0.980828
217.3000,-2.82111,274.002,0.985487
217.2000,-1.6399,273.994,0.985397
217.1000,-2.83963,273.872,0.984002
217.0000,-1.63552,273.777,0.982919
216.9000,-1.65131,274.343,0.989375
216.8000,-1.01029,274.604,0.992339
216.7000,-2.28069,274.001,0.985473
216.6000,-2.19724,274.22,0.987971
216.5000,-2.37763,274.52,0.991384
216.4000,-2.02828,274.379,0.989777
216.3000,-0.6799,274.417,0.990218
216.2000,-1.01291,274.878,0.995463
216.1000,-0.816783,274.443,0.990512
216.0000,-1.81374,274.816,0.994754
215.9000,-1.79396,274.98,0.996623
215.8000,-1.50927,275.008,0.996935
215.7000,-0.136711,275.083,0.997799
215.6000,-1.29931,274.923,0.995977
215.5000,-2.14273,274.564,0.991886
215.4000,-1.65942,275.156,0.99862
215.3000,-3.02644,275.331,1.00062
215.2000,-2.81886,275.764,1.00553
215.1000,-1.72634,274.926,0.996008
215.0000,-0.909868,275.693,1.00472
214.9000,-1.75888,275.831,1.00629
214.8000,-2.03476,275.172,0.998802
214.7000,-2.28666,275.834,1.00632
214.6000,-1.58506,275.716,1.00499
214.5000,-1.32348,275.558,1.00319
214.4000,-0.39435,275.693,1.00472
214.3000,-3.53014,276.107,1.00942
214.2000,-2.47111,275.523,1.00279
214.1000,-1.84073,275.847,1.00646
214.0000,-2.43864,276.015,1.00837
213.9000,-1.34771,275.766,1.00555
213.8000,-1.67652,276.247,1.011
213.7000,-1.64169,276.145,1.00985
213.6000,-1.06816,276.209,1.01057
213.5000,-2.22339,275.895,1.00701
213.4000,-2.34305,276.509,1.01397
213.3000,-1.60142,276.379,1.0125
213.2000,-1.38933,276.574,1.01471
213.1000,-2.59375,276.219,1.01069
213.0000,-1.23471,276.756,1.01677
212.9000,-1.33551,276.791,1.01716
212.8000,-1.61494,276.703,1.01616
212.7000,-0.589168,276.926,1.01868
212.6000,-1.73304,277.126,1.02095
212.5000,-2.30263,277.249,1.02234
212.4000,-1.11324,277.245,1.02229
212.3000,-1.89904,277.287,1.02277
212.2000,-1.3618,277.289,1.0228
212.1000,-1.70503,277.413,1.02419
212.0000,-2.27955,277.618,1.0265
211.9000,-2.55056,277.577,1.02605
211.8000,-2.23341,277.563,1.02589
211.7000,-1.61745,277.659,1.02696
211.6000,-1.94923,277.812,1.02869
211.5000,-1.55541,278.165,1.03267
211.4000,-0.550159,278.304,1.03424
211.3000,-2.45651,278.512,1.03657
211.2000,-2.52883,278.248,1.03361
211.1000,-0.961202,278.326,1.03449
211.0000,-2.86875,278.685,1.03852
210.9000,-1.88351,278.777,1.03957
210.8000,-3.86365,278.658,1.03822
210.7000,-3.36203,278.633,1.03795
210.6000,-1.2496,279.023,1.04233
210.5000,-1.48139,278.846,1.04034
210.4000,-1.29405,278.877,1.04069
210.3000,-1.12412,279.449,1.0471
210.2000,-2.58897,279.261,1.04499
210.1000,-2.91864,279.174,1.04403
210.0000,-0.680013,279.697,1.04989
209.9000,-1.66259,279.681,1.04971
209.8000,-0.756823,279.495,1.04762
209.7000,-1.81112,279.625,1.04908
209.6000,-1.38037,280.103,1.05444
209.5000,-1.74483,280.294,1.05658
209.4000,-1.27702,280.186,1.05537
209.3000,-2.89955,280.954,1.06396
209.2000,-1.01206,280.464,1.05848
209.1000,-2.10102,280.733,1.06149
209.0000,-1.64761,280.949,1.0639
208.9000,-1.69249,280.169,1.05518
208.8000,-2.79278,280.722,1.06136
208.7000,-2.53829,280.883,1.06317
208.6000,-1.26715,280.407,1.05784
208.5000,-2.137,281.181,1.0665
208.4000,-2.54892,281.461,1.06962
208.3000,-4.30026,281.027,1.06477
208.2000,-1.17229,281.6,1.07117
208.1000,-3.07004,281.65,1.07172
208.0000,-3.5195,282.19,1.07774
207.9000,-2.43556,282.49,1.08107
207.8000,-2.09071,282.591,1.0822
207.7000,-2.76608,282.778,1.08428
207.6000,-1.879,282.551,1.08176
207.5000,-1.11441,282.02,1.07585
207.4000,-2.38093,282.806,1.08459
207.3000,-2.37236,283.096,1.08781
207.2000,-0.956417,283.057,1.08738
207.1000,-1.12263,283.08,1.08764
207.0000,-2.09091,282.862,1.08521
206.9000,-3.06118,283.393,1.0911
206.8000,-1.88904,283.687,1.09436
206.7000,-1.44982,283.737,1.09492
206.6000,-1.8115,283.864,1.09633
206.5000,-1.90716,283.83,1.09596
206.4000,-1.09799,283.956,1.09735
206.3000,-1.28835,284.141,1.0994
206.2000,-2.72778,284.403,1.10229
206.1000,-1.92932,284.536,1.10376
206.0000,-1.36027,284.632,1.10483
205.9000,-0.619496,284.976,1.10862
205.8000,-1.37414,285.075,1.10972
205.7000,-0.164455,285.239,1.11153
205.6000,-2.84624,285.193,1.11102
205.5000,-1.708,285.433,1.11367
205.4000,-0.341142,285.8,1.11772
205.3000,-0.300573,285.767,1.11735
205.2000,-1.04739,286.441,1.12476
205.1000,-2.00624,286.362,1.12389
205.0000,-0.160327,286.593,1.12643
204.9000,0.188368,286.899,1.1298
204.8000,0.555313,286.889,1.12969
204.7000,0.181018,286.721,1.12784
204.6000,-0.358895,287.374,1.135
204.5000,-0.716807,287.338,1.13461
204.4000,0.298731,287.677,1.13833
204.3000,-0.765585,288.239,1.14448
204.2000,1.10665,287.978,1.14162
204.1000,-0.36067,288.214,1.14421
204.0000,1.01811,288.407,1.14631
203.9000,1.68144,288.394,1.14618
203.8000,1.09884,289.155,1.15449
203.7000,1.13764,289.238,1.15539
203.6000,-0.0210078,289.31,1.15618
203.5000,0.938544,289.462,1.15783
203.4000,0.269475,289.781,1.1613
203.3000,0.130436,290.293,1.16688
203.2000,1.75519,290.022,1.16393
203.1000,0.762049,290.139,1.1652
203.0000,3.30733,290.529,1.16944
202.9000,1.32132,291.082,1.17545
202.8000,2.03209,290.988,1.17443
202.7000,2.9079,290.828,1.17268
202.6000,0.895043,291.038,1.17497
202.5000,0.148703,291.353,1.17838
202.4000,1.42387,291.568,1.18071
202.3000,2.22782,291.921,1.18453
202.2000,2.02085,292.569,1.19154
202.1000,2.03192,292.679,1.19273
202.0000,1.19244,292.827,1.19433
201.9000,0.910429,292.993,1.19612
201.8000,2.41036,293.313,1.19956
201.7000,1.88239,293.657,1.20328
201.6000,2.32958,293.762,1.2044
201.5000,2.97615,294.051,1.20751
201.4000,2.19503,294.594,1.21334
201.3000,4.36765,294.647,1.21392
201.2000,2.63602,294.714,1.21464
201.1000,2.28956,294.88,1.21642
201.0000,3.56034,295.34,1.22136
200.9000,2.18755,295.649,1.22466
200.8000,3.84253,295.645,1.22462
200.7000,2.86984,295.89,1.22724
200.6000,2.12752,296.154,1.23007
200.5000,3.15784,296.772,1.23667
200.4000,4.39361,296.937,1.23842
200.3000,2.60731,296.754,1.23648
200.2000,3.62072,297.609,1.24559
200.1000,2.89919,298.079,1.2506
200.0000,4.68455,297.868,1.24835
199.9000,4.49411,298.156,1.25142
199.8000,5.14298,298.401,1.25402
199.7000,6.39798,298.765,1.25788
199.6000,5.47845,299.005,1.26042
199.5000,3.76449,299.085,1.26128
199.4000,4.61076,299.189,1.26238
199.3000,5.70067,299.562,1.26634
199.2000,5.86907,299.786,1.2687
199.1000,5.81782,299.952,1.27046
199.0000,6.38501,300.13,1.27234
198.9000,5.699,300.274,1.27387
198.8000,6.30237,300.675,1.2781
198.7000,5.43278,300.776,1.27917
198.6000,6.23482,301.176,1.28338
198.5000,7.12909,301.383,1.28557
198.4000,6.67265,301.791,1.28987
198.3000,5.67513,301.714,1.28906
198.2000,5.82823,302.263,1.29483
198.1000,6.23407,302.181,1.29397
198.0000,6.44723,302.739,1.29983
197.9000,8.08001,303.101,1.30363
197.8000,7.5893,302.945,1.30199
197.7000,5.13907,303.321,1.30594
197.6000,5.39666,303.485,1.30765
197.5000,6.2049,303.788,1.31083
197.4000,5.70813,304.072,1.31379
197.3000,5.76653,304.391,1.31713
197.2000,9.62215,304.931,1.32277
197.1000,6.85882,304.877,1.32221
197.0000,5.43073,304.827,1.32169
196.9000,8.21224,305.808,1.33192
196.8000,7.90471,305.988,1.33379
196.7000,6.66723,306.51,1.33922
196.6000,6.59858,306.431,1.33839
196.5000,8.86929,306.672,1.3409
196.4000,7.7418,307.147,1.34583
196.3000,9.69811,307.603,1.35055
196.2000,7.38682,308.468,1.35951
196.1000,8.67139,308.26,1.35735
196.0000,9.47832,308.495,1.35979
195.9000,8.45732,309.601,1.3712
195.8000,7.31198,310.193,1.37729
195.7000,9.70798,309.737,1.3726
195.6000,8.14184,310.206,1.37743
195.5000,7.08046,310.662,1.38212
195.4000,9.42813,311.309,1.38875
195.3000,9.46604,311.415,1.38984
195.2000,9.56043,311.525,1.39097
195.1000,9.65729,312.26,1.3985
195.0000,8.92914,312.075,1.3966
194.9000,7.8032,312.984,1.4059
194.8000,8.40515,313.428,1.41043
194.7000,10.2131,313.534,1.4115
194.6000,10.0665,313.75,1.41371
194.5000,10.7503,314.355,1.41987
194.4000,7.16683,314.904,1.42545
194.3000,6.97026,315.405,1.43054
194.2000,12.0591,315.831,1.43486
194.1000,10.2195,316.439,1.44101
194.0000,9.84526,317.402,1.45074
193.9000,7.74989,317.773,1.45449
193.8000,8.16705,318.71,1.46392
193.7000,9.5149,319.408,1.47094
193.6000,9.7139,320.113,1.47801
193.5000,9.48674,320.726,1.48414
193.4000,9.36826,321.115,1.48803
193.3000,9.59492,321.529,1.49216
193.2000,8.25246,322.431,1.50116
193.1000,9.75584,323.067,1.5075
193.0000,9.48014,323.821,1.51498
192.9000,9.65658,324.861,1.52529
192.8000,7.88862,325.557,1.53218
192.7000,8.70819,325.919,1.53575
192.6000,7.15039,326.971,1.54612
192.5000,11.8312,328.125,1.55746
192.4000,7.50038,328.961,1.56566
192.3000,7.96758,329.523,1.57117
192.2000,8.81505,330.405,1.57978
192.1000,8.78525,331.169,1.58723
192.0000,8.00569,332.188,1.59714
191.9000,9.67415,332.979,1.60481
191.8000,10.4344,334.101,1.61568
191.7000,11.4268,334.274,1.61735
191.6000,10.2637,335.64,1.63053
191.5000,6.21733,336.6,1.63976
191.4000,10.9542,338.212,1.65522
191.3000,8.81822,339.178,1.66446
191.2000,9.06396,340.819,1.68009
191.1000,9.29505,342.653,1.69749
191.0000,6.63046,344.049,1.71069
190.9000,4.61794,346.232,1.73123
190.8000,10.0788,347.762,1.74556
190.7000,13.2819,349.424,1.76107
190.6000,12.161,350.631,1.77229
190.5000,11.9139,352.02,1.78517
190.4000,8.99974,353.337,1.79734
190.3000,7.61641,355.02,1.81283
190.2000,8.17823,356.105,1.82279
190.1000,8.45966,357.453,1.83512
190.0000,10.158,358.955,1.84883

##### Extended Information
[Comments]
Sample name,class
Comment
User
Division
Company,Saint Mary's College

[Detailed Information]
Creation date,10/6/2021 2:54 PM

Data array type,Linear data array * 3
Horizontal axis,Wavelength [nm]
Vertical axis(1),CD [mdeg]
Vertical axis(2),HT [V]
Vertical axis(3),Abs
Start,290 nm
End,190 nm
Data interval,0.1 nm
Data points,1001    

[Measurement Information]
Instrument name,J-1500
Model name,J-1500
Serial No.,B051061638

Detector,PM-539
Detector S/N,B051061638
  Lock-in amp.,X mode
  HT volt,Auto

Accessory,PTC-517
Accessory S/N,B026561646
  Temperature,25.38 C
  Control sensor,Holder
  Monitor sensor,Holder

Measurement date,10/6/2021 2:53 PM

CD Overload detect,870
Photometric mode,CD, HT, Abs
Measure range,290 - 190 nm
Data pitch,0.1 nm
CD scale,20 mdeg/0.05 dOD
FL scale,20 mdeg/0.05 dOD
D.I.T.,64 msec
Bandwidth,1.00 nm
Start mode,Immediately
Scanning mode,Continuous
Scanning speed,50 nm/min
Baseline correction,None
Shutter control,Auto
No. of cycle,1/1
N2 Flowmeter,Manual


