TITLE,class
DATA TYPE,
ORIGIN,JASCO
OWNER,
DATE,21/10/06
TIME,15:58:54
SPECTROMETER/DATA SYSTEM,
LOCALE,1033
RESOLUTION,
DELTAX,-0.1
XUNITS,NANOMETERS
YUNITS,CD [mdeg]
Y2UNITS,HT [V]
Y3UNITS,ABSORBANCE
FIRSTX,  290.0000
LASTX,  190.0000
NPOINTS,    1001
FIRSTY,     1.61110
MAXY,    12.37032
MINY,    -3.55047
XYDATA
290.0000,1.6111,253.479,0.743762
289.9000,0.168287,253.516,0.744213
289.8000,1.86259,253.691,0.746332
289.7000,0.899018,253.677,0.74617
289.6000,1.62306,253.584,0.745035
289.5000,1.34673,253.956,0.749551
289.4000,0.420908,253.135,0.739565
289.3000,1.35067,253.354,0.742235
289.2000,2.1003,253.308,0.741673
289.1000,0.986208,253.696,0.746392
289.0000,0.436903,253.304,0.741628
288.9000,1.7964,253.494,0.743936
288.8000,0.992474,253.277,0.741297
288.7000,1.58873,253.465,0.743589
288.6000,0.626501,253.559,0.744727
288.5000,2.05874,253.503,0.744048
288.4000,0.345629,253.479,0.743753
288.3000,0.900236,252.883,0.736501
288.2000,2.41508,253.321,0.74184
288.1000,0.501607,253.595,0.745173
288.0000,0.738492,253.771,0.747303
287.9000,1.80947,253.982,0.749875
287.8000,2.2942,253.249,0.740962
287.7000,1.17652,253.328,0.741916
287.6000,0.978533,253.252,0.740998
287.5000,1.17954,253.252,0.740995
287.4000,2.01404,253.443,0.743324
287.3000,0.369267,253.361,0.742321
287.2000,1.03286,253.431,0.743178
287.1000,1.14425,252.936,0.737147
287.0000,-0.316084,253.412,0.742941
286.9000,1.41129,253.171,0.740008
286.8000,2.75445,252.757,0.734959
286.7000,1.87741,253.251,0.740984
286.6000,0.904649,253.333,0.741974
286.5000,1.3181,253.272,0.741243
286.4000,0.8634,253.179,0.74011
286.3000,1.49943,252.999,0.73791
286.2000,1.66826,253.16,0.739877
286.1000,0.52027,253.238,0.740822
286.0000,1.93227,253.054,0.738579
285.9000,1.31652,253.312,0.741721
285.8000,0.991752,253.289,0.741441
285.7000,0.417945,253.292,0.741485
285.6000,1.15712,252.796,0.735441
285.5000,2.0197,253.261,0.741105
285.4000,0.0188958,253.171,0.740003
285.3000,1.17344,252.972,0.737584
285.2000,0.563394,253.016,0.738113
285.1000,0.800447,253.409,0.742907
285.0000,1.29859,253.306,0.741647
284.9000,1.681,253.49,0.743893
284.8000,1.43749,253.333,0.741976
284.7000,1.57386,252.919,0.736933
284.6000,1.62761,252.947,0.737273
284.5000,1.14102,253.178,0.740091
284.4000,0.233527,253.409,0.742905
284.3000,1.43141,253.006,0.738001
284.2000,2.28918,252.996,0.73787
284.1000,1.25985,253.17,0.739993
284.0000,1.07809,253.061,0.738669
283.9000,0.807423,252.872,0.736363
283.8000,1.98309,252.978,0.737653
283.7000,0.81712,252.833,0.735883
283.6000,1.08714,253.276,0.741281
283.5000,1.80971,252.937,0.737157
283.4000,2.21163,253.387,0.742635
283.3000,0.889808,253.163,0.739908
283.2000,1.23732,253.683,0.746243
283.1000,1.29064,253.025,0.738226
283.0000,1.00316,252.835,0.735919
282.9000,1.7082,253.365,0.742364
282.8000,2.07449,252.717,0.734479
282.7000,1.51583,253.021,0.738179
282.6000,1.18137,253.132,0.739532
282.5000,0.824421,253.151,0.739761
282.4000,1.56331,252.94,0.737193
282.3000,1.52183,252.788,0.735336
282.2000,1.06806,252.807,0.735574
282.1000,1.27554,252.869,0.73633
282.0000,0.906713,252.81,0.735613
281.9000,1.70222,252.517,0.73203
281.8000,1.09077,252.587,0.732887
281.7000,0.705787,252.409,0.730721
281.6000,0.457792,252.523,0.732106
281.5000,1.47459,252.447,0.731181
281.4000,0.673975,252.967,0.737527
281.3000,1.12323,253.081,0.738907
281.2000,0.544215,252.569,0.732668
281.1000,0.939736,252.646,0.733613
281.0000,1.30413,253.107,0.739227
280.9000,1.20114,253.31,0.741702
280.8000,0.580294,252.674,0.733946
280.7000,2.29127,252.653,0.733687
280.6000,1.42653,252.617,0.733259
280.5000,2.23651,253.008,0.738019
280.4000,1.22415,252.843,0.736011
280.3000,1.67268,252.614,0.733216
280.2000,1.29012,252.546,0.732386
280.1000,1.36132,252.69,0.734142
280.0000,2.40694,252.682,0.734043
279.9000,1.14595,252.764,0.73505
279.8000,1.35322,252.417,0.730816
279.7000,1.45936,253.202,0.740389
279.6000,1.36851,252.519,0.732061
279.5000,1.6865,252.563,0.73259
279.4000,1.96002,252.545,0.73237
279.3000,1.29638,252.333,0.729788
279.2000,0.424722,251.99,0.72559
279.1000,1.61925,252.804,0.735534
279.0000,0.0443313,252.776,0.735195
278.9000,0.630425,252.55,0.732431
278.8000,1.38247,252.701,0.734277
278.7000,0.780666,252.021,0.725971
278.6000,2.1207,252.529,0.732184
278.5000,0.560718,252.839,0.735968
278.4000,1.18743,252.831,0.735864
278.3000,0.616419,252.24,0.728654
278.2000,1.29617,252.6,0.733046
278.1000,0.417195,252.079,0.726684
278.0000,0.933126,252.702,0.734285
277.9000,2.49526,252.487,0.731668
277.8000,0.683677,252.544,0.732365
277.7000,1.09756,252.209,0.728273
277.6000,0.69848,252.41,0.730733
277.5000,0.663631,252.275,0.729084
277.4000,0.347773,252.714,0.734432
277.3000,-0.00126061,252.47,0.731457
277.2000,0.632532,252.761,0.735012
277.1000,1.31068,252.299,0.729372
277.0000,1.11265,252.455,0.731278
276.9000,0.0253849,252.346,0.729949
276.8000,0.435417,252.704,0.73432
276.7000,0.879769,252.479,0.73157
276.6000,1.10705,252.507,0.731907
276.5000,-0.367833,252.403,0.730645
276.4000,1.22699,252.162,0.727697
276.3000,0.618052,252.249,0.728763
276.2000,-0.0325976,252.705,0.734327
276.1000,1.0494,252.367,0.730202
276.0000,0.067012,252.392,0.730506
275.9000,1.1927,252.509,0.731936
275.8000,1.23695,252.34,0.729873
275.7000,1.46095,252.437,0.731058
275.6000,1.74484,252.492,0.731725
275.5000,0.842822,252.307,0.729474
275.4000,1.2915,252.213,0.728326
275.3000,1.56931,252.311,0.72952
275.2000,1.8004,252.634,0.733459
275.1000,1.11232,252.496,0.731779
275.0000,1.48412,252.247,0.728733
274.9000,0.261505,252.313,0.729538
274.8000,1.31669,252.178,0.727896
274.7000,0.899904,252.425,0.730913
274.6000,0.872585,252.291,0.729271
274.5000,0.756759,252.22,0.728411
274.4000,0.779706,252.447,0.731174
274.3000,0.122028,252.132,0.72733
274.2000,0.962605,252.121,0.727202
274.1000,1.07329,252.082,0.726724
274.0000,0.83802,252.23,0.728526
273.9000,1.61361,252.002,0.72574
273.8000,1.27892,251.853,0.723915
273.7000,0.892651,252.441,0.731112
273.6000,0.648596,252.11,0.727063
273.5000,1.00364,252.243,0.728692
273.4000,0.441734,252.136,0.727383
273.3000,1.1524,252.164,0.727728
273.2000,0.183985,252.161,0.727686
273.1000,1.07885,251.765,0.722839
273.0000,0.801405,252.23,0.728531
272.9000,1.29461,252.405,0.730671
272.8000,0.194626,252.603,0.733077
272.7000,0.226537,252.261,0.728908
272.6000,0.273883,252.178,0.727897
272.5000,1.22088,252.273,0.729058
272.4000,0.367199,252.566,0.732631
272.3000,0.941572,251.926,0.724808
272.2000,1.60379,251.898,0.724465
272.1000,0.751947,251.988,0.725565
272.0000,1.13184,252.288,0.729237
271.9000,0.951488,252.199,0.728153
271.8000,1.53966,252.024,0.72601
271.7000,0.77358,252.174,0.727851
271.6000,0.857631,251.931,0.724874
271.5000,1.44162,251.952,0.725126
271.4000,2.56754,252.446,0.731169
271.3000,-0.567447,252.178,0.727899
271.2000,-0.291167,252.061,0.726462
271.1000,-0.0183889,252.031,0.726099
271.0000,0.507089,252.354,0.730043
270.9000,0.967143,251.984,0.725517
270.8000,1.34323,252.76,0.735004
270.7000,1.06902,252.262,0.728918
270.6000,0.728676,252.105,0.726999
270.5000,0.379212,252.07,0.726578
270.4000,0.553812,251.977,0.725434
270.3000,1.08082,252.415,0.730787
270.2000,1.02455,252.22,0.728403
270.1000,1.39931,252.222,0.728425
270.0000,0.849956,252.075,0.72663
269.9000,0.393264,251.87,0.724133
269.8000,0.823509,252.223,0.728441
269.7000,0.813851,252.199,0.728155
269.6000,0.249966,252.378,0.730332
269.5000,0.534135,251.977,0.725442
269.4000,0.614145,252.621,0.733302
269.3000,-0.316718,252.409,0.73071
269.2000,0.982029,251.953,0.725139
269.1000,0.661818,252.139,0.727421
269.0000,0.350777,252.294,0.729308
268.9000,0.51975,252.32,0.729629
268.8000,1.44508,252.683,0.734059
268.7000,0.74518,252.206,0.72824
268.6000,0.150329,252.283,0.72918
268.5000,1.74456,252.135,0.727371
268.4000,0.263512,252.702,0.734297
268.3000,0.791616,252.379,0.730346
268.2000,0.212224,252.126,0.727264
268.1000,-0.10958,252.344,0.72992
268.0000,1.02873,252.869,0.736327
267.9000,-0.302257,252.238,0.728623
267.8000,1.46264,252.257,0.728861
267.7000,1.7101,252.16,0.727672
267.6000,0.972819,252.371,0.730247
267.5000,0.557539,252.556,0.732512
267.4000,0.9887,252.393,0.730525
267.3000,1.16715,252.152,0.727577
267.2000,1.66362,252.544,0.73236
267.1000,0.553451,252.432,0.730991
267.0000,1.004,252.692,0.734173
266.9000,0.85569,252.34,0.729877
266.8000,-0.23105,252.402,0.730634
266.7000,1.36104,252.286,0.729218
266.6000,0.0496039,252.919,0.736933
266.5000,0.19269,252.415,0.730792
266.4000,0.255021,252.784,0.73529
266.3000,1.78557,252.419,0.730833
266.2000,0.125151,252.964,0.73749
266.1000,-0.0335067,252.484,0.731625
266.0000,0.223349,253.113,0.739303
265.9000,1.93881,252.646,0.733603
265.8000,0.647281,252.712,0.734418
265.7000,0.0869671,252.455,0.731279
265.6000,-0.334005,252.875,0.736401
265.5000,0.0673903,252.515,0.732011
265.4000,0.717242,252.838,0.735949
265.3000,1.24117,252.725,0.734575
265.2000,0.195338,252.349,0.729987
265.1000,0.764263,252.564,0.732604
265.0000,1.00917,252.595,0.732981
264.9000,0.902248,252.437,0.731056
264.8000,1.1155,252.695,0.734202
264.7000,0.638314,252.959,0.737428
264.6000,1.01516,252.501,0.73184
264.5000,0.442178,252.068,0.726551
264.4000,-0.0818599,252.592,0.732955
264.3000,0.471657,252.879,0.736455
264.2000,0.589832,252.869,0.736334
264.1000,-0.195983,252.425,0.730911
264.0000,1.26119,252.902,0.736736
263.9000,0.23647,253.142,0.73966
263.8000,-0.109764,252.844,0.736024
263.7000,0.22678,252.55,0.732439
263.6000,1.50757,252.616,0.733247
263.5000,-0.290012,252.864,0.736265
263.4000,1.33275,253.032,0.738315
263.3000,-0.266408,253.332,0.741973
263.2000,0.610142,253.081,0.738911
263.1000,1.19307,253.135,0.739567
263.0000,0.293968,252.893,0.736624
262.9000,0.0275486,252.757,0.734959
262.8000,0.324395,252.839,0.735964
262.7000,1.92654,252.927,0.737031
262.6000,0.293065,252.936,0.73714
262.5000,0.169919,253.299,0.741571
262.4000,0.698525,253.138,0.739612
262.3000,0.172952,253.148,0.739725
262.2000,0.463068,253.131,0.73952
262.1000,0.21064,252.989,0.737789
262.0000,1.83284,252.884,0.736511
261.9000,-0.0787984,252.805,0.73555
261.8000,1.43194,252.951,0.737323
261.7000,0.269438,252.702,0.734287
261.6000,1.65139,253.273,0.741248
261.5000,0.690414,253.384,0.742605
261.4000,0.65342,253.251,0.740981
261.3000,0.154235,253.492,0.743915
261.2000,-0.407213,253.189,0.740233
261.1000,-0.745019,253.2,0.740364
261.0000,0.213168,253.299,0.741564
260.9000,-0.0840979,253.52,0.744253
260.8000,0.571081,253.237,0.74081
260.7000,0.837661,253.301,0.741595
260.6000,-0.117489,253.372,0.742457
260.5000,1.14469,253.145,0.739691
260.4000,1.434,253.568,0.744841
260.3000,1.92071,253.605,0.745287
260.2000,1.07047,253.086,0.738973
260.1000,0.636323,253.765,0.747238
260.0000,0.988862,253.885,0.748691
259.9000,-0.498458,253.634,0.745643
259.8000,0.812895,254.046,0.750646
259.7000,1.27935,253.908,0.748978
259.6000,1.44718,253.517,0.744224
259.5000,0.954008,253.788,0.747519
259.4000,0.281854,253.822,0.74793
259.3000,1.19929,253.924,0.749162
259.2000,0.754434,254.144,0.751842
259.1000,0.716428,253.729,0.746797
259.0000,1.54415,253.755,0.747116
258.9000,0.0940674,253.952,0.749512
258.8000,0.352506,253.95,0.749481
258.7000,0.566735,254.059,0.750811
258.6000,1.23978,254.281,0.753509
258.5000,0.0803068,253.889,0.748741
258.4000,-0.564048,253.909,0.748985
258.3000,1.02996,254.213,0.752683
258.2000,0.0438843,253.772,0.747319
258.1000,0.23703,254.283,0.753527
258.0000,1.88388,254.491,0.756046
257.9000,0.713667,253.737,0.746897
257.8000,0.431171,254.032,0.750482
257.7000,1.44544,254.378,0.754677
257.6000,1.05048,254.319,0.753967
257.5000,1.51058,254.469,0.755789
257.4000,0.623322,254.394,0.754873
257.3000,0.916343,254.543,0.75668
257.2000,0.194944,254.434,0.755361
257.1000,1.07181,254.532,0.756546
257.0000,-0.0143421,254.555,0.756823
256.9000,1.17632,254.608,0.757465
256.8000,0.659532,254.385,0.75476
256.7000,1.07773,254.452,0.755582
256.6000,1.83095,254.635,0.757795
256.5000,0.895306,254.596,0.757321
256.4000,0.578406,254.726,0.758903
256.3000,0.272455,254.802,0.759818
256.2000,0.0141096,254.566,0.756962
256.1000,0.239358,254.502,0.756178
256.0000,-0.301499,254.838,0.760261
255.9000,1.39687,254.883,0.760805
255.8000,0.32494,254.678,0.758315
255.7000,1.08744,254.496,0.756113
255.6000,1.28795,254.5,0.756156
255.5000,0.346369,255.142,0.763936
255.4000,0.750364,254.742,0.759094
255.3000,1.22128,254.782,0.759573
255.2000,0.795028,254.468,0.755766
255.1000,0.918473,254.474,0.755847
255.0000,0.983539,254.935,0.761436
254.9000,-0.145963,255.199,0.764633
254.8000,0.498558,254.695,0.758524
254.7000,-0.55456,255.229,0.764988
254.6000,0.678545,254.996,0.762165
254.5000,0.479817,254.77,0.759427
254.4000,1.58207,255.146,0.763984
254.3000,1.17259,255.012,0.762367
254.2000,0.558477,254.913,0.761167
254.1000,0.315124,255.218,0.764858
254.0000,0.462215,254.827,0.760118
253.9000,-0.607347,255.026,0.762532
253.8000,-0.0540599,255.155,0.764095
253.7000,1.86697,255.403,0.76709
253.6000,1.00428,255.149,0.764023
253.5000,1.57014,255.222,0.764904
253.4000,0.672928,255.352,0.766473
253.3000,1.11095,255.039,0.762688
253.2000,0.816157,255.138,0.763893
253.1000,-1.06587,255.171,0.764294
253.0000,0.89806,255.812,0.772036
252.9000,-0.248317,255.595,0.769418
252.8000,0.76911,254.993,0.762136
252.7000,-0.708803,255.016,0.762408
252.6000,0.357876,255.411,0.767189
252.5000,0.73286,255.461,0.767797
252.4000,1.20483,255.644,0.770009
252.3000,0.342175,255.584,0.769282
252.2000,0.876837,254.925,0.761314
252.1000,1.39037,255.348,0.766432
252.0000,0.552728,255.709,0.770798
251.9000,1.50625,255.638,0.76993
251.8000,0.79302,255.838,0.772353
251.7000,0.750682,255.487,0.768114
251.6000,0.605249,255.801,0.771906
251.5000,0.853248,255.651,0.770093
251.4000,-0.802797,255.488,0.768128
251.3000,0.883054,256.113,0.775669
251.2000,0.468496,255.637,0.769918
251.1000,0.774781,255.907,0.773187
251.0000,1.21425,255.482,0.768045
250.9000,1.11514,255.728,0.771023
250.8000,0.826704,255.386,0.766888
250.7000,1.27921,256.074,0.775195
250.6000,0.983247,255.717,0.77089
250.5000,0.161874,255.555,0.768929
250.4000,1.06768,255.362,0.766597
250.3000,-0.708864,255.963,0.773859
250.2000,0.918758,255.91,0.77322
250.1000,0.258222,255.624,0.769766
250.0000,0.690896,255.924,0.773391
249.9000,1.45832,255.689,0.770556
249.8000,0.756253,255.602,0.769499
249.7000,1.71579,256.034,0.774712
249.6000,0.457813,255.922,0.77337
249.5000,0.896432,255.717,0.770892
249.4000,1.21084,255.499,0.768253
249.3000,1.11001,256.335,0.778345
249.2000,0.94148,256.127,0.775838
249.1000,0.0358201,255.911,0.773232
249.0000,0.904007,255.632,0.769863
248.9000,0.581618,255.835,0.77231
248.8000,0.638598,256.343,0.778444
248.7000,0.521877,255.976,0.774018
248.6000,0.997818,255.943,0.773616
248.5000,0.575043,256.398,0.77911
248.4000,1.02898,255.619,0.769711
248.3000,0.909152,255.599,0.76947
248.2000,1.33613,255.37,0.766696
248.1000,0.34991,255.596,0.769422
248.0000,1.87565,255.589,0.769345
247.9000,1.14655,255.363,0.766607
247.8000,0.00311373,255.112,0.763578
247.7000,0.427325,255.727,0.771015
247.6000,0.682935,255.401,0.767066
247.5000,0.551033,255.655,0.770146
247.4000,0.214638,256.049,0.774895
247.3000,0.890324,255.792,0.77179
247.2000,0.214785,256.288,0.777777
247.1000,0.736327,255.868,0.772708
247.0000,1.06402,255.691,0.770574
246.9000,0.773899,256.127,0.77584
246.8000,0.963024,256.254,0.77737
246.7000,1.89946,256.331,0.778303
246.6000,0.179943,256.017,0.774508
246.5000,0.73393,256.217,0.776926
246.4000,1.87895,256.307,0.778011
246.3000,2.47633,255.452,0.767688
246.2000,0.454636,256.213,0.776873
246.1000,0.0703394,256.239,0.777193
246.0000,0.970915,256.479,0.780087
245.9000,-0.0793236,256.069,0.775143
245.8000,0.111655,256.171,0.776371
245.7000,0.548293,255.87,0.772742
245.6000,0.944049,256.557,0.781025
245.5000,-0.098158,256.439,0.779597
245.4000,0.534543,256.325,0.778222
245.3000,0.170139,256.211,0.776849
245.2000,-0.382852,256.393,0.77905
245.1000,1.91145,256.105,0.775576
245.0000,0.809126,256.014,0.774471
244.9000,1.54412,256.207,0.776807
244.8000,-1.29411,256.209,0.776829
244.7000,0.952747,256.432,0.779518
244.6000,-0.346499,256.073,0.775183
244.5000,0.843361,256.031,0.774676
244.4000,1.03655,256.693,0.782656
244.3000,1.23454,256.227,0.777042
244.2000,0.27727,256.395,0.779076
244.1000,1.86493,256.325,0.778231
244.0000,0.858889,256.213,0.776882
243.9000,0.97122,256.348,0.778506
243.8000,0.536884,255.951,0.773717
243.7000,-0.534563,256.352,0.778555
243.6000,1.16411,256.696,0.782692
243.5000,0.381825,256.818,0.784163
243.4000,0.410842,255.99,0.77418
243.3000,0.382489,256.541,0.780825
243.2000,0.652594,257.25,0.789356
243.1000,0.890487,256.663,0.782303
243.0000,-0.0210001,256.432,0.779515
242.9000,0.777834,256.622,0.78181
242.8000,-0.934492,256.724,0.783034
242.7000,-0.072143,257.052,0.786977
242.6000,0.64361,256.667,0.782342
242.5000,0.0506912,256.288,0.777782
242.4000,0.329961,256.347,0.77849
242.3000,1.08279,256.561,0.781076
242.2000,0.142397,256.649,0.782127
242.1000,-0.00726055,256.227,0.777041
242.0000,1.05939,256.817,0.784148
241.9000,0.412834,256.817,0.784158
241.8000,0.209798,257.118,0.78777
241.7000,0.923892,256.961,0.78589
241.6000,1.12221,257.179,0.788508
241.5000,0.027951,257.458,0.791857
241.4000,1.11478,256.903,0.785191
241.3000,0.690928,256.573,0.781219
241.2000,0.577955,256.726,0.783056
241.1000,0.727873,257.247,0.789325
241.0000,0.185014,257.42,0.79141
240.9000,0.461187,256.686,0.78257
240.8000,-0.0634427,257.18,0.788521
240.7000,-0.707083,256.757,0.783428
240.6000,0.498687,257.447,0.791725
240.5000,1.59216,257.745,0.795304
240.4000,0.829724,256.912,0.785295
240.3000,1.14357,257.321,0.790212
240.2000,0.291065,257.3,0.789963
240.1000,-0.585864,257.429,0.791515
240.0000,0.592613,257.492,0.792264
239.9000,0.619633,257.291,0.789856
239.8000,-0.170395,257.568,0.793181
239.7000,1.07833,257.785,0.795785
239.6000,0.544151,257.297,0.789924
239.5000,1.26383,257.426,0.791473
239.4000,0.728533,257.764,0.795535
239.3000,0.943977,257.713,0.794923
239.2000,1.00668,257.885,0.796992
239.1000,-0.00444523,257.431,0.791538
239.0000,0.727234,257.929,0.79752
238.9000,-0.151296,258.025,0.798668
238.8000,-0.26007,258.043,0.798885
238.7000,-0.525179,258.498,0.804331
238.6000,1.42752,258.24,0.801236
238.5000,-0.84266,257.984,0.798176
238.4000,0.565611,258.378,0.802892
238.3000,-0.300973,258.636,0.805988
238.2000,1.25165,258.553,0.804995
238.1000,0.875278,258.805,0.808
238.0000,0.302973,258.818,0.808155
237.9000,-0.739605,258.729,0.807096
237.8000,-0.0138807,258.499,0.804339
237.7000,-0.0805165,258.985,0.81016
237.6000,0.485846,258.849,0.808526
237.5000,-0.384225,259.121,0.811778
237.4000,0.751071,258.944,0.809666
237.3000,-0.490207,259.233,0.81312
237.2000,-0.376478,259.051,0.810946
237.1000,-0.670273,259.177,0.812447
237.0000,-1.08009,259.004,0.810379
236.9000,-0.355583,259.245,0.813264
236.8000,0.19159,259.093,0.811454
236.7000,0.273336,259.372,0.814783
236.6000,-0.254366,259.591,0.817392
236.5000,0.463229,259.7,0.818693
236.4000,0.559438,259.274,0.813607
236.3000,0.504078,259.897,0.82104
236.2000,-0.249525,259.556,0.816978
236.1000,0.428904,259.714,0.818865
236.0000,1.01143,259.589,0.817375
235.9000,-1.38947,259.683,0.818496
235.8000,1.16248,259.22,0.812965
235.7000,-0.070691,259.821,0.820132
235.6000,0.34983,260.173,0.824327
235.5000,-0.308123,260.04,0.822741
235.4000,-0.68956,259.862,0.82063
235.3000,-0.0894194,260.361,0.826575
235.2000,0.740961,260.282,0.825625
235.1000,-1.04305,260.746,0.831143
235.0000,-1.24601,259.865,0.82066
234.9000,1.33751,260.43,0.827392
234.8000,-1.07935,260.464,0.827793
234.7000,-1.71346,260.236,0.825078
234.6000,-0.0590461,260.604,0.829457
234.5000,-1.04662,261.017,0.834365
234.4000,-0.827778,260.781,0.831565
234.3000,-0.216611,260.866,0.83257
234.2000,-1.60454,261.096,0.835304
234.1000,-0.0722704,261.07,0.835003
234.0000,-0.175859,260.808,0.83188
233.9000,-0.873119,261.32,0.837965
233.8000,-0.177826,261.521,0.840353
233.7000,-1.05219,261.212,0.836686
233.6000,-0.45264,261.478,0.839834
233.5000,-0.22911,261.755,0.843127
233.4000,1.34544,261.603,0.841324
233.3000,0.685455,261.383,0.838705
233.2000,0.078741,261.711,0.8426
233.1000,-1.05434,261.718,0.842688
233.0000,-0.57164,261.633,0.84168
232.9000,-0.516261,261.814,0.843815
232.8000,-0.816109,262.018,0.84624
232.7000,-0.868966,261.598,0.841257
232.6000,-1.38872,261.937,0.845277
232.5000,-0.504255,262.056,0.846689
232.4000,-1.12965,262.444,0.851275
232.3000,-0.277638,262.246,0.848931
232.2000,-0.882327,262.417,0.850958
232.1000,-0.854979,262.354,0.850213
232.0000,-1.54072,262.511,0.852068
231.9000,-1.24324,262.901,0.856669
231.8000,-2.00634,262.57,0.852763
231.7000,-0.956866,262.729,0.854642
231.6000,-0.64349,262.95,0.857254
231.5000,-0.568039,263.057,0.858516
231.4000,-1.14704,263.613,0.865073
231.3000,0.826363,263.092,0.858924
231.2000,-0.603786,263.388,0.86242
231.1000,-1.42617,263.071,0.858678
231.0000,-1.96631,263.173,0.859881
230.9000,-1.21556,263.261,0.860922
230.8000,-1.80054,263.063,0.858591
230.7000,-1.30451,263.346,0.861924
230.6000,-0.995807,263.673,0.865775
230.5000,-0.675881,263.179,0.859951
230.4000,-1.13116,263.376,0.862276
230.3000,0.121974,263.386,0.862398
230.2000,-1.16547,263.447,0.863111
230.1000,-1.02324,263.362,0.862117
230.0000,-2.20795,263.396,0.86251
229.9000,-1.9692,263.508,0.863838
229.8000,-1.52599,263.088,0.858885
229.7000,-1.9342,263.46,0.863268
229.6000,-1.94764,263.493,0.86366
229.5000,-2.12617,263.277,0.861112
229.4000,-1.70268,263.388,0.862423
229.3000,-0.185559,263.816,0.867456
229.2000,-1.29345,263.629,0.865255
229.1000,-1.0998,264.1,0.870806
229.0000,-2.01862,264.023,0.869893
228.9000,-1.74792,263.99,0.869506
228.8000,-0.822034,265.037,0.881805
228.7000,0.0879066,264.468,0.875133
228.6000,-1.51317,264.72,0.878091
228.5000,-1.78755,264.886,0.880036
228.4000,-1.41416,265.428,0.886386
228.3000,-1.13544,264.869,0.879838
228.2000,-3.32819,265.218,0.883922
228.1000,-1.16883,265.449,0.886633
228.0000,-1.36105,265.303,0.884924
227.9000,-1.94609,265.422,0.886321
227.8000,-1.37863,265.623,0.888673
227.7000,-2.43659,265.764,0.890325
227.6000,-2.31425,265.614,0.888561
227.5000,-2.02964,265.648,0.888963
227.4000,-1.04963,266.223,0.89569
227.3000,-3.48394,265.672,0.889243
227.2000,-3.06598,266.644,0.900604
227.1000,-2.74705,265.879,0.891669
227.0000,-1.53046,266.107,0.894326
226.9000,-2.21533,266.567,0.899707
226.8000,-1.12148,266.74,0.901723
226.7000,-1.97598,266.412,0.897897
226.6000,-2.87232,266.426,0.89806
226.5000,-2.20532,266.935,0.90399
226.4000,-1.45352,266.656,0.900738
226.3000,-1.6467,267.072,0.905588
226.2000,-2.62552,267.347,0.908797
226.1000,-3.50699,266.433,0.898141
226.0000,-2.37538,267.111,0.90605
225.9000,-1.59587,267.342,0.908742
225.8000,-1.76589,267.114,0.906083
225.7000,-2.64307,267.128,0.906245
225.6000,-2.27787,267.354,0.908871
225.5000,-2.01674,267.368,0.909042
225.4000,-3.48477,267.293,0.90817
225.3000,-2.75537,267.244,0.907591
225.2000,-1.38453,267.321,0.90849
225.1000,-1.57515,268.07,0.917206
225.0000,-2.67247,267.782,0.913855
224.9000,-2.66039,267.811,0.914198
224.8000,-1.56278,268.265,0.919471
224.7000,-1.63076,267.91,0.91534
224.6000,-2.06342,268.203,0.918746
224.5000,-0.682806,268.972,0.927667
224.4000,-2.33723,268.495,0.922135
224.3000,-1.99208,268.481,0.92197
224.2000,-2.73486,268.333,0.920255
224.1000,-1.39092,268.8,0.925668
224.0000,-3.00001,268.678,0.924254
223.9000,-2.64935,268.879,0.926594
223.8000,-1.53066,268.891,0.926733
223.7000,-0.898097,269.273,0.931156
223.6000,-1.6169,269.006,0.928059
223.5000,-1.21731,269.126,0.929448
223.4000,-3.05692,269.261,0.931015
223.3000,-1.88732,269.231,0.930666
223.2000,-1.43211,269.061,0.928702
223.1000,-2.65716,269.473,0.93346
223.0000,-2.8887,269.525,0.934071
222.9000,-2.54534,269.619,0.935152
222.8000,-3.25365,269.763,0.936822
222.7000,-2.02303,269.74,0.936548
222.6000,-2.83663,270.001,0.939567
222.5000,-0.864366,270.157,0.941365
222.4000,-2.82631,270.236,0.942282
222.3000,-1.92844,270.025,0.93984
222.2000,-2.79698,270.732,0.948001
222.1000,-2.85026,269.952,0.938998
222.0000,-1.42026,270.13,0.941055
221.9000,-2.65091,270.602,0.946501
221.8000,-1.78041,271.19,0.953266
221.7000,-2.09611,270.671,0.947291
221.6000,-1.4121,270.784,0.948592
221.5000,-2.71097,270.416,0.94436
221.4000,-2.83918,270.582,0.946271
221.3000,-1.67095,270.859,0.94946
221.2000,-1.94297,270.789,0.948659
221.1000,-2.68257,271.071,0.951904
221.0000,-3.32968,270.772,0.948455
220.9000,-1.97805,271.31,0.954654
220.8000,-1.26718,271.498,0.95681
220.7000,-1.1858,270.525,0.945616
220.6000,-2.22111,271.576,0.957714
220.5000,-2.28898,271.675,0.958848
220.4000,-2.69557,271.431,0.956045
220.3000,-2.78326,271.143,0.95273
220.2000,-0.836078,271.671,0.958799
220.1000,-1.35649,271.968,0.962216
220.0000,-2.08138,271.532,0.957203
219.9000,-3.16458,271.633,0.958361
219.8000,-3.47796,272.053,0.963185
219.7000,-2.66271,271.815,0.960454
219.6000,-2.89857,272.07,0.96338
219.5000,-1.41377,272.105,0.963778
219.4000,-3.55047,272.239,0.965315
219.3000,-2.12563,272.332,0.966383
219.2000,-1.78684,272.342,0.966502
219.1000,-2.5875,272.331,0.966375
219.0000,-2.89832,271.86,0.960966
218.9000,-3.10967,272.478,0.968059
218.8000,-2.19687,272.534,0.968703
218.7000,-3.06086,272.806,0.971813
218.6000,-2.85156,272.6,0.969462
218.5000,-2.40919,272.874,0.972589
218.4000,-2.29353,273.137,0.975603
218.3000,-1.25805,273.162,0.97589
218.2000,-1.2941,272.904,0.972942
218.1000,-1.69234,273,0.974035
218.0000,-2.06696,273.102,0.975206
217.9000,-1.84094,272.895,0.97284
217.8000,-3.54467,273.147,0.975718
217.7000,-2.37869,273.224,0.976601
217.6000,-1.84043,273.668,0.981669
217.5000,-2.39992,273.061,0.974738
217.4000,-2.16283,273.428,0.978929
217.3000,-2.06278,273.776,0.9829
217.2000,-1.88185,273.719,0.982253
217.1000,-1.78574,273.857,0.983825
217.0000,-2.9095,274.264,0.988465
216.9000,-0.762815,274.065,0.986203
216.8000,-1.33207,274.295,0.988822
216.7000,-1.51703,274.679,0.993197
216.6000,-2.92313,274.309,0.988985
216.5000,-2.40001,274.515,0.991336
216.4000,-2.77648,274.313,0.989027
216.3000,-3.07104,274.375,0.98974
216.2000,-1.36798,274.708,0.993529
216.1000,-0.827394,274.496,0.99112
216.0000,-1.13457,275.061,0.997543
215.9000,-2.21256,274.831,0.99493
215.8000,-2.55002,274.134,0.986993
215.7000,-0.315801,274.928,0.996029
215.6000,-2.05524,274.806,0.994646
215.5000,-2.22173,274.931,0.996064
215.4000,-1.37326,275.212,0.999257
215.3000,-1.87028,275.131,0.998343
215.2000,-1.29351,275.548,1.00307
215.1000,-3.13665,275.441,1.00186
215.0000,-2.72701,275.212,0.999262
214.9000,-1.96515,275.498,1.00251
214.8000,-1.83882,275.471,1.0022
214.7000,-1.07855,275.47,1.0022
214.6000,-2.78684,275.436,1.00181
214.5000,-2.46776,275.147,0.998517
214.4000,-1.04468,275.794,1.00587
214.3000,-1.81804,276.001,1.00822
214.2000,-1.37447,275.856,1.00657
214.1000,-1.32476,275.645,1.00418
214.0000,-2.41688,276.137,1.00976
213.9000,-2.53826,276.156,1.00997
213.8000,-1.14743,276.104,1.00939
213.7000,-2.67718,276.25,1.01104
213.6000,-1.73809,276.401,1.01274
213.5000,-2.36375,276.484,1.01369
213.4000,-2.69418,276.804,1.01731
213.3000,-2.36182,276.229,1.0108
213.2000,-1.18823,276.686,1.01597
213.1000,-1.10504,276.746,1.01665
213.0000,-2.00093,276.197,1.01044
212.9000,-2.54765,276.951,1.01898
212.8000,-1.96692,276.862,1.01796
212.7000,-2.64976,276.798,1.01725
212.6000,-3.12948,276.965,1.01913
212.5000,-1.76474,277.183,1.0216
212.4000,-2.54314,277.401,1.02405
212.3000,-1.80932,276.938,1.01882
212.2000,-1.22086,277.171,1.02146
212.1000,-2.34311,277.446,1.02457
212.0000,-2.84357,277.674,1.02714
211.9000,-1.38488,278.027,1.03112
211.8000,-2.60755,277.898,1.02966
211.7000,-1.33158,278.02,1.03103
211.6000,-1.80666,278.323,1.03445
211.5000,-1.89242,278.103,1.03197
211.4000,-1.57019,278.373,1.03502
211.3000,-3.15634,278.411,1.03545
211.2000,-1.37614,278.141,1.0324
211.1000,-2.00079,278.896,1.04089
211.0000,-1.93951,278.36,1.03487
210.9000,-1.69141,278.522,1.03669
210.8000,-2.36581,278.745,1.0392
210.7000,-1.64789,278.915,1.04111
210.6000,-2.89784,278.829,1.04014
210.5000,-1.92206,278.588,1.03743
210.4000,-2.25396,278.963,1.04166
210.3000,-2.50703,278.566,1.03718
210.2000,-2.38152,279.45,1.04712
210.1000,-1.53074,279.16,1.04387
210.0000,-1.09081,279.572,1.04848
209.9000,-1.04809,279.682,1.04972
209.8000,-2.26364,279.79,1.05093
209.7000,-1.25024,279.902,1.05219
209.6000,-1.3993,279.995,1.05323
209.5000,-2.75604,280.195,1.05547
209.4000,-0.61045,279.957,1.05281
209.3000,-1.61569,280.131,1.05475
209.2000,-1.55431,280.696,1.06108
209.1000,-1.66977,280.45,1.05833
209.0000,-1.27714,280.571,1.05967
208.9000,-1.9733,280.707,1.0612
208.8000,-2.22498,280.684,1.06094
208.7000,-2.26484,280.882,1.06316
208.6000,-2.98929,281.47,1.06971
208.5000,-2.79419,280.988,1.06434
208.4000,-2.46289,281.361,1.0685
208.3000,-1.75258,281.286,1.06766
208.2000,-1.01034,281.321,1.06806
208.1000,-0.648404,281.582,1.07096
208.0000,-2.15505,282.072,1.07642
207.9000,-1.81504,282.154,1.07735
207.8000,-2.45189,282.202,1.07788
207.7000,-1.72661,282.802,1.08454
207.6000,-1.43154,282.073,1.07644
207.5000,-0.631459,282.879,1.0854
207.4000,-1.61974,282.503,1.08123
207.3000,-2.42264,283.217,1.08915
207.2000,-1.85195,283.017,1.08694
207.1000,-1.9366,283.536,1.09269
207.0000,-2.01318,283.41,1.09129
206.9000,-1.16616,283.222,1.08921
206.8000,-2.09878,283.229,1.08929
206.7000,-1.52613,283.628,1.09371
206.6000,-1.03352,283.904,1.09677
206.5000,-2.49759,283.257,1.0896
206.4000,-0.310482,284.512,1.1035
206.3000,-2.17491,284.245,1.10055
206.2000,-1.27262,284.91,1.1079
206.1000,-0.639701,284.91,1.1079
206.0000,-0.873549,285.239,1.11153
205.9000,-1.41789,285.063,1.10959
205.8000,-2.14401,285.131,1.11033
205.7000,-1.87435,285.245,1.11159
205.6000,-1.00832,285.404,1.11335
205.5000,-2.97775,285.151,1.11056
205.4000,-0.822537,285.628,1.11581
205.3000,-0.692491,285.725,1.11689
205.2000,-0.133766,285.816,1.11789
205.1000,-0.716833,286.443,1.12479
205.0000,-1.26497,286.554,1.126
204.9000,-1.35246,286.916,1.12999
204.8000,-0.714319,286.659,1.12716
204.7000,-0.835095,287.031,1.13125
204.6000,0.694999,287.35,1.13475
204.5000,-0.583328,287.365,1.13491
204.4000,-0.333971,287.959,1.14142
204.3000,-1.39133,288.05,1.14241
204.2000,-1.85304,287.939,1.1412
204.1000,0.0221819,288.728,1.14982
204.0000,-0.194381,288.523,1.14759
203.9000,0.216175,288.434,1.14661
203.8000,-0.743841,289.213,1.15511
203.7000,-0.427285,289.161,1.15455
203.6000,-0.238001,289.513,1.15838
203.5000,1.15941,289.4,1.15715
203.4000,1.24666,289.728,1.16073
203.3000,-0.0416724,289.994,1.16363
203.2000,2.16558,289.884,1.16243
203.1000,-0.0963122,290.173,1.16557
203.0000,-0.0254781,290.48,1.16891
202.9000,0.122747,290.901,1.17348
202.8000,0.737486,290.935,1.17385
202.7000,1.25643,291.108,1.17572
202.6000,1.05019,291.635,1.18144
202.5000,2.2613,291.337,1.17821
202.4000,2.4409,291.562,1.18064
202.3000,1.60924,292.127,1.18676
202.2000,1.67868,292.418,1.18991
202.1000,2.15296,292.571,1.19156
202.0000,2.74672,292.744,1.19343
201.9000,1.40028,293.052,1.19675
201.8000,4.20784,293.226,1.19863
201.7000,1.98164,293.868,1.20554
201.6000,3.09139,293.585,1.20249
201.5000,1.90088,294.325,1.21046
201.4000,2.07226,294.678,1.21425
201.3000,2.39662,294.872,1.21633
201.2000,2.23685,295.614,1.22429
201.1000,3.24851,295.092,1.2187
201.0000,3.11311,295.245,1.22033
200.9000,2.97274,295.759,1.22583
200.8000,3.52775,295.715,1.22537
200.7000,4.29414,296.008,1.22851
200.6000,4.05337,296.501,1.23378
200.5000,5.01637,296.532,1.23411
200.4000,2.95666,297.24,1.24166
200.3000,4.2259,296.61,1.23494
200.2000,3.66806,297.43,1.24369
200.1000,4.8301,297.776,1.24737
200.0000,5.34618,298.111,1.25094
199.9000,4.53775,297.838,1.24803
199.8000,4.14402,298.406,1.25407
199.7000,4.76898,298.511,1.25518
199.6000,4.50936,298.754,1.25777
199.5000,3.26932,299.202,1.26252
199.4000,4.14327,299.267,1.2632
199.3000,3.60696,299.148,1.26194
199.2000,5.38402,299.929,1.27022
199.1000,6.10418,299.71,1.2679
199.0000,7.27991,300.241,1.27352
198.9000,7.21931,300.527,1.27654
198.8000,6.21158,300.665,1.27799
198.7000,6.433,301.014,1.28167
198.6000,6.67801,301.248,1.28414
198.5000,7.54662,301.897,1.29098
198.4000,5.16801,301.757,1.28951
198.3000,6.08246,301.769,1.28963
198.2000,6.61337,302.158,1.29373
198.1000,3.72032,302.423,1.29651
198.0000,6.04612,303.064,1.30324
197.9000,8.48765,302.849,1.30099
197.8000,6.31852,303.471,1.30751
197.7000,7.37283,303.494,1.30774
197.6000,8.09952,303.602,1.30888
197.5000,7.32228,303.755,1.31049
197.4000,8.68268,304.013,1.31318
197.3000,8.23814,303.862,1.31161
197.2000,8.33746,304.425,1.31749
197.1000,5.71616,304.789,1.32129
197.0000,6.25621,305.444,1.32812
196.9000,6.93846,305.783,1.33165
196.8000,6.86744,305.879,1.33265
196.7000,7.4845,306.111,1.33507
196.6000,8.07904,306.123,1.33519
196.5000,7.1053,306.737,1.34157
196.4000,9.45556,307.333,1.34775
196.3000,7.92562,308.117,1.35587
196.2000,8.8019,308.176,1.35649
196.1000,7.87657,308.468,1.3595
196.0000,8.45422,308.753,1.36245
195.9000,9.74089,309.349,1.3686
195.8000,9.09173,309.032,1.36533
195.7000,6.96645,309.716,1.37238
195.6000,6.90103,310.18,1.37716
195.5000,7.72113,310.537,1.38082
195.4000,10.4091,310.996,1.38555
195.3000,8.286,311.198,1.38761
195.2000,8.09257,311.495,1.39066
195.1000,9.29745,312.158,1.39746
195.0000,8.87639,312.623,1.4022
194.9000,7.37887,312.647,1.40246
194.8000,9.22585,313.528,1.41144
194.7000,8.14304,313.557,1.41174
194.6000,11.812,313.658,1.41277
194.5000,8.88219,313.768,1.41389
194.4000,7.73154,315.096,1.4274
194.3000,9.28004,314.708,1.42346
194.2000,9.85512,315.831,1.43485
194.1000,12.3703,316.173,1.43832
194.0000,9.7087,317.6,1.45274
193.9000,9.55892,317.999,1.45676
193.8000,8.31122,318.894,1.46577
193.7000,8.97934,319.298,1.46983
193.6000,11.3456,319.893,1.4758
193.5000,9.25086,320.606,1.48294
193.4000,9.79115,321.78,1.49467
193.3000,7.11226,321.648,1.49336
193.2000,9.25042,321.836,1.49523
193.1000,11.9518,322.291,1.49977
193.0000,7.67937,323.491,1.51171
192.9000,8.77335,324.412,1.52085
192.8000,10.3384,324.775,1.52444
192.7000,8.78519,325.939,1.53594
192.6000,10.6623,326.845,1.54487
192.5000,11.4279,328.093,1.55714
192.4000,9.95902,328.617,1.56229
192.3000,9.93438,329.224,1.56824
192.2000,8.02762,330.29,1.57865
192.1000,11.3038,331.102,1.58658
192.0000,9.03601,331.683,1.59223
191.9000,10.6829,332.608,1.60122
191.8000,7.92202,334.156,1.61621
191.7000,7.70239,334.704,1.6215
191.6000,6.42287,335.711,1.63122
191.5000,7.38539,336.763,1.64133
191.4000,10.7874,337.785,1.65114
191.3000,7.62437,339.361,1.6662
191.2000,6.46807,340.357,1.6757
191.1000,10.5028,342.321,1.69435
191.0000,11.3869,343.062,1.70137
190.9000,9.62127,345.039,1.72001
190.8000,7.37004,346.747,1.73606
190.7000,11.1911,348.388,1.75141
190.6000,8.66832,349.865,1.76517
190.5000,9.88912,351.178,1.77737
190.4000,8.20567,352.691,1.79138
190.3000,7.17104,354.105,1.80441
190.2000,11.6723,355.683,1.81892
190.1000,6.37682,356.702,1.82826
190.0000,10.8781,358.906,1.84838

##### Extended Information
[Comments]
Sample name,class
Comment
User
Division
Company,Saint Mary's College

[Detailed Information]
Creation date,10/6/2021 2:58 PM

Data array type,Linear data array * 3
Horizontal axis,Wavelength [nm]
Vertical axis(1),CD [mdeg]
Vertical axis(2),HT [V]
Vertical axis(3),Abs
Start,290 nm
End,190 nm
Data interval,0.1 nm
Data points,1001    

[Measurement Information]
Instrument name,J-1500
Model name,J-1500
Serial No.,B051061638

Detector,PM-539
Detector S/N,B051061638
  Lock-in amp.,X mode
  HT volt,Auto

Accessory,PTC-517
Accessory S/N,B026561646
  Temperature,25.43 C
  Control sensor,Holder
  Monitor sensor,Holder

Measurement date,10/6/2021 2:57 PM

CD Overload detect,796
Photometric mode,CD, HT, Abs
Measure range,290 - 190 nm
Data pitch,0.1 nm
CD scale,20 mdeg/0.05 dOD
FL scale,20 mdeg/0.05 dOD
D.I.T.,64 msec
Bandwidth,1.00 nm
Start mode,Immediately
Scanning mode,Continuous
Scanning speed,50 nm/min
Baseline correction,None
Shutter control,Auto
No. of cycle,1/1
N2 Flowmeter,Manual


