TITLE,class
DATA TYPE,
ORIGIN,JASCO
OWNER,
DATE,21/10/06
TIME,16:16:59
SPECTROMETER/DATA SYSTEM,
LOCALE,1033
RESOLUTION,
DELTAX,-0.1
XUNITS,NANOMETERS
YUNITS,CD [mdeg]
Y2UNITS,HT [V]
Y3UNITS,ABSORBANCE
FIRSTX,  290.0000
LASTX,  190.0000
NPOINTS,    1001
FIRSTY,     0.34585
MAXY,    11.66754
MINY,    -4.45126
XYDATA
290.0000,0.345846,254.043,0.750609
289.9000,1.14863,253.842,0.748166
289.8000,0.331064,253.83,0.748023
289.7000,1.32337,253.729,0.746802
289.6000,1.28792,253.852,0.748298
289.5000,1.74432,253.696,0.746399
289.4000,0.689204,253.787,0.7475
289.3000,1.51515,253.579,0.744971
289.2000,1.09162,253.693,0.746356
289.1000,1.47047,253.777,0.747386
289.0000,1.16215,253.789,0.747531
288.9000,1.15431,253.654,0.745881
288.8000,1.48283,253.853,0.748307
288.7000,0.618375,253.761,0.74719
288.6000,1.17233,253.801,0.74767
288.5000,0.0916551,253.602,0.745259
288.4000,0.916544,253.382,0.742576
288.3000,1.652,253.585,0.745049
288.2000,1.07274,253.646,0.745788
288.1000,1.86808,253.498,0.743989
288.0000,0.564293,253.536,0.744451
287.9000,1.113,253.446,0.74335
287.8000,1.53176,253.45,0.7434
287.7000,1.23778,253.613,0.745385
287.6000,0.424315,253.633,0.745637
287.5000,1.5223,253.657,0.745917
287.4000,1.49742,253.636,0.745673
287.3000,2.03933,253.461,0.743533
287.2000,1.24762,253.407,0.742881
287.1000,0.125889,253.569,0.744854
287.0000,0.331939,253.159,0.739863
286.9000,0.831799,253.345,0.742123
286.8000,1.73559,253.68,0.746208
286.7000,1.63764,253.581,0.744997
286.6000,0.679796,253.578,0.744958
286.5000,0.779203,253.412,0.74294
286.4000,0.809736,253.212,0.740512
286.3000,0.0461772,253.338,0.742038
286.2000,-0.727185,253.48,0.743765
286.1000,0.833879,253.281,0.74135
286.0000,1.12401,253.636,0.745669
285.9000,1.4936,253.338,0.74204
285.8000,1.21028,253.501,0.744027
285.7000,0.466316,253.634,0.745647
285.6000,1.43781,253.4,0.7428
285.5000,-0.0757793,253.52,0.744258
285.4000,1.38661,253.828,0.747997
285.3000,0.427676,253.3,0.741583
285.2000,0.775643,253.049,0.738517
285.1000,0.265214,253.328,0.741921
285.0000,0.207163,253.371,0.742447
284.9000,1.63436,253.189,0.740233
284.8000,0.818243,253.657,0.745919
284.7000,0.55416,253.2,0.74036
284.6000,0.754425,253.326,0.741895
284.5000,0.288293,253.244,0.7409
284.4000,1.58599,253.183,0.740157
284.3000,1.72312,253.242,0.740872
284.2000,1.25995,253.073,0.738819
284.1000,0.852998,253.311,0.74171
284.0000,1.40404,253.166,0.73995
283.9000,1.54273,253.182,0.740144
283.8000,0.690067,253.254,0.741014
283.7000,0.593089,253.367,0.74239
283.6000,0.700748,253.239,0.740838
283.5000,0.373283,253.279,0.741328
283.4000,0.747007,253.141,0.739639
283.3000,0.43688,253.265,0.741155
283.2000,0.396497,253.047,0.7385
283.1000,1.70227,252.907,0.736788
283.0000,0.824977,252.917,0.736917
282.9000,0.194788,253.108,0.739241
282.8000,0.63705,252.852,0.736126
282.7000,-0.648679,253.616,0.745424
282.6000,1.54137,253.068,0.738752
282.5000,0.919004,253.154,0.739798
282.4000,0.0208459,253.439,0.743267
282.3000,2.11961,253.033,0.738326
282.2000,0.217152,253.074,0.738825
282.1000,1.23408,253.091,0.739037
282.0000,1.58552,253.354,0.742242
281.9000,0.778839,253.199,0.740348
281.8000,1.39091,253.1,0.739147
281.7000,0.732958,252.793,0.735405
281.6000,1.3274,252.997,0.737884
281.5000,0.95937,253.32,0.741822
281.4000,1.3327,253.093,0.739056
281.3000,0.62182,253.017,0.738136
281.2000,0.669916,252.919,0.736942
281.1000,-0.362583,252.764,0.735047
281.0000,0.345831,252.947,0.73728
280.9000,0.879951,252.953,0.737354
280.8000,0.951661,252.916,0.736898
280.7000,1.09276,253.016,0.738113
280.6000,0.0187773,252.906,0.736776
280.5000,1.05236,252.945,0.737249
280.4000,-0.134349,252.936,0.73714
280.3000,1.07805,252.515,0.732011
280.2000,0.751117,252.926,0.737017
280.1000,0.335542,252.606,0.733117
280.0000,0.727476,252.812,0.735631
279.9000,0.915086,253.123,0.739429
279.8000,-0.0842141,252.903,0.736738
279.7000,1.33398,252.637,0.733497
279.6000,2.52517,252.675,0.733964
279.5000,0.924225,252.819,0.735719
279.4000,2.53413,252.788,0.735339
279.3000,0.393718,252.833,0.735885
279.2000,0.42096,252.681,0.73404
279.1000,0.508597,252.562,0.732585
279.0000,1.45739,252.809,0.735593
278.9000,0.88832,252.468,0.731433
278.8000,1.15967,252.985,0.737744
278.7000,0.572101,252.54,0.73231
278.6000,1.1831,252.928,0.737045
278.5000,1.3681,252.506,0.731895
278.4000,0.376053,252.875,0.736399
278.3000,1.96604,252.757,0.734968
278.2000,0.479401,252.658,0.733751
278.1000,1.22075,252.567,0.73264
278.0000,1.07601,252.858,0.736192
277.9000,0.890499,252.826,0.735805
277.8000,0.731119,252.462,0.731366
277.7000,0.876814,252.79,0.735368
277.6000,1.06282,252.835,0.735914
277.5000,0.563353,252.637,0.733501
277.4000,0.746371,252.796,0.735436
277.3000,0.667753,252.517,0.732037
277.2000,0.702233,252.785,0.735303
277.1000,0.357163,252.571,0.732693
277.0000,0.801579,252.659,0.733765
276.9000,0.402237,252.617,0.73325
276.8000,0.865742,252.552,0.732455
276.7000,1.02325,252.009,0.72583
276.6000,0.426732,252.646,0.733604
276.5000,1.83498,252.633,0.73345
276.4000,0.803744,252.855,0.736159
276.3000,0.848605,252.402,0.730631
276.2000,0.992229,252.667,0.733862
276.1000,0.899892,252.244,0.7287
276.0000,0.205244,252.561,0.732572
275.9000,1.32114,252.431,0.730984
275.8000,1.20517,252.867,0.736299
275.7000,0.620269,252.815,0.735665
275.6000,0.895459,252.833,0.735885
275.5000,0.846695,252.626,0.733368
275.4000,0.703869,252.585,0.73286
275.3000,-0.764434,252.567,0.732647
275.2000,0.290992,252.43,0.73097
275.1000,0.549946,252.377,0.730328
275.0000,0.201466,252.217,0.728365
274.9000,1.19276,252.577,0.73277
274.8000,1.45409,252.668,0.733874
274.7000,0.771613,252.52,0.732073
274.6000,0.583897,252.456,0.731292
274.5000,0.210872,252.803,0.735525
274.4000,1.37867,252.635,0.733478
274.3000,0.284163,252.454,0.731269
274.2000,0.682664,252.391,0.7305
274.1000,1.0286,252.203,0.728199
274.0000,0.841436,252.719,0.734504
273.9000,0.948745,252.606,0.733122
273.8000,1.26953,252.55,0.732439
273.7000,0.191904,252.287,0.729228
273.6000,1.00071,251.944,0.725032
273.5000,0.697689,252.076,0.726653
273.4000,0.883334,252.338,0.729847
273.3000,0.921533,252.459,0.731321
273.2000,0.309378,252.306,0.729456
273.1000,0.752805,252.433,0.731008
273.0000,0.0768178,252.243,0.728686
272.9000,0.362415,252.304,0.729427
272.8000,0.323767,252.465,0.731393
272.7000,0.288559,252.321,0.729643
272.6000,1.13286,252.59,0.732922
272.5000,0.856124,252.682,0.734048
272.4000,0.542543,252.429,0.730958
272.3000,1.1211,252.171,0.727811
272.2000,0.531826,252.169,0.727783
272.1000,1.04929,251.756,0.722733
272.0000,1.27462,252.462,0.731366
271.9000,0.599363,252.329,0.729737
271.8000,0.934657,252.031,0.726093
271.7000,0.708463,252.336,0.729822
271.6000,0.662529,252.539,0.732306
271.5000,0.575956,252.267,0.728981
271.4000,0.136384,252.332,0.72978
271.3000,0.788608,252.555,0.732502
271.2000,0.693883,252.281,0.729152
271.1000,-0.538776,252.389,0.730477
271.0000,0.0960628,252.07,0.726575
270.9000,0.949317,252.64,0.73353
270.8000,1.08535,252.023,0.726
270.7000,0.511869,252.407,0.730691
270.6000,0.924407,252.414,0.730781
270.5000,0.00485261,252.529,0.732185
270.4000,0.602503,252.198,0.72814
270.3000,-0.483116,252.303,0.729424
270.2000,0.318204,252.182,0.727946
270.1000,0.582811,252.411,0.730745
270.0000,0.369219,252.617,0.733255
269.9000,-0.423632,252.447,0.731181
269.8000,0.0225509,252.154,0.7276
269.7000,0.0362607,252.639,0.733518
269.6000,0.841385,252.727,0.734596
269.5000,0.808826,252.534,0.732235
269.4000,0.880204,252.479,0.731572
269.3000,0.866981,252.131,0.727323
269.2000,0.819914,252.812,0.735636
269.1000,-0.291182,252.321,0.729638
269.0000,0.0889925,252.418,0.730828
268.9000,0.970802,252.6,0.733046
268.8000,1.07392,252.443,0.731131
268.7000,0.283565,252.408,0.7307
268.6000,-0.266625,252.499,0.731815
268.5000,0.767828,252.632,0.733435
268.4000,0.77268,252.492,0.731732
268.3000,0.679712,252.404,0.730657
268.2000,0.652971,252.5,0.731826
268.1000,-0.101221,252.341,0.729891
268.0000,2.03585,252.473,0.731499
267.9000,0.564371,252.232,0.72855
267.8000,0.450981,252.514,0.732002
267.7000,0.398401,252.49,0.73171
267.6000,0.614103,252.462,0.731364
267.5000,0.539953,252.54,0.73232
267.4000,0.38464,252.406,0.730676
267.3000,-0.132811,252.658,0.733758
267.2000,-0.190411,252.568,0.732654
267.1000,0.748172,252.317,0.729597
267.0000,0.545461,252.47,0.731456
266.9000,-0.304774,252.537,0.732275
266.8000,0.925282,252.685,0.734078
266.7000,0.480815,252.703,0.734301
266.6000,0.0326006,252.727,0.734596
266.5000,0.0557184,252.796,0.735443
266.4000,0.112468,252.65,0.73366
266.3000,0.414026,252.504,0.731874
266.2000,0.708127,252.783,0.735284
266.1000,0.202004,252.778,0.735223
266.0000,0.566941,252.869,0.736323
265.9000,0.624195,252.804,0.735534
265.8000,1.52993,252.953,0.737352
265.7000,0.478243,252.884,0.736511
265.6000,0.731906,252.665,0.733839
265.5000,0.920116,252.642,0.733558
265.4000,0.490197,252.946,0.737263
265.3000,0.268965,252.765,0.735054
265.2000,0.488731,252.861,0.736227
265.1000,0.533006,252.8,0.735482
265.0000,0.785017,252.969,0.737542
264.9000,0.427377,253.365,0.742367
264.8000,-1.34558,252.948,0.737288
264.7000,1.12537,253.049,0.738523
264.6000,0.098123,253.128,0.73948
264.5000,0.307836,252.808,0.735586
264.4000,0.936044,253.167,0.739962
264.3000,1.6329,252.838,0.735947
264.2000,-0.100062,253.104,0.739192
264.1000,1.36637,253.197,0.740329
264.0000,0.544796,253.272,0.741233
263.9000,0.0232447,253.401,0.742814
263.8000,0.788385,252.805,0.735544
263.7000,0.095727,252.862,0.736247
263.6000,0.969923,253.099,0.739134
263.5000,0.938197,253.269,0.741207
263.4000,0.302229,253.262,0.741117
263.3000,0.673412,253.204,0.740415
263.2000,0.889075,252.881,0.73647
263.1000,0.314031,253.314,0.741745
263.0000,0.625522,253.278,0.741312
262.9000,0.932904,253.491,0.743901
262.8000,0.122214,252.931,0.73708
262.7000,1.40926,253.253,0.741009
262.6000,-0.056296,253.479,0.743758
262.5000,0.00211943,253.777,0.747376
262.4000,0.971484,253.322,0.741843
262.3000,-0.30464,253.655,0.745895
262.2000,0.392116,253.49,0.743891
262.1000,-0.44275,253.304,0.74163
262.0000,0.354863,253.994,0.750019
261.9000,-0.562645,253.159,0.739856
261.8000,-1.4319,252.848,0.736076
261.7000,0.133425,253.179,0.740105
261.6000,0.42782,253.313,0.741736
261.5000,1.28117,253.693,0.746363
261.4000,0.428957,253.472,0.743677
261.3000,-0.466734,253.3,0.741574
261.2000,0.891439,253.114,0.739318
261.1000,0.497899,253.228,0.740698
261.0000,0.305637,253.471,0.743664
260.9000,1.03204,253.679,0.746194
260.8000,0.115326,253.805,0.747722
260.7000,0.0977441,253.852,0.748295
260.6000,0.655407,253.871,0.748519
260.5000,0.107915,252.974,0.73761
260.4000,-0.0233565,253.504,0.744062
260.3000,-0.403774,253.704,0.746494
260.2000,0.693135,253.596,0.745187
260.1000,0.0138642,253.599,0.745218
260.0000,0.659831,253.725,0.746747
259.9000,0.390254,254.374,0.754626
259.8000,-0.722477,253.743,0.746966
259.7000,1.5397,254.41,0.755067
259.6000,1.28223,254.27,0.753373
259.5000,-0.559952,254.487,0.756
259.4000,1.12633,254.121,0.75156
259.3000,-0.272537,253.97,0.749732
259.2000,0.294723,253.964,0.749653
259.1000,1.40606,254.313,0.75389
259.0000,0.155233,254.211,0.752658
258.9000,0.572123,254.297,0.753701
258.8000,0.618976,253.567,0.744827
258.7000,0.0810991,254.111,0.751442
258.6000,0.544377,254.294,0.75366
258.5000,0.377319,254.083,0.751094
258.4000,0.703331,254.083,0.751096
258.3000,1.34703,254.465,0.755741
258.2000,1.40428,254.075,0.751007
258.1000,1.07001,254.241,0.753022
258.0000,0.286733,253.81,0.747784
257.9000,0.415514,254.115,0.751492
257.8000,0.205648,254.094,0.751234
257.7000,1.04614,254.803,0.759839
257.6000,0.13937,254.648,0.757949
257.5000,0.688652,254.558,0.75686
257.4000,0.0342419,254.692,0.758486
257.3000,0.476352,254.719,0.758813
257.2000,-0.505427,254.874,0.760688
257.1000,0.602929,254.717,0.75879
257.0000,-0.211936,254.663,0.758133
256.9000,1.31637,254.658,0.758081
256.8000,0.0919617,255.12,0.763672
256.7000,-0.194541,254.823,0.760072
256.6000,0.891136,254.556,0.756842
256.5000,0.407832,254.728,0.758922
256.4000,0.216056,254.978,0.761947
256.3000,0.32287,254.879,0.760753
256.2000,-0.20242,254.326,0.754048
256.1000,0.509571,254.942,0.76152
256.0000,0.835613,254.694,0.75851
255.9000,0.448197,255.054,0.762868
255.8000,0.0368539,254.928,0.761348
255.7000,1.33483,255.212,0.764786
255.6000,-0.0378273,254.927,0.76134
255.5000,0.627053,254.937,0.761451
255.4000,0.386529,255.455,0.76772
255.3000,-0.108468,255.194,0.764563
255.2000,-0.119476,255.207,0.764722
255.1000,0.0824445,255.031,0.762595
255.0000,1.27351,255.189,0.764503
254.9000,1.17774,255.317,0.76605
254.8000,1.17674,255.37,0.766695
254.7000,0.781855,255.28,0.765601
254.6000,0.81127,255.05,0.76282
254.5000,0.149641,255.228,0.764974
254.4000,-0.619879,255.352,0.766477
254.3000,1.00521,255.205,0.764697
254.2000,-0.505784,255.24,0.765118
254.1000,1.86558,255.323,0.766131
254.0000,1.65012,255.332,0.766232
253.9000,0.504688,255.523,0.76854
253.8000,0.266773,255.547,0.76884
253.7000,0.523359,255.582,0.769257
253.6000,-0.438132,255.551,0.768886
253.5000,-0.180063,255.759,0.7714
253.4000,-0.278994,255.475,0.767967
253.3000,1.2762,255.125,0.76373
253.2000,0.471419,255.22,0.764879
253.1000,-0.582246,254.967,0.761815
253.0000,1.27183,255.473,0.767941
252.9000,1.20556,255.718,0.770899
252.8000,0.655354,255.357,0.766539
252.7000,0.425363,255.407,0.767147
252.6000,0.849441,255.736,0.771124
252.5000,1.01771,255.855,0.772556
252.4000,-0.135828,255.737,0.771137
252.3000,1.40852,255.933,0.773497
252.2000,0.544135,255.798,0.771872
252.1000,0.977461,255.738,0.771145
252.0000,0.840637,256.234,0.777129
251.9000,1.2747,255.859,0.772599
251.8000,-0.272492,255.555,0.768936
251.7000,0.0439751,255.528,0.768604
251.6000,0.509519,256.186,0.776556
251.5000,-0.0132057,255.492,0.768174
251.4000,0.383153,255.807,0.77198
251.3000,0.512916,256.151,0.776123
251.2000,0.812538,255.924,0.773385
251.1000,1.18656,255.547,0.768833
251.0000,0.296638,255.801,0.771899
250.9000,0.285266,255.816,0.772087
250.8000,0.156565,255.891,0.772992
250.7000,1.19352,255.578,0.769208
250.6000,-0.211435,255.985,0.774124
250.5000,0.479228,255.841,0.77239
250.4000,1.92302,256.141,0.776009
250.3000,1.74614,256.283,0.77772
250.2000,1.21788,256.306,0.777992
250.1000,0.0271495,255.838,0.772354
250.0000,0.655847,256.036,0.774746
249.9000,-0.765155,256.058,0.775011
249.8000,1.4325,255.811,0.772021
249.7000,1.02332,255.955,0.773763
249.6000,-0.0748383,255.983,0.7741
249.5000,-0.127405,255.79,0.771775
249.4000,0.0869966,256.086,0.775348
249.3000,0.835229,256.16,0.77624
249.2000,0.00746195,255.907,0.773182
249.1000,0.605677,256.088,0.775371
249.0000,0.579175,256.317,0.778132
248.9000,1.31744,256.225,0.777023
248.8000,1.13668,256.005,0.77437
248.7000,-0.515151,256.098,0.775494
248.6000,0.406508,256.197,0.776678
248.5000,-0.153221,256.136,0.775949
248.4000,-0.597457,255.996,0.774257
248.3000,-0.428287,255.554,0.768922
248.2000,0.696871,255.896,0.77305
248.1000,1.05569,255.828,0.772234
248.0000,0.727805,256.085,0.775334
247.9000,0.863715,255.975,0.774001
247.8000,0.333103,256,0.774312
247.7000,0.797577,255.814,0.77206
247.6000,0.56628,256.028,0.774647
247.5000,1.07449,256.375,0.778829
247.4000,-0.264848,256.017,0.774517
247.3000,0.150089,256.03,0.774666
247.2000,0.647263,255.941,0.773596
247.1000,1.00825,256.328,0.778267
247.0000,0.67744,256.328,0.77826
246.9000,1.02596,256.481,0.780105
246.8000,0.447001,256.213,0.776878
246.7000,0.282796,256.652,0.782168
246.6000,0.574711,256.337,0.778366
246.5000,1.37118,256.513,0.780491
246.4000,0.870365,256.217,0.776919
246.3000,0.846628,256.36,0.778648
246.2000,1.11269,256.315,0.778108
246.1000,-0.289163,256.626,0.781859
246.0000,0.250549,256.557,0.781027
245.9000,1.36769,256.165,0.776292
245.8000,0.18532,256.494,0.780264
245.7000,-0.215023,256.283,0.777722
245.6000,0.732538,256.559,0.781044
245.5000,-0.814366,256.434,0.779539
245.4000,-0.276563,256.667,0.782352
245.3000,-0.123685,256.533,0.780738
245.2000,0.37337,256.486,0.78017
245.1000,-0.096778,256.145,0.776053
245.0000,-0.055776,256.321,0.778178
244.9000,-0.31586,256.824,0.784238
244.8000,0.866543,256.329,0.778277
244.7000,0.132679,256.159,0.776222
244.6000,1.73984,256.252,0.777341
244.5000,-0.148171,256.332,0.778313
244.4000,0.694348,256.847,0.784514
244.3000,0.0617039,256.431,0.779506
244.2000,1.00047,256.58,0.781298
244.1000,-0.212218,256.72,0.78298
244.0000,0.232014,256.853,0.784582
243.9000,0.390666,256.961,0.785881
243.8000,0.135401,256.563,0.781097
243.7000,1.09656,256.733,0.783137
243.6000,-0.367796,256.907,0.785232
243.5000,1.31877,256.983,0.786155
243.4000,0.927445,257.219,0.78899
243.3000,-0.0767249,256.683,0.782535
243.2000,0.754319,257.071,0.787205
243.1000,-0.0379468,256.866,0.784746
243.0000,1.47032,256.602,0.781568
242.9000,-0.184168,257.055,0.787019
242.8000,0.82271,257.072,0.787227
242.7000,0.197383,256.708,0.782837
242.6000,-0.13456,257.038,0.786815
242.5000,0.330463,256.899,0.785141
242.4000,-0.092382,257.052,0.786983
242.3000,0.401294,257.004,0.786402
242.2000,0.762917,256.803,0.783991
242.1000,0.693154,256.975,0.78605
242.0000,-0.590459,257.27,0.789608
241.9000,0.91319,257.091,0.787447
241.8000,-0.517978,257.186,0.788593
241.7000,-0.0146339,257.103,0.787593
241.6000,0.358991,257.324,0.790248
241.5000,0.119564,257.234,0.789163
241.4000,-0.308737,257.444,0.791689
241.3000,-0.0636371,257.445,0.791709
241.2000,0.406299,257.204,0.788806
241.1000,-0.463754,257.399,0.79115
241.0000,-0.684784,257.231,0.789127
240.9000,0.285645,257.198,0.788731
240.8000,0.89645,257.349,0.790556
240.7000,0.93793,257.591,0.793453
240.6000,-0.110755,257.077,0.78728
240.5000,-0.742481,257.789,0.795833
240.4000,-0.678353,257.495,0.792303
240.3000,0.406983,257.635,0.793987
240.2000,-0.193311,257.992,0.798269
240.1000,-0.615765,257.967,0.797968
240.0000,-0.030096,257.842,0.796465
239.9000,0.900562,257.707,0.794845
239.8000,0.939115,257.483,0.792164
239.7000,1.18793,257.323,0.790237
239.6000,-0.0251953,257.744,0.795299
239.5000,0.287766,257.808,0.796057
239.4000,0.548865,257.754,0.795416
239.3000,0.0148799,258.14,0.80004
239.2000,-0.876853,258.079,0.799308
239.1000,0.178494,258.528,0.804695
239.0000,-1.42365,258.258,0.801462
238.9000,1.5527,258.211,0.800894
238.8000,-0.342149,257.99,0.798244
238.7000,-0.917489,258.227,0.801089
238.6000,-1.04349,258.663,0.806304
238.5000,-0.154208,258.674,0.806434
238.4000,-1.01419,258.599,0.805539
238.3000,0.178279,258.72,0.806983
238.2000,1.03186,258.385,0.802975
238.1000,0.850749,259.158,0.812225
238.0000,1.03651,258.832,0.808323
237.9000,0.427885,259.255,0.813386
237.8000,-0.841267,259.08,0.811293
237.7000,-0.433301,259.308,0.81402
237.6000,0.11389,259.043,0.810848
237.5000,0.0822244,259.353,0.814553
237.4000,-0.435713,259.507,0.816397
237.3000,0.181929,259.164,0.812296
237.2000,-0.59498,259.49,0.816184
237.1000,-0.46387,259.332,0.814304
237.0000,-0.102033,259.368,0.814735
236.9000,-0.688916,259.431,0.815484
236.8000,0.810492,259.376,0.814828
236.7000,0.0625521,259.605,0.817556
236.6000,-0.766148,259.807,0.819966
236.5000,-0.503732,259.83,0.820245
236.4000,-0.0508217,259.831,0.820252
236.3000,-0.255718,259.614,0.817671
236.2000,-0.735769,260.193,0.824573
236.1000,-0.0666766,260.018,0.822487
236.0000,-0.318424,260.123,0.82373
235.9000,-0.633328,259.932,0.821455
235.8000,0.717777,260.053,0.822903
235.7000,-0.399846,260.149,0.824042
235.6000,-0.468032,260.272,0.825511
235.5000,-1.27171,260.191,0.824549
235.4000,-0.128242,260.307,0.825924
235.3000,1.22897,260.521,0.828477
235.2000,-1.06123,260.65,0.83001
235.1000,0.548771,260.318,0.826057
235.0000,0.764999,260.648,0.829979
234.9000,-0.425511,260.63,0.829772
234.8000,-0.8759,260.729,0.830946
234.7000,-1.32206,260.698,0.830582
234.6000,-0.668956,261.034,0.834574
234.5000,-0.669925,260.88,0.832738
234.4000,-1.37624,261.151,0.835959
234.3000,-0.222639,261.357,0.838403
234.2000,-0.845816,261.272,0.8374
234.1000,-0.304038,261.233,0.836928
234.0000,0.0763174,261.307,0.837805
233.9000,-1.07641,261.525,0.840392
233.8000,-0.73336,261.574,0.840973
233.7000,-0.571707,261.764,0.843224
233.6000,-0.381819,261.861,0.84438
233.5000,-0.0486242,261.952,0.84545
233.4000,-1.27196,261.798,0.843632
233.3000,-1.23371,262.09,0.847083
233.2000,-0.68952,262.081,0.846981
233.1000,-2.09388,262.375,0.850457
233.0000,-0.519515,262.298,0.849546
232.9000,-0.69574,261.961,0.845556
232.8000,-0.340849,261.974,0.845711
232.7000,-0.463331,262.53,0.852294
232.6000,-1.54516,262.183,0.848186
232.5000,-0.54238,262.694,0.85423
232.4000,-2.29874,262.762,0.855039
232.3000,-1.52845,263.115,0.859205
232.2000,-2.73986,262.54,0.852412
232.1000,0.300374,263.026,0.85815
232.0000,-1.09096,262.935,0.857074
231.9000,-2.01782,263.381,0.862338
231.8000,-0.101016,262.417,0.85096
231.7000,-0.845347,263.023,0.858118
231.6000,-1.90856,263.382,0.862353
231.5000,-0.254752,263.181,0.859981
231.4000,-1.10709,263.507,0.863825
231.3000,-0.0694468,263.838,0.867718
231.2000,-1.1634,263.864,0.868021
231.1000,-1.08012,263.492,0.863648
231.0000,-0.405884,264.03,0.869983
230.9000,-1.27266,263.729,0.866434
230.8000,-2.68639,264.041,0.870111
230.7000,-1.60352,263.411,0.862685
230.6000,-1.32135,263.721,0.866344
230.5000,-1.509,263.889,0.868316
230.4000,-2.89182,263.452,0.863179
230.3000,-1.9131,263.793,0.867194
230.2000,-1.19635,263.556,0.864396
230.1000,-1.67496,263.697,0.866057
230.0000,-1.39721,263.924,0.868736
229.9000,-1.48796,263.717,0.866292
229.8000,-1.33545,263.555,0.864387
229.7000,-0.986036,263.818,0.86749
229.6000,-0.66534,264.068,0.870429
229.5000,-3.05329,263.673,0.865775
229.4000,-1.37087,263.733,0.866489
229.3000,-2.06231,263.669,0.865727
229.2000,-2.27235,264.179,0.871735
229.1000,-1.31351,264.304,0.873195
229.0000,-0.242504,264.208,0.87207
228.9000,-0.741505,264.511,0.875638
228.8000,-0.378657,264.638,0.877118
228.7000,-1.42192,264.963,0.880939
228.6000,-0.917966,265,0.881368
228.5000,-1.17972,264.988,0.88123
228.4000,-1.4573,265.617,0.888604
228.3000,-2.01029,265.118,0.882753
228.2000,-2.02158,265.752,0.890182
228.1000,-2.97726,265.417,0.886255
228.0000,-2.66164,265.948,0.892473
227.9000,-2.06254,265.914,0.892073
227.8000,-2.34122,266.258,0.8961
227.7000,-1.73849,265.968,0.892709
227.6000,-2.28872,265.557,0.8879
227.5000,-1.70022,266.315,0.896765
227.4000,-1.55153,266.082,0.894038
227.3000,-2.84915,266.87,0.903241
227.2000,-1.45063,266.347,0.897132
227.1000,-3.23492,266.936,0.904009
227.0000,-1.03231,266.997,0.904715
226.9000,-1.5839,266.172,0.895088
226.8000,-1.64608,267.207,0.907164
226.7000,-0.525224,266.868,0.903219
226.6000,-2.5457,266.738,0.901693
226.5000,-0.978678,267.491,0.910467
226.4000,-2.10429,267.206,0.907157
226.3000,-1.98719,266.988,0.904615
226.2000,-2.09446,267.006,0.904824
226.1000,-2.31978,267.669,0.912539
226.0000,-1.96742,267.321,0.908497
225.9000,-2.62167,267.553,0.911195
225.8000,-1.4595,267.905,0.915289
225.7000,-2.84608,267.394,0.909347
225.6000,-0.722177,267.593,0.911656
225.5000,-1.75186,267.908,0.915324
225.4000,-2.62582,267.858,0.914743
225.3000,-2.9138,268.014,0.916555
225.2000,-1.7817,268.221,0.918962
225.1000,-1.3487,268.118,0.917764
225.0000,-2.25069,268.575,0.923059
224.9000,-2.29207,268.437,0.921468
224.8000,-2.90084,268.613,0.92351
224.7000,-3.73148,268.613,0.923509
224.6000,-2.52046,269.016,0.928175
224.5000,-2.78151,268.811,0.925798
224.4000,-3.10249,268.68,0.924284
224.3000,-2.27185,269.035,0.92839
224.2000,-1.75499,269.189,0.930173
224.1000,-3.06602,268.861,0.926379
224.0000,-1.20208,268.887,0.926677
223.9000,-0.538623,269.322,0.931718
223.8000,-1.77645,269.183,0.930104
223.7000,-2.29904,269.415,0.93279
223.6000,-2.37371,269.473,0.933468
223.5000,-2.25795,270.116,0.940895
223.4000,-2.61965,269.76,0.936784
223.3000,-2.71628,269.551,0.934364
223.2000,-3.07902,269.971,0.939217
223.1000,-3.40244,270.004,0.939606
223.0000,-3.71104,269.891,0.938299
222.9000,-2.98648,270.383,0.943977
222.8000,-2.63473,269.999,0.939539
222.7000,-2.10604,270.201,0.941872
222.6000,-2.12758,270.58,0.946245
222.5000,-2.44984,270.54,0.945786
222.4000,-1.53324,270.398,0.94415
222.3000,-3.01584,271.004,0.951133
222.2000,-2.98025,270.803,0.948814
222.1000,-2.43315,270.527,0.945638
222.0000,-2.66573,270.677,0.94737
221.9000,-2.69688,270.739,0.948081
221.8000,-3.0345,270.659,0.947151
221.7000,-1.96781,270.831,0.949136
221.6000,-3.26208,270.965,0.950686
221.5000,-2.46797,271.183,0.953191
221.4000,-2.80279,271.216,0.953568
221.3000,-1.96404,271.31,0.954649
221.2000,-1.59512,271.321,0.954781
221.1000,-1.85235,271.379,0.955446
221.0000,-1.03362,271.514,0.956996
220.9000,-2.57006,271.263,0.954114
220.8000,-2.45127,271.414,0.955842
220.7000,-2.461,271.293,0.954457
220.6000,-2.16693,271.931,0.96179
220.5000,-1.98183,271.86,0.960974
220.4000,-2.75153,272.143,0.964217
220.3000,-3.12592,271.927,0.96174
220.2000,-2.90185,272.319,0.966234
220.1000,-1.92249,272.25,0.965448
220.0000,-2.50346,272.175,0.96458
219.9000,-2.33126,272.241,0.965344
219.8000,-2.73752,272.331,0.966375
219.7000,-2.8894,272.303,0.966055
219.6000,-2.46038,272.582,0.969247
219.5000,-1.64987,272.5,0.968307
219.4000,-2.88926,272.519,0.968529
219.3000,-2.42239,272.679,0.970358
219.2000,-2.56368,272.533,0.968687
219.1000,-2.78788,272.769,0.971388
219.0000,-2.65866,272.777,0.971483
218.9000,-1.28004,272.763,0.971321
218.8000,-2.17083,272.902,0.972915
218.7000,-2.36347,273.061,0.97474
218.6000,-1.836,273.038,0.974476
218.5000,-2.40081,273.096,0.975133
218.4000,-1.49306,273.186,0.976162
218.3000,-1.35946,272.973,0.973724
218.2000,-2.79634,273.393,0.978526
218.1000,-1.65484,273.43,0.978953
218.0000,-2.42705,273.371,0.978277
217.9000,-1.66524,273.422,0.978862
217.8000,-2.0941,273.589,0.980772
217.7000,-1.96389,273.772,0.982864
217.6000,-2.68505,273.821,0.983415
217.5000,-2.43363,274.027,0.985767
217.4000,-2.17595,274.222,0.987994
217.3000,-1.61737,273.887,0.984167
217.2000,-2.53316,274.109,0.986709
217.1000,-0.368394,274.416,0.990206
217.0000,-2.02118,274.493,0.991084
216.9000,-1.71822,274.574,0.992005
216.8000,-2.04289,274.581,0.992084
216.7000,-2.98746,274.75,0.994004
216.6000,-2.60814,274.833,0.994954
216.5000,-2.18238,275.12,0.998216
216.4000,-1.85696,274.978,0.996599
216.3000,-0.544129,274.978,0.996604
216.2000,-1.93365,275.048,0.997393
216.1000,-1.66846,275.099,0.997976
216.0000,-3.39356,275.113,0.998137
215.9000,-1.84335,275.019,0.997064
215.8000,-3.38943,275.386,1.00124
215.7000,0.161607,275.388,1.00127
215.6000,-1.84106,275.619,1.00388
215.5000,-0.752946,275.584,1.00348
215.4000,-1.56658,275.646,1.00419
215.3000,-1.78758,275.499,1.00252
215.2000,-2.75873,275.902,1.0071
215.1000,-1.01469,275.85,1.0065
215.0000,-1.44306,275.873,1.00677
214.9000,-1.97985,275.722,1.00506
214.8000,-2.34844,275.963,1.00779
214.7000,-1.71754,275.807,1.00602
214.6000,-2.32785,275.93,1.00741
214.5000,-1.3097,276.099,1.00933
214.4000,-1.53015,276.081,1.00912
214.3000,-1.97218,276.329,1.01193
214.2000,-0.833107,276.356,1.01224
214.1000,-2.19784,276.597,1.01497
214.0000,-2.00375,276.592,1.01491
213.9000,-2.85529,276.876,1.01812
213.8000,-2.63618,276.791,1.01716
213.7000,-1.72863,276.92,1.01862
213.6000,-1.58162,276.688,1.016
213.5000,-2.64057,276.538,1.0143
213.4000,-2.93314,277.003,1.01956
213.3000,-2.15195,276.955,1.01902
213.2000,-1.41611,277.027,1.01983
213.1000,-2.34303,276.984,1.01934
213.0000,-2.28803,277.233,1.02216
212.9000,-2.60156,277.354,1.02353
212.8000,-3.52909,277.261,1.02248
212.7000,-3.56394,277.444,1.02454
212.6000,-1.90867,277.66,1.02698
212.5000,-2.13585,277.485,1.025
212.4000,-4.45126,277.54,1.02563
212.3000,-1.70922,277.784,1.02838
212.2000,-2.51033,277.949,1.03024
212.1000,-1.58657,277.914,1.02984
212.0000,-2.80537,277.913,1.02983
211.9000,-2.84158,278.291,1.03409
211.8000,-4.086,278.39,1.03521
211.7000,-2.38104,278.439,1.03576
211.6000,-1.7961,278.553,1.03704
211.5000,-2.37793,278.637,1.03799
211.4000,-1.48016,278.75,1.03926
211.3000,-3.44949,278.792,1.03973
211.2000,-2.41159,278.951,1.04152
211.1000,-2.07139,278.852,1.0404
211.0000,-2.02704,279.055,1.04269
210.9000,-3.42375,279.065,1.0428
210.8000,-1.84242,279.125,1.04347
210.7000,-3.50182,279.356,1.04607
210.6000,-2.06573,279.254,1.04492
210.5000,-2.745,279.493,1.0476
210.4000,-2.12173,279.436,1.04696
210.3000,-2.12101,280.002,1.05331
210.2000,-2.50702,279.729,1.05025
210.1000,-2.87252,280.135,1.0548
210.0000,-3.62521,279.624,1.04907
209.9000,-2.36289,279.999,1.05328
209.8000,-2.2994,280.015,1.05345
209.7000,-2.66393,280.364,1.05736
209.6000,-0.952572,280.24,1.05598
209.5000,-2.59119,280.544,1.05937
209.4000,-1.6587,280.602,1.06002
209.3000,-1.72825,280.91,1.06347
209.2000,-2.34159,280.984,1.06429
209.1000,-0.924487,281.202,1.06672
209.0000,-2.51356,280.947,1.06388
208.9000,-3.33956,281.226,1.067
208.8000,-2.0855,281.253,1.0673
208.7000,-3.03272,281.254,1.06731
208.6000,-1.36738,281.505,1.07011
208.5000,-2.22467,281.55,1.07061
208.4000,-0.0557075,281.635,1.07156
208.3000,-2.63844,281.831,1.07375
208.2000,-2.65768,282.155,1.07735
208.1000,-2.38773,282.205,1.0779
208.0000,-2.44712,282.548,1.08172
207.9000,-3.51737,282.71,1.08352
207.8000,-2.31139,282.881,1.08542
207.7000,-1.14279,282.669,1.08307
207.6000,-1.27385,283.011,1.08686
207.5000,-2.16147,283.291,1.08997
207.4000,-2.34459,283.196,1.08892
207.3000,-1.96389,283.389,1.09106
207.2000,-2.17826,283.372,1.09088
207.1000,-2.32138,283.733,1.09488
207.0000,-1.43431,283.824,1.09589
206.9000,-1.60177,283.796,1.09557
206.8000,-1.80565,283.892,1.09663
206.7000,-1.69424,284.006,1.0979
206.6000,-2.18589,284.418,1.10246
206.5000,-2.71629,284.628,1.10478
206.4000,-1.73244,284.547,1.10389
206.3000,-1.34078,284.696,1.10554
206.2000,-3.00441,284.966,1.10851
206.1000,-0.207907,285.256,1.11171
206.0000,-0.851113,285.166,1.11073
205.9000,-1.89776,285.385,1.11313
205.8000,-2.08803,285.749,1.11715
205.7000,-1.68575,285.721,1.11685
205.6000,-2.51511,286.056,1.12053
205.5000,-1.35589,286.001,1.11993
205.4000,-0.677008,286.212,1.12225
205.3000,-0.948198,286.334,1.12358
205.2000,-0.149576,286.585,1.12634
205.1000,-0.908293,287.015,1.13107
205.0000,-0.101959,286.951,1.13036
204.9000,0.862491,287.173,1.13281
204.8000,-2.537,287.22,1.13332
204.7000,0.946767,287.719,1.13879
204.6000,0.204377,287.778,1.13944
204.5000,-1.11958,287.994,1.1418
204.4000,1.61445,288.392,1.14615
204.3000,-0.339927,288.571,1.14811
204.2000,-0.137994,288.738,1.14993
204.1000,-0.613605,288.518,1.14753
204.0000,-0.705818,288.813,1.15075
203.9000,-0.0785293,289.185,1.15481
203.8000,1.68609,289.772,1.16121
203.7000,0.429908,289.835,1.16189
203.6000,-1.16732,290.029,1.16401
203.5000,0.204737,289.958,1.16324
203.4000,0.616941,290.291,1.16685
203.3000,0.6423,290.627,1.17051
203.2000,-0.901518,290.697,1.17126
203.1000,0.771988,290.831,1.17272
203.0000,1.36177,291.097,1.17561
202.9000,-0.30722,291.081,1.17544
202.8000,1.70409,291.694,1.18208
202.7000,2.17203,291.717,1.18233
202.6000,1.60215,291.843,1.18369
202.5000,0.294701,292.464,1.1904
202.4000,1.01474,292.153,1.18704
202.3000,1.36306,292.504,1.19084
202.2000,2.24077,292.678,1.19271
202.1000,1.77128,293.007,1.19626
202.0000,1.51045,293.342,1.19988
201.9000,1.31507,293.646,1.20316
201.8000,1.60685,293.97,1.20664
201.7000,-0.236476,294.18,1.2089
201.6000,3.05381,294.198,1.2091
201.5000,1.63933,294.84,1.21599
201.4000,1.8591,294.703,1.21452
201.3000,2.61629,295.316,1.2211
201.2000,2.25032,295.53,1.22339
201.1000,2.18221,295.727,1.2255
201.0000,1.48288,295.896,1.22731
200.9000,2.92249,296.111,1.22961
200.8000,2.99953,296.304,1.23167
200.7000,2.84715,296.458,1.23331
200.6000,2.46541,296.783,1.23679
200.5000,2.88505,297.14,1.2406
200.4000,3.74252,297.393,1.24329
200.3000,4.0284,298.023,1.25
200.2000,4.24129,298.038,1.25016
200.1000,2.41782,298.295,1.25289
200.0000,4.39896,298.532,1.25541
199.9000,4.44408,298.721,1.25741
199.8000,2.78649,299.193,1.26242
199.7000,4.45839,299.455,1.2652
199.6000,3.66778,299.356,1.26414
199.5000,3.64404,299.66,1.26736
199.4000,4.52897,300.082,1.27184
199.3000,4.77763,299.916,1.27008
199.2000,5.77914,300.093,1.27195
199.1000,6.4887,300.423,1.27544
199.0000,2.53916,300.666,1.27801
198.9000,4.62058,300.854,1.28
198.8000,3.80488,301.385,1.28559
198.7000,5.98347,301.043,1.28198
198.6000,2.7522,302.012,1.29219
198.5000,4.7742,301.833,1.2903
198.4000,5.25003,302.141,1.29355
198.3000,4.71837,302.379,1.29605
198.2000,5.7734,302.664,1.29904
198.1000,5.4988,302.865,1.30116
198.0000,5.23355,302.913,1.30166
197.9000,5.31978,303.145,1.30409
197.8000,7.6908,303.554,1.30838
197.7000,5.94594,303.793,1.31088
197.6000,7.97542,303.858,1.31156
197.5000,4.12539,304.148,1.3146
197.4000,7.44294,304.861,1.32205
197.3000,6.68176,304.225,1.3154
197.2000,6.34168,304.743,1.32081
197.1000,6.83899,304.857,1.322
197.0000,7.0504,305.616,1.32992
196.9000,9.30178,305.755,1.33136
196.8000,6.84178,306.304,1.33708
196.7000,6.52228,306.292,1.33695
196.6000,8.75537,306.779,1.34201
196.5000,7.14969,306.72,1.3414
196.4000,8.79594,307.483,1.34931
196.3000,6.87993,307.395,1.3484
196.2000,8.15623,308.035,1.35503
196.1000,7.71101,308.101,1.35571
196.0000,6.90121,308.701,1.36191
195.9000,8.30697,308.891,1.36387
195.8000,8.82854,309.441,1.36955
195.7000,8.81046,309.694,1.37215
195.6000,8.95086,309.763,1.37287
195.5000,7.25168,310.184,1.3772
195.4000,7.63421,310.848,1.38403
195.3000,7.82686,310.767,1.38319
195.2000,7.75833,311.177,1.3874
195.1000,8.75886,311.264,1.38829
195.0000,5.5199,311.527,1.39099
194.9000,8.9246,312.181,1.39769
194.8000,9.6576,312.507,1.40102
194.7000,9.45383,312.574,1.40171
194.6000,7.464,312.981,1.40586
194.5000,8.1561,313.717,1.41337
194.4000,8.87231,313.765,1.41386
194.3000,8.34215,314.443,1.42076
194.2000,7.53801,314.775,1.42414
194.1000,7.84691,314.988,1.4263
194.0000,7.45627,316.195,1.43855
193.9000,9.70179,316.294,1.43955
193.8000,6.87043,317.563,1.45237
193.7000,8.38866,318.056,1.45734
193.6000,8.70153,318.354,1.46034
193.5000,8.44166,319.496,1.47182
193.4000,9.04807,319.765,1.47452
193.3000,9.08279,319.847,1.47534
193.2000,9.30335,320.508,1.48196
193.1000,8.86925,321.466,1.49154
193.0000,8.62008,321.816,1.49503
192.9000,9.9836,322.338,1.50023
192.8000,8.9004,322.862,1.50546
192.7000,9.97197,323.677,1.51356
192.6000,7.42898,324.586,1.52257
192.5000,7.87577,325.317,1.5298
192.4000,9.50711,326.434,1.54083
192.3000,7.87938,326.619,1.54265
192.2000,7.30975,327.479,1.55111
192.1000,7.8165,328.122,1.55743
192.0000,11.6675,328.991,1.56596
191.9000,7.86721,329.872,1.57458
191.8000,7.54327,330.718,1.58283
191.7000,10.1219,331.061,1.58618
191.6000,7.24446,331.826,1.59362
191.5000,9.86213,332.613,1.60126
191.4000,11.3781,334.24,1.61702
191.3000,9.05062,335.364,1.62787
191.2000,9.25147,336.635,1.64011
191.1000,6.72808,338.025,1.65343
191.0000,8.52585,339.098,1.66369
190.9000,10.2821,340.542,1.67746
190.8000,9.60458,342.351,1.69464
190.7000,9.37591,343.085,1.70158
190.6000,10.9034,344.863,1.71836
190.5000,7.28607,346.121,1.73019
190.4000,9.25606,347.265,1.74091
190.3000,7.50295,348.471,1.75219
190.2000,8.86583,349.815,1.76471
190.1000,6.98116,350.898,1.77477
190.0000,6.50648,352.023,1.78519

##### Extended Information
[Comments]
Sample name,class
Comment
User
Division
Company,Saint Mary's College

[Detailed Information]
Creation date,10/6/2021 3:16 PM

Data array type,Linear data array * 3
Horizontal axis,Wavelength [nm]
Vertical axis(1),CD [mdeg]
Vertical axis(2),HT [V]
Vertical axis(3),Abs
Start,290 nm
End,190 nm
Data interval,0.1 nm
Data points,1001    

[Measurement Information]
Instrument name,J-1500
Model name,J-1500
Serial No.,B051061638

Detector,PM-539
Detector S/N,B051061638
  Lock-in amp.,X mode
  HT volt,Auto

Accessory,PTC-517
Accessory S/N,B026561646
  Temperature,25.66 C
  Control sensor,Holder
  Monitor sensor,Holder

Measurement date,10/6/2021 3:15 PM

CD Overload detect,823
Photometric mode,CD, HT, Abs
Measure range,290 - 190 nm
Data pitch,0.1 nm
CD scale,20 mdeg/0.05 dOD
FL scale,20 mdeg/0.05 dOD
D.I.T.,64 msec
Bandwidth,1.00 nm
Start mode,Immediately
Scanning mode,Continuous
Scanning speed,50 nm/min
Baseline correction,None
Shutter control,Auto
No. of cycle,1/1
N2 Flowmeter,Manual


