TITLE,class
DATA TYPE,
ORIGIN,JASCO
OWNER,
DATE,21/10/06
TIME,16:03:22
SPECTROMETER/DATA SYSTEM,
LOCALE,1033
RESOLUTION,
DELTAX,-0.1
XUNITS,NANOMETERS
YUNITS,CD [mdeg]
Y2UNITS,HT [V]
Y3UNITS,ABSORBANCE
FIRSTX,  290.0000
LASTX,  190.0000
NPOINTS,    1001
FIRSTY,     1.10920
MAXY,    13.89940
MINY,    -4.48939
XYDATA
290.0000,1.1092,253.612,0.745371
289.9000,0.942846,253.85,0.748264
289.8000,1.92829,253.775,0.747359
289.7000,0.290839,254.329,0.754088
289.6000,0.87648,253.881,0.748651
289.5000,1.68693,253.684,0.746253
289.4000,1.46443,253.659,0.745952
289.3000,0.0849471,253.617,0.745433
289.2000,1.63058,253.447,0.743364
289.1000,1.08013,253.339,0.742052
289.0000,-0.301727,253.532,0.744408
288.9000,1.13555,253.695,0.746389
288.8000,1.26424,253.543,0.744534
288.7000,0.999397,253.53,0.744379
288.6000,2.19832,253.338,0.742038
288.5000,1.14158,253.56,0.744741
288.4000,1.24639,253.522,0.744276
288.3000,1.37056,253.545,0.744563
288.2000,2.21986,253.714,0.746621
288.1000,0.573597,253.536,0.744456
288.0000,0.107881,253.815,0.747846
287.9000,0.777824,253.69,0.74632
287.8000,0.657476,253.686,0.74628
287.7000,1.19017,253.497,0.743977
287.6000,1.43795,253.425,0.743098
287.5000,2.22641,253.229,0.740709
287.4000,1.64802,253.158,0.739851
287.3000,-0.00854298,253.472,0.743672
287.2000,1.03025,253.565,0.744806
287.1000,0.863935,253.207,0.740441
287.0000,0.806759,253.638,0.74569
286.9000,1.06289,253.156,0.739824
286.8000,1.07481,253.378,0.742529
286.7000,0.691648,253.245,0.740914
286.6000,0.656531,254,0.750086
286.5000,2.20585,252.721,0.73452
286.4000,1.88896,252.838,0.735955
286.3000,1.53749,253.418,0.743017
286.2000,1.96247,253.477,0.743731
286.1000,1.46454,253.167,0.73996
286.0000,0.529096,253.402,0.742821
285.9000,1.58362,253.215,0.74054
285.8000,0.490706,253.345,0.742121
285.7000,-0.245229,253.238,0.740824
285.6000,1.70535,253.237,0.740807
285.5000,1.76614,253.222,0.740631
285.4000,1.26535,253.313,0.74174
285.3000,1.23319,253.008,0.738024
285.2000,1.70264,253.473,0.743679
285.1000,1.93917,253.214,0.740536
285.0000,1.14724,253.181,0.740127
284.9000,0.879168,253.125,0.739453
284.8000,0.775415,253.14,0.739632
284.7000,1.46288,253.245,0.740907
284.6000,0.842932,253.103,0.739175
284.5000,1.52096,253.07,0.738778
284.4000,1.37732,253.205,0.740417
284.3000,0.321618,253.058,0.738637
284.2000,1.81715,253.045,0.738467
284.1000,2.00402,253.081,0.738914
284.0000,1.48867,252.859,0.736211
283.9000,1.34192,252.983,0.737722
283.8000,0.938428,252.968,0.73753
283.7000,0.738972,253.189,0.740227
283.6000,0.915345,253.207,0.740446
283.5000,1.28259,253.064,0.738706
283.4000,1.12781,252.859,0.736209
283.3000,1.28328,253.267,0.741176
283.2000,1.11221,253.129,0.739497
283.1000,1.32302,253.061,0.738673
283.0000,0.493901,252.933,0.737102
282.9000,1.82325,253.025,0.738233
282.8000,1.19264,252.816,0.735679
282.7000,1.70071,252.91,0.736833
282.6000,0.962743,252.887,0.736546
282.5000,2.13342,252.704,0.734311
282.4000,1.36515,252.92,0.736952
282.3000,2.20174,253.194,0.740284
282.2000,1.16705,253.074,0.738821
282.1000,2.64808,252.806,0.735562
282.0000,1.58355,253.079,0.738889
281.9000,0.33386,252.73,0.734632
281.8000,0.950993,252.927,0.737036
281.7000,1.09274,252.676,0.733971
281.6000,0.817959,253.194,0.740289
281.5000,1.62391,252.795,0.73542
281.4000,1.27864,252.728,0.734603
281.3000,0.681217,252.74,0.734753
281.2000,0.845805,252.858,0.736199
281.1000,1.15757,252.936,0.737145
281.0000,1.20312,252.612,0.733191
280.9000,1.37239,252.758,0.734971
280.8000,1.01778,252.697,0.734233
280.7000,1.97951,252.49,0.731705
280.6000,1.90773,252.956,0.737392
280.5000,0.864654,252.748,0.734857
280.4000,0.789274,252.768,0.735097
280.3000,1.27888,252.654,0.733712
280.2000,0.794655,252.867,0.736304
280.1000,0.698097,252.445,0.731157
280.0000,0.361794,252.516,0.732019
279.9000,-0.0423297,252.656,0.733729
279.8000,0.468026,252.569,0.732671
279.7000,1.05997,252.753,0.734919
279.6000,1.37526,252.547,0.732402
279.5000,1.5254,252.636,0.733489
279.4000,0.307636,252.788,0.735344
279.3000,1.44763,252.726,0.734581
279.2000,1.68535,252.654,0.733712
279.1000,1.24067,252.737,0.734717
279.0000,1.26026,252.728,0.734605
278.9000,0.914607,252.553,0.732477
278.8000,1.74621,252.448,0.731191
278.7000,1.34812,252.595,0.732981
278.6000,0.816986,252.58,0.732808
278.5000,0.972717,252.51,0.731954
278.4000,0.239906,252.568,0.732661
278.3000,0.463309,252.753,0.73491
278.2000,1.04356,252.634,0.733457
278.1000,0.272676,252.534,0.732241
278.0000,1.22716,252.672,0.733926
277.9000,-0.204246,252.729,0.734622
277.8000,0.782091,252.697,0.73423
277.7000,0.215766,252.604,0.733095
277.6000,1.37815,252.55,0.732436
277.5000,1.40403,252.597,0.733005
277.4000,0.902352,252.79,0.73536
277.3000,0.710399,252.687,0.734113
277.2000,1.22643,252.34,0.729873
277.1000,0.378233,252.557,0.732519
277.0000,0.768861,252.358,0.730098
276.9000,0.447072,252.507,0.73191
276.8000,0.492617,252.814,0.735655
276.7000,-0.752735,252.355,0.730057
276.6000,0.669724,252.543,0.732346
276.5000,1.18296,252.344,0.729927
276.4000,0.368536,252.608,0.73315
276.3000,1.84745,252.383,0.730396
276.2000,0.752851,252.193,0.728074
276.1000,2.4136,252.272,0.729041
276.0000,0.65861,252.441,0.731106
275.9000,0.909339,252.253,0.728808
275.8000,0.19102,252.309,0.729498
275.7000,0.582217,252.448,0.731186
275.6000,0.0423638,252.412,0.730755
275.5000,0.114386,252.549,0.73242
275.4000,0.668647,252.262,0.728915
275.3000,1.31306,252.383,0.730394
275.2000,1.58062,252.18,0.727918
275.1000,1.35439,252.332,0.729773
275.0000,1.4918,252.664,0.733826
274.9000,0.0632348,252.645,0.733599
274.8000,0.00401826,252.355,0.730051
274.7000,0.797127,252.179,0.727901
274.6000,1.5903,252.215,0.72834
274.5000,0.0358526,252.151,0.727569
274.4000,0.886618,252.012,0.725863
274.3000,0.547769,252.525,0.732134
274.2000,0.916184,252.15,0.727555
274.1000,-0.422888,252.136,0.72738
274.0000,1.64392,252.215,0.728347
273.9000,0.649911,252.212,0.728304
273.8000,0.945687,251.978,0.725455
273.7000,1.24311,252.289,0.729251
273.6000,0.748488,252.314,0.729551
273.5000,-0.389326,252.132,0.727333
273.4000,1.12158,252.136,0.727377
273.3000,0.403682,252.247,0.728732
273.2000,0.411305,252.316,0.729584
273.1000,0.654683,252.209,0.728275
273.0000,0.745407,252.239,0.728633
272.9000,0.301148,251.989,0.725581
272.8000,1.91264,252.184,0.727963
272.7000,0.419906,252.199,0.728153
272.6000,0.516097,252.363,0.730159
272.5000,1.03156,252.221,0.728417
272.4000,0.540913,252.326,0.729706
272.3000,1.60183,252.124,0.727238
272.2000,0.647327,252.277,0.729104
272.1000,1.57956,251.865,0.724063
272.0000,0.716721,252.027,0.726049
271.9000,2.09757,252.029,0.726076
271.8000,1.06991,252.365,0.730176
271.7000,1.64097,252.146,0.727504
271.6000,-0.0532242,251.79,0.723147
271.5000,0.239318,252.231,0.728543
271.4000,0.975586,252.175,0.727858
271.3000,0.988216,252.201,0.728169
271.2000,0.677223,252.077,0.726656
271.1000,0.248516,252.263,0.728927
271.0000,1.38488,252.423,0.730883
270.9000,0.331687,252.146,0.727498
270.8000,0.83529,252.235,0.728584
270.7000,0.982946,252.243,0.728685
270.6000,0.464804,252.234,0.728579
270.5000,1.37861,252.236,0.728607
270.4000,0.862399,252.111,0.727079
270.3000,1.09431,252.057,0.726412
270.2000,0.0097186,252.312,0.729529
270.1000,1.02438,252.214,0.728332
270.0000,0.45327,252.043,0.726246
269.9000,1.42007,252.344,0.729918
269.8000,0.481529,252.213,0.728318
269.7000,0.959352,252.218,0.728385
269.6000,0.661904,252.183,0.727954
269.5000,1.74198,252.473,0.731494
269.4000,0.187511,252.331,0.729759
269.3000,0.688755,252.339,0.729858
269.2000,0.659152,252.261,0.728913
269.1000,0.848277,252.191,0.728057
269.0000,0.411601,252.371,0.730247
268.9000,0.321552,252.13,0.727304
268.8000,-0.717281,252.63,0.733411
268.7000,0.782322,252.593,0.732958
268.6000,-1.11016,252.316,0.729581
268.5000,0.861745,252.66,0.733781
268.4000,0.270848,252.458,0.731316
268.3000,1.00832,252.541,0.732322
268.2000,0.62111,252.131,0.727321
268.1000,0.160606,252.111,0.727075
268.0000,0.437087,252.419,0.730833
267.9000,0.0530305,252.205,0.728226
267.8000,-0.0450693,252.377,0.730325
267.7000,1.6865,252.696,0.734216
267.6000,0.651119,252.457,0.731298
267.5000,1.21736,252.32,0.729626
267.4000,-0.87907,251.972,0.72538
267.3000,1.31192,252.557,0.732523
267.2000,1.87206,252.62,0.733285
267.1000,0.27748,252.878,0.736432
267.0000,0.52453,253.092,0.739047
266.9000,1.25048,252.737,0.734722
266.8000,0.767214,252.545,0.732377
266.7000,0.197881,252.974,0.737608
266.6000,0.202003,252.548,0.732413
266.5000,1.213,252.262,0.728917
266.4000,1.36061,252.749,0.734866
266.3000,1.2502,252.182,0.727946
266.2000,-0.00523771,252.546,0.732389
266.1000,-0.125365,252.773,0.735163
266.0000,0.0883713,252.747,0.73484
265.9000,-0.23284,252.693,0.734185
265.8000,2.49737,252.718,0.734486
265.7000,1.64308,252.698,0.734247
265.6000,0.37636,252.656,0.733736
265.5000,1.23794,252.524,0.732125
265.4000,1.20597,253.002,0.737951
265.3000,1.17774,252.756,0.734945
265.2000,-0.132985,252.482,0.731608
265.1000,0.710578,252.656,0.733729
265.0000,0.870864,252.609,0.733155
264.9000,0.811297,252.83,0.735857
264.8000,0.0112514,252.886,0.736536
264.7000,0.585791,252.789,0.735358
264.6000,0.679206,252.75,0.734878
264.5000,1.22579,252.716,0.734461
264.4000,0.0482585,253.211,0.7405
264.3000,0.771108,252.887,0.736553
264.2000,0.581911,252.898,0.736683
264.1000,1.26783,252.952,0.737333
264.0000,0.65991,253.156,0.739824
263.9000,1.02762,253.033,0.738328
263.8000,1.11585,252.881,0.736468
263.7000,0.392985,252.967,0.73752
263.6000,0.107372,252.986,0.737753
263.5000,0.830623,252.55,0.732434
263.4000,-0.0810839,252.867,0.736308
263.3000,0.762812,252.893,0.736622
263.2000,0.227633,253.196,0.740317
263.1000,1.62786,253.146,0.739706
263.0000,0.855698,252.95,0.737319
262.9000,0.107158,252.861,0.736232
262.8000,0.303778,253.042,0.738436
262.7000,0.312987,253.135,0.739575
262.6000,-0.590247,253.2,0.740362
262.5000,1.40331,252.944,0.737247
262.4000,-0.0352428,253.327,0.741912
262.3000,-0.23104,253.248,0.740952
262.2000,0.183913,253.118,0.739358
262.1000,-0.957475,253.462,0.743548
262.0000,0.707004,253.222,0.740626
261.9000,0.263806,252.84,0.735975
261.8000,-0.266068,253.256,0.74104
261.7000,1.04001,252.868,0.736311
261.6000,0.612757,253.857,0.748348
261.5000,0.381814,253.239,0.740841
261.4000,1.72689,253.409,0.7429
261.3000,0.0751941,253.481,0.743779
261.2000,1.53158,253.173,0.740027
261.1000,1.29319,253.208,0.740455
261.0000,0.456726,253.192,0.740265
260.9000,0.492382,253.801,0.747677
260.8000,0.100832,253.417,0.742998
260.7000,1.00595,253.045,0.738469
260.6000,-0.0727018,253.326,0.741891
260.5000,0.863337,253.495,0.74395
260.4000,-0.510521,253.072,0.738806
260.3000,1.24925,253.648,0.745809
260.2000,0.201233,253.814,0.747835
260.1000,0.210651,253.474,0.743698
260.0000,0.575036,253.604,0.745278
259.9000,1.51942,253.791,0.747553
259.8000,2.08464,253.553,0.744655
259.7000,0.21545,253.706,0.746515
259.6000,0.147051,253.999,0.750078
259.5000,-0.0185125,253.89,0.748751
259.4000,0.90729,253.724,0.746737
259.3000,0.418495,253.868,0.748484
259.2000,0.678605,253.714,0.746615
259.1000,0.06306,253.844,0.748192
259.0000,0.756478,254.587,0.757211
258.9000,0.528791,253.968,0.749703
258.8000,0.418594,253.627,0.745556
258.7000,0.870191,253.819,0.747897
258.6000,0.955922,254.055,0.750755
258.5000,0.381359,253.754,0.747102
258.4000,0.374503,254.329,0.754081
258.3000,0.618964,254.23,0.75289
258.2000,1.242,254.317,0.753938
258.1000,0.922158,253.831,0.748033
258.0000,0.537281,254.088,0.751162
257.9000,0.588653,254.12,0.751552
257.8000,0.423708,254.275,0.753429
257.7000,1.3371,254.649,0.757961
257.6000,0.737313,254.083,0.751101
257.5000,-0.567966,254.501,0.75617
257.4000,-0.249771,254.518,0.756383
257.3000,1.02296,254.358,0.75444
257.2000,0.601961,254.126,0.751621
257.1000,0.905409,254.329,0.754091
257.0000,0.368343,254.53,0.75652
256.9000,-0.719133,254.433,0.755349
256.8000,0.442086,254.23,0.752884
256.7000,0.54864,254.607,0.757456
256.6000,1.23374,254.524,0.75645
256.5000,1.8019,254.498,0.756134
256.4000,-0.410763,254.819,0.760027
256.3000,1.4397,254.631,0.757746
256.2000,0.924146,254.791,0.759686
256.1000,0.504898,254.756,0.75926
256.0000,1.65982,254.687,0.758431
255.9000,1.20882,254.728,0.758924
255.8000,-0.277633,254.429,0.755296
255.7000,1.62787,254.822,0.76006
255.6000,0.132827,254.862,0.760542
255.5000,0.491508,254.909,0.76112
255.4000,-0.779007,255.136,0.76386
255.3000,0.789604,254.829,0.760153
255.2000,0.220059,255.055,0.762887
255.1000,1.04101,254.924,0.761304
255.0000,1.20602,254.795,0.759732
254.9000,0.433761,255.227,0.764969
254.8000,1.07818,255.064,0.76299
254.7000,0.288888,255.056,0.762895
254.6000,0.558466,255.196,0.764589
254.5000,0.721002,255.022,0.762491
254.4000,0.355876,254.816,0.759986
254.3000,1.09896,254.85,0.760398
254.2000,0.807599,254.783,0.759585
254.1000,0.764953,255.296,0.765802
254.0000,0.536051,255.246,0.765194
253.9000,0.367252,254.576,0.757084
253.8000,0.908407,255.288,0.765706
253.7000,0.831333,254.761,0.75932
253.6000,0.437473,255.113,0.763585
253.5000,0.85248,255.013,0.762381
253.4000,1.05125,254.794,0.759729
253.3000,1.03102,255.33,0.766217
253.2000,0.580607,255.246,0.765192
253.1000,0.865187,255.194,0.764562
253.0000,0.212064,255.163,0.764196
252.9000,0.937203,255.54,0.768756
252.8000,0.0568911,255.624,0.769771
252.7000,1.00483,255.933,0.773497
252.6000,-0.785192,255.381,0.766826
252.5000,0.549811,255.584,0.769287
252.4000,-0.353399,255.629,0.769829
252.3000,0.482603,255.474,0.767953
252.2000,0.0212944,255.311,0.765978
252.1000,0.132354,255.551,0.768886
252.0000,0.62743,255.613,0.769632
251.9000,1.73022,255.37,0.766693
251.8000,0.95552,255.486,0.768097
251.7000,1.85535,255.231,0.765014
251.6000,1.46885,255.155,0.76409
251.5000,1.21365,255.667,0.77029
251.4000,0.00209963,255.468,0.767883
251.3000,0.817178,255.693,0.770598
251.2000,-0.148775,255.979,0.774054
251.1000,1.37175,255.617,0.769685
251.0000,0.0310564,255.788,0.77175
250.9000,1.38044,256.053,0.774949
250.8000,0.994446,255.728,0.771027
250.7000,0.303441,255.9,0.773102
250.6000,-0.236436,255.439,0.767534
250.5000,1.0396,255.925,0.773397
250.4000,0.118149,255.729,0.771039
250.3000,1.72369,255.699,0.770673
250.2000,0.883466,255.631,0.769846
250.1000,1.34145,255.845,0.772436
250.0000,0.350357,255.879,0.772843
249.9000,0.817846,255.304,0.765893
249.8000,0.0222021,256.005,0.77437
249.7000,0.579716,255.353,0.766489
249.6000,0.242237,256.084,0.77532
249.5000,-0.032513,255.905,0.77316
249.4000,0.584681,255.136,0.763862
249.3000,0.421555,255.359,0.766563
249.2000,1.7207,255.914,0.773266
249.1000,1.84807,255.648,0.770052
249.0000,1.28569,255.609,0.769588
248.9000,0.802542,255.725,0.770984
248.8000,0.330992,255.725,0.770986
248.7000,-0.746279,256.116,0.775706
248.6000,0.744226,255.614,0.769641
248.5000,0.0098809,255.783,0.771689
248.4000,1.59154,255.868,0.772708
248.3000,0.184051,255.774,0.771573
248.2000,0.991866,255.469,0.767896
248.1000,-0.0360854,255.631,0.76985
248.0000,1.16564,255.701,0.770692
247.9000,1.57039,255.557,0.768953
247.8000,0.740575,255.352,0.766479
247.7000,2.05119,255.702,0.770714
247.6000,-0.223731,255.52,0.768515
247.5000,0.592204,255.728,0.771025
247.4000,-0.228451,255.897,0.773061
247.3000,0.628811,255.904,0.773148
247.2000,1.19091,255.944,0.773628
247.1000,0.428206,256.01,0.774428
247.0000,1.16958,256.097,0.775477
246.9000,1.07225,256.309,0.778036
246.8000,0.689084,256.039,0.77478
246.7000,0.438979,256.277,0.777645
246.6000,0.826414,256.134,0.775927
246.5000,0.325652,256.024,0.774597
246.4000,0.108334,256.283,0.777726
246.3000,0.339818,256.176,0.776428
246.2000,0.147061,256.295,0.77786
246.1000,1.15678,256.261,0.777454
246.0000,0.98041,256.323,0.778202
245.9000,0.254364,256.262,0.777471
245.8000,0.483626,256.191,0.776614
245.7000,1.84784,256.33,0.778287
245.6000,0.870474,256.344,0.778461
245.5000,0.59037,256.331,0.778298
245.4000,1.77721,256.236,0.777148
245.3000,1.17702,256.177,0.776438
245.2000,-0.0758105,256.28,0.777688
245.1000,1.10221,256.321,0.778181
245.0000,0.408339,256.282,0.777709
244.9000,0.833722,255.941,0.773599
244.8000,1.58071,256.106,0.77559
244.7000,0.339278,256.405,0.779192
244.6000,0.237603,256.475,0.780037
244.5000,2.1568,256.483,0.780126
244.4000,0.288949,256.426,0.77945
244.3000,0.0275465,256.583,0.781334
244.2000,-0.928778,256.197,0.776687
244.1000,0.36315,256.322,0.778188
244.0000,1.13646,256.373,0.778804
243.9000,-0.312754,256.629,0.78189
243.8000,0.604564,256.633,0.781936
243.7000,0.950297,256.731,0.783121
243.6000,0.304821,256.559,0.781051
243.5000,0.748596,256.54,0.780817
243.4000,0.477008,256.425,0.779431
243.3000,1.01743,256.314,0.778093
243.2000,0.806112,256.856,0.784618
243.1000,-0.431177,256.951,0.78577
243.0000,0.0404742,256.579,0.781284
242.9000,-0.0669794,256.493,0.780249
242.8000,-0.649782,256.906,0.78522
242.7000,-0.0683638,256.789,0.783812
242.6000,0.903384,256.896,0.785101
242.5000,0.566433,256.764,0.78351
242.4000,-0.0913976,256.831,0.784317
242.3000,0.508262,257.02,0.786597
242.2000,-0.0479791,256.657,0.782231
242.1000,0.530718,256.894,0.785075
242.0000,-0.0186941,256.823,0.784231
241.9000,0.345702,256.974,0.78604
241.8000,0.68871,256.888,0.78501
241.7000,0.20863,256.749,0.783329
241.6000,-0.0941615,257.092,0.787457
241.5000,0.486739,257.138,0.788012
241.4000,0.250143,257.125,0.787854
241.3000,-0.466785,257.423,0.791442
241.2000,1.11001,257.375,0.790864
241.1000,0.699823,257.061,0.787087
241.0000,0.718424,257.273,0.78964
240.9000,1.03993,257.204,0.788807
240.8000,-0.5093,257.197,0.788726
240.7000,0.513753,256.955,0.785818
240.6000,0.130497,257.286,0.789793
240.5000,0.523561,257.19,0.788637
240.4000,0.692856,257.663,0.794328
240.3000,0.301957,257.336,0.790401
240.2000,-0.170994,257.418,0.791376
240.1000,1.89598,257.641,0.794058
240.0000,-0.561831,257.614,0.793733
239.9000,-0.511628,257.696,0.794718
239.8000,-0.194537,257.715,0.794951
239.7000,-0.369968,257.742,0.795265
239.6000,-0.161114,257.9,0.797172
239.5000,0.935242,257.642,0.794073
239.4000,-1.37673,257.523,0.792647
239.3000,-0.931542,257.937,0.797615
239.2000,-0.62258,257.791,0.795853
239.1000,0.235178,258.107,0.799648
239.0000,-0.153996,257.783,0.795768
238.9000,0.390448,257.993,0.798288
238.8000,0.593908,257.798,0.795943
238.7000,0.965423,258.108,0.799654
238.6000,0.12013,258.189,0.800625
238.5000,0.145098,258.394,0.803086
238.4000,1.14024,258.533,0.804753
238.3000,0.194025,258.595,0.805498
238.2000,-0.0410455,258.656,0.806221
238.1000,0.060257,259.042,0.810838
238.0000,-0.467659,258.991,0.810225
237.9000,-0.466068,259.044,0.810858
237.8000,-0.00835041,258.979,0.810083
237.7000,0.949987,259.275,0.813624
237.6000,0.390435,258.951,0.809747
237.5000,0.0125636,259.383,0.814916
237.4000,-0.0926852,259.09,0.811418
237.3000,-0.083675,258.836,0.808381
237.2000,-0.284887,258.91,0.80926
237.1000,-0.0252945,259.069,0.811163
237.0000,0.461392,259.011,0.810467
236.9000,-0.223181,259.228,0.813063
236.8000,0.710319,259.463,0.815866
236.7000,1.08985,259.258,0.813414
236.6000,0.402175,259.241,0.813222
236.5000,1.11347,259.363,0.814676
236.4000,-0.451046,259.611,0.817632
236.3000,-0.182418,259.353,0.814558
236.2000,-0.54947,259.927,0.821405
236.1000,0.293801,259.646,0.818053
236.0000,0.223192,259.745,0.819227
235.9000,0.367693,259.55,0.816906
235.8000,0.692094,259.935,0.821491
235.7000,0.358928,259.79,0.819772
235.6000,-1.09927,259.972,0.821931
235.5000,-0.735769,259.985,0.822097
235.4000,0.249642,259.874,0.820763
235.3000,0.181617,260.38,0.826797
235.2000,-1.67268,260.435,0.827454
235.1000,-0.0419536,260.179,0.824401
235.0000,-1.17973,260.132,0.82384
234.9000,0.311426,260.364,0.826606
234.8000,0.287177,260.867,0.832583
234.7000,0.262818,260.549,0.8288
234.6000,-1.56654,260.614,0.829575
234.5000,-0.533008,260.556,0.828891
234.4000,0.196202,260.74,0.831077
234.3000,0.0635931,260.918,0.833186
234.2000,-0.806948,260.869,0.83261
234.1000,0.249949,260.876,0.832698
234.0000,-0.319046,261.076,0.835068
233.9000,0.435053,261.161,0.83608
233.8000,-1.92918,261.299,0.837718
233.7000,-0.539619,261.36,0.838438
233.6000,-0.724287,261.705,0.842524
233.5000,-1.24733,261.691,0.842358
233.4000,-1.01409,261.67,0.842111
233.3000,-0.0122597,261.381,0.838686
233.2000,-1.36802,261.616,0.841478
233.1000,-1.17649,261.645,0.841812
233.0000,-0.44072,261.942,0.845341
232.9000,-0.784881,261.963,0.845581
232.8000,-2.16483,261.454,0.839552
232.7000,-1.84625,262.109,0.847308
232.6000,-1.27459,262.087,0.847058
232.5000,-1.02821,262.497,0.851907
232.4000,-1.02693,262.167,0.848005
232.3000,-0.345726,262.588,0.852979
232.2000,-0.617478,262.463,0.851501
232.1000,-0.318459,262.781,0.855254
232.0000,-1.29181,262.522,0.852195
231.9000,-1.35398,262.23,0.848747
231.8000,-1.72367,262.755,0.854952
231.7000,-0.874717,262.729,0.854644
231.6000,-0.993585,263.09,0.858909
231.5000,0.761398,262.987,0.857684
231.4000,0.261749,263.416,0.862745
231.3000,-0.478059,262.913,0.856813
231.2000,-0.666904,263.259,0.8609
231.1000,-0.612705,263.316,0.861568
231.0000,-0.655107,263.545,0.864267
230.9000,-2.79014,263.336,0.86181
230.8000,-1.16553,263.397,0.86252
230.7000,-0.407446,263.57,0.864564
230.6000,-1.69032,263.39,0.862438
230.5000,-0.713468,263.551,0.864337
230.4000,-1.03777,263.491,0.863631
230.3000,-1.47288,263.186,0.860035
230.2000,-0.579163,263.293,0.861296
230.1000,-1.84011,263.255,0.86085
230.0000,-2.70611,263.377,0.862294
229.9000,-1.22341,263.698,0.866074
229.8000,-1.67645,263.404,0.86261
229.7000,-1.41566,263.486,0.86358
229.6000,-1.81402,263.628,0.865248
229.5000,-2.52042,263.518,0.863957
229.4000,-1.03595,263.595,0.864859
229.3000,-1.44464,263.534,0.86414
229.2000,-1.35358,263.739,0.866552
229.1000,-0.916183,263.827,0.867586
229.0000,-0.404123,264.136,0.871229
228.9000,-1.37381,264.373,0.874014
228.8000,-2.86905,264.593,0.876598
228.7000,-2.89717,264.22,0.87221
228.6000,-2.39424,264.802,0.879052
228.5000,-1.34103,264.857,0.879698
228.4000,-2.28523,265.217,0.883918
228.3000,-1.19165,264.945,0.880725
228.2000,-1.90222,265.298,0.884868
228.1000,-1.41393,265.521,0.88748
228.0000,-0.891657,265.328,0.88522
227.9000,-1.00607,265.457,0.886722
227.8000,-1.78917,265.57,0.888048
227.7000,-0.864866,265.615,0.888578
227.6000,-2.15019,265.858,0.891422
227.5000,-2.7833,266.073,0.893934
227.4000,-2.10453,266.316,0.896774
227.3000,-1.72292,266.06,0.893783
227.2000,-2.47337,266.094,0.894177
227.1000,-3.34305,266.601,0.900105
227.0000,-1.30546,266.553,0.899543
226.9000,-1.04803,266.888,0.903454
226.8000,-2.98677,266.303,0.896617
226.7000,-1.49871,267.074,0.90562
226.6000,-1.70854,266.592,0.899996
226.5000,-1.93198,266.94,0.904055
226.4000,-2.15902,266.846,0.902955
226.3000,-2.71985,266.832,0.902793
226.2000,-2.48404,267.182,0.906874
226.1000,-2.29833,267.328,0.908569
226.0000,-2.0201,266.461,0.898464
225.9000,-2.25833,266.768,0.902045
225.8000,-2.00001,267.076,0.905641
225.7000,-3.2874,267.364,0.908993
225.6000,-1.43264,267.366,0.909018
225.5000,-2.43893,267.854,0.914688
225.4000,-2.26677,267.239,0.907542
225.3000,-1.77162,267.525,0.910862
225.2000,-2.92481,267.859,0.914748
225.1000,-2.52801,267.948,0.915788
225.0000,-1.15261,267.845,0.914585
224.9000,-1.33337,267.946,0.915762
224.8000,-3.16766,268.028,0.916714
224.7000,-2.48692,268.161,0.918261
224.6000,-1.59115,268.488,0.922057
224.5000,-3.16926,268.626,0.92366
224.4000,-0.307718,268.544,0.922706
224.3000,-3.56077,268.486,0.922027
224.2000,-1.50102,268.788,0.925529
224.1000,-2.03835,269.288,0.931328
224.0000,-2.1628,268.674,0.924212
223.9000,-3.41098,268.887,0.926676
223.8000,-1.79553,268.855,0.926306
223.7000,-3.0461,269.022,0.928247
223.6000,-2.98207,269.044,0.928495
223.5000,-1.86476,269.19,0.930189
223.4000,-2.68797,269.154,0.929768
223.3000,-0.895456,269.493,0.933696
223.2000,-1.72547,269.335,0.931868
223.1000,-1.8936,269.345,0.931982
223.0000,-3.27847,269.713,0.936237
222.9000,-2.69248,269.629,0.935263
222.8000,-2.09803,269.764,0.936823
222.7000,-3.71367,269.75,0.936666
222.6000,-3.272,270.214,0.942019
222.5000,-3.6556,270.056,0.9402
222.4000,-2.57952,270.363,0.943749
222.3000,-3.14023,270.231,0.942217
222.2000,-3.1166,270.002,0.939575
222.1000,-1.65827,270.125,0.941003
222.0000,-2.90745,270.314,0.943176
221.9000,-3.31191,270.232,0.942235
221.8000,-2.80893,270.633,0.94686
221.7000,-3.39835,270.783,0.948585
221.6000,-2.2447,270.644,0.946981
221.5000,-2.78267,270.464,0.944909
221.4000,-1.85628,271.472,0.956517
221.3000,-2.29475,270.785,0.948603
221.2000,-1.73425,271.454,0.956307
221.1000,-2.32645,270.965,0.950676
221.0000,-3.45791,270.83,0.949124
220.9000,-2.53026,271.078,0.95198
220.8000,-2.71415,271.102,0.952259
220.7000,-4.48939,271.396,0.955641
220.6000,-2.50498,271.188,0.953242
220.5000,-2.63673,271.6,0.957986
220.4000,-3.04957,271.52,0.957067
220.3000,-2.26422,271.646,0.958513
220.2000,-2.52563,271.581,0.957763
220.1000,-2.50792,271.913,0.96158
220.0000,-3.84413,271.586,0.957828
219.9000,-2.36079,271.862,0.960998
219.8000,-2.19705,271.81,0.960395
219.7000,-1.87855,272.119,0.963947
219.6000,-1.45952,272.219,0.965095
219.5000,-2.34296,271.96,0.962117
219.4000,-1.93409,272.009,0.962676
219.3000,-1.30278,272.211,0.964996
219.2000,-1.53328,272.539,0.968758
219.1000,-2.36802,272.33,0.966364
219.0000,-3.52496,272.33,0.966364
218.9000,-1.05643,272.569,0.969102
218.8000,-2.48656,272.597,0.969419
218.7000,-1.33342,272.588,0.96932
218.6000,-0.943616,272.657,0.970105
218.5000,-2.82826,273.042,0.974513
218.4000,-2.23442,272.959,0.973573
218.3000,-0.622506,272.932,0.973254
218.2000,-1.21308,273.025,0.974327
218.1000,-1.57947,273.485,0.97958
218.0000,-2.63385,273.456,0.979244
217.9000,-2.55489,273.665,0.981637
217.8000,-3.88549,273.328,0.977793
217.7000,-2.22618,273.326,0.97777
217.6000,-3.63238,273.655,0.981519
217.5000,-3.04647,273.729,0.982373
217.4000,-1.97655,273.73,0.982381
217.3000,-1.94841,273.84,0.983634
217.2000,-1.47479,273.833,0.983556
217.1000,-1.55315,273.977,0.985198
217.0000,-1.65328,274.272,0.988567
216.9000,-3.18483,274.292,0.988794
216.8000,-2.38881,274.413,0.990169
216.7000,-2.12332,274.514,0.991317
216.6000,-1.63328,273.92,0.984544
216.5000,-2.89449,274.6,0.9923
216.4000,-2.45929,274.404,0.990068
216.3000,-2.1908,274.579,0.992057
216.2000,-1.64655,274.444,0.990521
216.1000,-1.82001,274.727,0.993743
216.0000,-2.02487,274.801,0.994591
215.9000,-1.63894,274.695,0.993376
215.8000,-2.93205,274.838,0.995009
215.7000,-2.68876,274.835,0.994975
215.6000,-1.81543,274.967,0.99648
215.5000,-2.47338,275.219,0.999343
215.4000,-3.05271,275.206,0.999186
215.3000,-1.77608,274.843,0.995062
215.2000,-0.580305,275.199,0.999109
215.1000,-2.90518,275.482,1.00233
215.0000,-2.31592,274.748,0.993985
214.9000,-1.59964,275.583,1.00347
214.8000,-1.45698,275.641,1.00413
214.7000,-2.91706,275.782,1.00574
214.6000,-1.09468,275.796,1.00589
214.5000,-1.5723,275.672,1.00449
214.4000,-1.50429,275.686,1.00464
214.3000,-1.53245,275.851,1.00651
214.2000,-0.679009,276.106,1.00941
214.1000,-2.4175,276.155,1.00996
214.0000,-2.04697,276.166,1.01008
213.9000,-1.44685,276.111,1.00947
213.8000,-3.0563,276.181,1.01026
213.7000,-2.55826,276.335,1.01201
213.6000,-1.96183,276.271,1.01128
213.5000,-2.95029,276.295,1.01154
213.4000,-1.87794,276.593,1.01493
213.3000,-2.63248,276.716,1.01632
213.2000,-1.58713,276.858,1.01792
213.1000,-1.32072,276.783,1.01707
213.0000,-1.91727,276.976,1.01925
212.9000,-3.65109,276.646,1.01553
212.8000,-1.80057,277.148,1.0212
212.7000,-3.05413,276.772,1.01695
212.6000,-1.31258,277.372,1.02373
212.5000,-2.50535,277.266,1.02253
212.4000,-2.99987,277.253,1.02238
212.3000,-1.62543,277.213,1.02193
212.2000,-0.810328,277.375,1.02376
212.1000,-1.17776,277.705,1.02749
212.0000,-3.23463,277.516,1.02536
211.9000,-2.79604,277.824,1.02882
211.8000,-1.78296,277.836,1.02896
211.7000,-1.02088,278.471,1.03612
211.6000,-2.43944,278.24,1.03351
211.5000,-2.17345,278.266,1.03381
211.4000,-2.00964,278.248,1.03361
211.3000,-0.523485,277.85,1.02912
211.2000,-1.70829,278.495,1.03639
211.1000,-1.92702,278.539,1.03688
211.0000,-2.7343,278.502,1.03647
210.9000,-1.7642,278.876,1.04067
210.8000,-2.1826,278.656,1.0382
210.7000,-2.02157,278.89,1.04083
210.6000,-1.67344,279.142,1.04367
210.5000,-3.29836,279.372,1.04624
210.4000,-2.2931,279.186,1.04415
210.3000,-2.91325,279.566,1.04842
210.2000,-1.83027,279.213,1.04445
210.1000,-1.56237,279.329,1.04577
210.0000,-2.32713,279.694,1.04986
209.9000,-3.50121,279.519,1.04789
209.8000,-3.78113,279.87,1.05183
209.7000,-3.70919,279.851,1.05161
209.6000,-2.42297,280.135,1.0548
209.5000,-1.21623,280.232,1.05589
209.4000,-2.3587,280.832,1.0626
209.3000,-2.02299,280.622,1.06025
209.2000,-3.17414,280.281,1.05643
209.1000,-1.22209,280.797,1.06221
209.0000,-0.907147,280.551,1.05946
208.9000,-1.92939,280.779,1.06201
208.8000,-1.87584,280.815,1.0624
208.7000,-1.27815,281.262,1.0674
208.6000,-2.2429,281.361,1.0685
208.5000,-2.82632,281.017,1.06467
208.4000,-4.37395,281.34,1.06826
208.3000,-3.13047,281.796,1.07336
208.2000,-1.32202,281.765,1.07301
208.1000,-1.28383,281.643,1.07165
208.0000,-2.70541,282.16,1.07741
207.9000,-1.6349,282.304,1.07901
207.8000,-0.783877,282.427,1.08038
207.7000,-3.67,282.588,1.08217
207.6000,-1.89131,282.779,1.08429
207.5000,-2.15551,282.664,1.08301
207.4000,-1.80655,282.944,1.08612
207.3000,-2.13709,283.055,1.08736
207.2000,-2.49785,283.115,1.08802
207.1000,-1.31692,283.121,1.08809
207.0000,-2.48859,283.45,1.09174
206.9000,-1.66175,283.742,1.09498
206.8000,-1.33972,283.615,1.09357
206.7000,-2.76123,283.572,1.09309
206.6000,-2.36086,284.128,1.09925
206.5000,-0.982423,283.758,1.09516
206.4000,-1.56288,284.171,1.09973
206.3000,-1.66362,284.496,1.10332
206.2000,-1.98504,284.472,1.10306
206.1000,-1.98109,284.779,1.10644
206.0000,-1.73774,284.644,1.10496
205.9000,0.0881308,284.924,1.10805
205.8000,-0.796826,284.841,1.10713
205.7000,-2.0628,285.385,1.11314
205.6000,-2.42143,285.45,1.11386
205.5000,-0.841485,285.172,1.11079
205.4000,0.557246,286.011,1.12003
205.3000,-1.32223,286.141,1.12147
205.2000,-0.822094,286.187,1.12198
205.1000,-0.706328,286.038,1.12033
205.0000,-2.00432,286.629,1.12684
204.9000,-1.10725,286.436,1.12471
204.8000,0.0275547,287.025,1.13118
204.7000,-1.50775,287.325,1.13447
204.6000,-1.26296,287.443,1.13577
204.5000,-0.181707,287.544,1.13687
204.4000,-0.289838,287.834,1.14005
204.3000,-0.859882,288.023,1.14212
204.2000,0.206241,288.306,1.14521
204.1000,-0.202511,288.202,1.14407
204.0000,0.798841,288.262,1.14473
203.9000,1.28312,289.067,1.15352
203.8000,0.274592,289.142,1.15434
203.7000,1.75289,289.24,1.15541
203.6000,2.92305,289.426,1.15744
203.5000,1.37022,289.54,1.15868
203.4000,-1.85098,289.991,1.16359
203.3000,-0.071501,290.07,1.16445
203.2000,-0.925661,290.272,1.16665
203.1000,0.937267,290.405,1.16809
203.0000,0.64951,290.414,1.16819
202.9000,2.48533,290.826,1.17266
202.8000,1.38365,291.506,1.18004
202.7000,1.32727,291.135,1.17602
202.6000,2.043,291.245,1.17721
202.5000,0.917628,291.357,1.17843
202.4000,1.4719,291.832,1.18357
202.3000,-0.040431,292.076,1.18621
202.2000,2.2122,292.474,1.19052
202.1000,-0.10691,292.7,1.19295
202.0000,1.86398,292.916,1.19529
201.9000,1.94563,293.206,1.19841
201.8000,2.19776,293.648,1.20318
201.7000,1.50088,293.84,1.20524
201.6000,3.61238,293.971,1.20665
201.5000,2.13252,294.47,1.21201
201.4000,3.60926,294.387,1.21112
201.3000,3.67714,295.05,1.21825
201.2000,1.47224,295.181,1.21965
201.1000,3.29862,295.258,1.22047
201.0000,1.2946,295.278,1.22069
200.9000,3.32288,295.728,1.22551
200.8000,3.19009,295.635,1.22451
200.7000,4.22969,296.125,1.22975
200.6000,3.47489,296.24,1.23099
200.5000,3.5902,296.652,1.23538
200.4000,4.32017,297.096,1.24012
200.3000,3.8078,297.321,1.24252
200.2000,4.76547,296.973,1.23882
200.1000,3.74711,298.063,1.25042
200.0000,3.3118,297.883,1.24851
199.9000,3.55426,298.298,1.25292
199.8000,4.41947,298.76,1.25783
199.7000,2.70117,298.643,1.25659
199.6000,5.18783,299.057,1.26098
199.5000,5.44163,299.082,1.26125
199.4000,5.01325,299.576,1.26648
199.3000,6.18091,299.434,1.26497
199.2000,7.00493,299.302,1.26358
199.1000,6.60561,299.621,1.26696
199.0000,5.81075,300.227,1.27336
198.9000,5.61963,300.553,1.27682
198.8000,5.13493,300.382,1.27501
198.7000,6.58471,300.421,1.27541
198.6000,7.88453,301.412,1.28588
198.5000,5.40668,301.563,1.28746
198.4000,4.03719,301.316,1.28486
198.3000,4.95767,301.999,1.29205
198.2000,7.26979,302.201,1.29418
198.1000,7.51725,302.211,1.29428
198.0000,6.18794,302.464,1.29694
197.9000,7.13421,303.026,1.30284
197.8000,7.2571,303.314,1.30587
197.7000,5.64411,303.517,1.30799
197.6000,8.94636,303.572,1.30857
197.5000,6.12924,303.825,1.31121
197.4000,7.06175,304.071,1.31379
197.3000,6.47867,304.778,1.32118
197.2000,5.80704,304.906,1.32252
197.1000,8.8605,305.155,1.32511
197.0000,7.50818,305.276,1.32637
196.9000,7.4654,305.353,1.32717
196.8000,6.6137,305.835,1.3322
196.7000,7.39558,306.476,1.33886
196.6000,8.76269,306.869,1.34294
196.5000,6.99496,307.067,1.345
196.4000,8.54865,307.312,1.34754
196.3000,6.61588,307.811,1.35271
196.2000,9.70199,307.841,1.35302
196.1000,9.88914,308.707,1.36197
196.0000,7.71915,308.961,1.36459
195.9000,10.0243,309.082,1.36585
195.8000,7.67053,310.077,1.3761
195.7000,9.90914,310.102,1.37635
195.6000,10.9479,310.975,1.38533
195.5000,9.81779,310.807,1.3836
195.4000,5.15243,311.103,1.38665
195.3000,9.28256,311.464,1.39035
195.2000,8.61782,311.733,1.3931
195.1000,9.39439,312.257,1.39847
195.0000,6.23889,312.255,1.39844
194.9000,8.14497,313.021,1.40627
194.8000,9.20188,313.007,1.40614
194.7000,6.3897,313.461,1.41076
194.6000,8.53976,313.99,1.41616
194.5000,8.81589,314.298,1.41929
194.4000,7.66843,314.379,1.42011
194.3000,10.3479,315.18,1.42825
194.2000,13.8994,315.714,1.43367
194.1000,10.32,316.513,1.44176
194.0000,8.8174,317.331,1.45002
193.9000,9.43398,317.933,1.4561
193.8000,9.76587,318.52,1.46201
193.7000,9.45355,319.229,1.46914
193.6000,11.2571,319.838,1.47525
193.5000,11.4385,320.942,1.48631
193.4000,8.22956,320.575,1.48263
193.3000,9.48228,321.806,1.49493
193.2000,9.23244,322.206,1.49892
193.1000,9.90422,322.6,1.50285
193.0000,7.52152,323.788,1.51465
192.9000,9.23105,324.106,1.51782
192.8000,10.0404,324.911,1.52579
192.7000,9.0071,325.512,1.53173
192.6000,10.8478,327.019,1.5466
192.5000,7.74348,327.871,1.55497
192.4000,8.56052,328.93,1.56536
192.3000,9.34404,329.399,1.56995
192.2000,9.71047,329.929,1.57513
192.1000,11.4592,331.063,1.58619
192.0000,11.7807,332.126,1.59653
191.9000,8.75259,332.847,1.60354
191.8000,11.4101,333.817,1.61293
191.7000,9.64661,334.412,1.61869
191.6000,9.91723,336.167,1.6356
191.5000,9.35248,336.706,1.64078
191.4000,9.00817,337.967,1.65288
191.3000,9.25803,339.496,1.66749
191.2000,7.76726,340.842,1.68031
191.1000,7.5956,341.785,1.68926
191.0000,12.1979,343.39,1.70446
190.9000,7.97922,345.514,1.72448
190.8000,8.74006,346.493,1.73367
190.7000,9.50096,348.579,1.75319
190.6000,5.7197,349.393,1.76078
190.5000,10.4512,350.731,1.77322
190.4000,8.99411,352.392,1.78861
190.3000,4.38313,353.609,1.79985
190.2000,5.7726,355.343,1.8158
190.1000,9.15734,356.803,1.82919
190.0000,9.69905,358.319,1.84303

##### Extended Information
[Comments]
Sample name,class
Comment
User
Division
Company,Saint Mary's College

[Detailed Information]
Creation date,10/6/2021 3:03 PM

Data array type,Linear data array * 3
Horizontal axis,Wavelength [nm]
Vertical axis(1),CD [mdeg]
Vertical axis(2),HT [V]
Vertical axis(3),Abs
Start,290 nm
End,190 nm
Data interval,0.1 nm
Data points,1001    

[Measurement Information]
Instrument name,J-1500
Model name,J-1500
Serial No.,B051061638

Detector,PM-539
Detector S/N,B051061638
  Lock-in amp.,X mode
  HT volt,Auto

Accessory,PTC-517
Accessory S/N,B026561646
  Temperature,25.47 C
  Control sensor,Holder
  Monitor sensor,Holder

Measurement date,10/6/2021 3:01 PM

CD Overload detect,809
Photometric mode,CD, HT, Abs
Measure range,290 - 190 nm
Data pitch,0.1 nm
CD scale,20 mdeg/0.05 dOD
FL scale,20 mdeg/0.05 dOD
D.I.T.,64 msec
Bandwidth,1.00 nm
Start mode,Immediately
Scanning mode,Continuous
Scanning speed,50 nm/min
Baseline correction,None
Shutter control,Auto
No. of cycle,1/1
N2 Flowmeter,Manual


