TITLE,JN_ADProteinandAdditive
DATA TYPE,
ORIGIN,JASCO
OWNER,
DATE,22/09/29
TIME,17:23:40
SPECTROMETER/DATA SYSTEM,
LOCALE,1033
RESOLUTION,
DELTAX,-0.1
XUNITS,NANOMETERS
YUNITS,CD [mdeg]
Y2UNITS,HT [V]
Y3UNITS,ABSORBANCE
FIRSTX,  320.0000
LASTX,  190.0000
NPOINTS,    1301
FIRSTY,     2.13331
MAXY,    15.55320
MINY,    -7.57467
XYDATA
320.0000,2.13331,209.142,0.160523
319.9000,0.148071,208.898,0.157047
319.8000,1.22364,209.146,0.160588
319.7000,1.88143,209.317,0.163027
319.6000,0.65862,208.941,0.157662
319.5000,0.20728,209.174,0.160992
319.4000,1.92268,209.163,0.16083
319.3000,1.02064,209.591,0.166932
319.2000,1.192,209.123,0.160264
319.1000,-0.154205,209.062,0.159392
319.0000,1.8542,209.075,0.159569
318.9000,-0.4208,209.059,0.159343
318.8000,2.31594,208.627,0.153179
318.7000,2.13082,209.256,0.162154
318.6000,0.685098,209.194,0.161266
318.5000,1.40345,209.053,0.159262
318.4000,0.468083,208.837,0.156174
318.3000,-0.462222,209.341,0.163366
318.2000,0.535495,208.81,0.155785
318.1000,-0.536476,209.336,0.163301
318.0000,1.55011,209.425,0.16456
317.9000,1.98255,209.76,0.169335
317.8000,2.15378,209.016,0.158729
317.7000,2.34154,208.635,0.153293
317.6000,-0.0204633,208.854,0.156416
317.5000,0.576862,209.314,0.162978
317.4000,1.2051,209.441,0.164786
317.3000,1.41441,208.929,0.157484
317.2000,0.572559,209.247,0.162025
317.1000,0.484127,208.842,0.156254
317.0000,0.202383,208.548,0.152046
316.9000,1.36194,208.865,0.156578
316.8000,0.859705,209.628,0.167448
316.7000,0.695781,209.645,0.16769
316.6000,2.20186,208.706,0.154313
316.5000,0.816303,209.499,0.165609
316.4000,1.38007,209.096,0.159876
316.3000,1.58257,209.459,0.165045
316.2000,0.659132,209.318,0.163043
316.1000,1.04277,209.025,0.158858
316.0000,2.91323,208.663,0.153698
315.9000,1.22438,208.739,0.154782
315.8000,1.12678,209.006,0.158583
315.7000,1.29466,209.131,0.160377
315.6000,0.948975,208.589,0.152629
315.5000,1.13494,209.037,0.159036
315.4000,3.48787,209.014,0.158696
315.3000,-0.157569,208.678,0.153908
315.2000,-1.13377,209.043,0.159117
315.1000,0.699222,208.402,0.149956
315.0000,1.29942,208.829,0.15606
314.9000,2.30432,208.573,0.152402
314.8000,2.25482,208.825,0.156012
314.7000,1.66962,208.62,0.153082
314.6000,0.156885,209.019,0.158777
314.5000,0.255298,208.926,0.157451
314.4000,0.983341,208.484,0.151139
314.3000,2.44063,208.646,0.153455
314.2000,1.65147,208.938,0.157613
314.1000,1.38156,208.452,0.150669
314.0000,1.37144,208.382,0.14968
313.9000,1.29288,208.827,0.156028
313.8000,2.26706,209.06,0.159359
313.7000,0.894572,208.33,0.148935
313.6000,2.29945,208.73,0.154652
313.5000,2.44173,208.583,0.152548
313.4000,1.12926,208.133,0.146113
313.3000,2.00878,208.316,0.148724
313.2000,0.856089,208.056,0.14501
313.1000,1.25458,208.941,0.157662
313.0000,1.3758,208.863,0.156546
312.9000,-0.0261446,208.582,0.152532
312.8000,2.91597,208.403,0.149972
312.7000,1.4263,208.285,0.148286
312.6000,0.301074,208.77,0.155219
312.5000,1.20571,208.641,0.153374
312.4000,2.50949,209.261,0.162219
312.3000,-0.431218,208.543,0.151981
312.2000,0.767189,208.37,0.149502
312.1000,0.444984,208.104,0.145691
312.0000,1.46819,208.859,0.156497
311.9000,0.936094,208.702,0.154248
311.8000,1.23338,208.942,0.157678
311.7000,0.294866,208.344,0.149129
311.6000,2.13809,208.722,0.154539
311.5000,1.30598,208.141,0.146226
311.4000,-1.95636,208.386,0.149729
311.3000,0.221529,207.522,0.137358
311.2000,1.78053,208.327,0.148886
311.1000,1.03363,208.532,0.151819
311.0000,1.35561,209.655,0.167836
310.9000,0.807024,208.473,0.150977
310.8000,1.47638,208.893,0.156982
310.7000,1.52394,208.878,0.156756
310.6000,1.51655,209.241,0.161945
310.5000,1.94647,208.973,0.158114
310.4000,2.12382,209.128,0.160329
310.3000,2.17172,208.946,0.157726
310.2000,2.63905,209.196,0.161299
310.1000,-0.469438,208.127,0.146032
310.0000,0.806117,208.71,0.154361
309.9000,1.4018,208.934,0.157565
309.8000,0.532052,208.739,0.154782
309.7000,0.738813,208.634,0.153276
309.6000,1.52802,209.111,0.160087
309.5000,0.700467,208.611,0.152953
309.4000,0.601022,209.145,0.160571
309.3000,0.128615,208.808,0.155769
309.2000,1.89404,208.946,0.157726
309.1000,-0.705975,208.607,0.152888
309.0000,1.05965,208.846,0.156303
308.9000,2.56519,208.813,0.155834
308.8000,2.12501,208.376,0.149583
308.7000,1.17434,208.401,0.14994
308.6000,0.420202,208.325,0.148854
308.5000,-1.23638,208.541,0.151949
308.4000,1.53665,208.471,0.150944
308.3000,0.219491,208.346,0.149162
308.2000,1.57865,207.902,0.142802
308.1000,1.26452,208.593,0.152694
308.0000,0.569597,208.969,0.158066
307.9000,2.24261,208.696,0.154167
307.8000,2.54284,209.25,0.162074
307.7000,1.12302,207.783,0.141097
307.6000,0.407867,208.661,0.153665
307.5000,0.945499,208.702,0.154248
307.4000,0.52702,208.075,0.145286
307.3000,2.16526,207.815,0.141551
307.2000,0.441662,208.577,0.152467
307.1000,0.717442,208.339,0.149064
307.0000,0.452737,208.722,0.154539
306.9000,0.0558559,208.615,0.153001
306.8000,0.984356,208.375,0.149567
306.7000,-0.594877,208.822,0.155963
306.6000,2.60039,207.884,0.142542
306.5000,1.11376,209.256,0.162154
306.4000,1.55248,208.78,0.155365
306.3000,2.24478,208.282,0.148238
306.2000,3.78861,208.907,0.157177
306.1000,1.15577,208.779,0.155348
306.0000,0.751588,207.533,0.137505
305.9000,1.85736,208.056,0.14501
305.8000,1.00997,207.26,0.133583
305.7000,1.22995,208.258,0.147897
305.6000,1.11212,208.282,0.148238
305.5000,1.00173,208.167,0.1466
305.4000,0.297269,208.31,0.148643
305.3000,0.85887,208.864,0.156562
305.2000,2.56434,208.13,0.146064
305.1000,0.563773,208.373,0.149551
305.0000,-0.0928277,208.045,0.144847
304.9000,0.531638,208.449,0.150636
304.8000,0.880883,207.968,0.143744
304.7000,-0.31807,208.55,0.152078
304.6000,1.36852,208.74,0.154798
304.5000,0.475369,208.363,0.149405
304.4000,0.4196,208.505,0.15143
304.3000,1.55308,208.754,0.154993
304.2000,2.62717,208.445,0.150572
304.1000,1.23533,208.219,0.147346
304.0000,1.36484,208.525,0.151722
303.9000,2.95831,207.717,0.140154
303.8000,1.49275,208.948,0.157759
303.7000,0.947629,208.546,0.152013
303.6000,0.815532,208.359,0.14934
303.5000,2.55721,208.697,0.154183
303.4000,1.1679,208.232,0.147524
303.3000,2.26589,207.751,0.140642
303.2000,1.52386,207.848,0.142023
303.1000,-0.0164261,207.86,0.142201
303.0000,0.543847,208.442,0.150539
302.9000,1.45532,207.397,0.135553
302.8000,1.16888,208.066,0.145156
302.7000,2.12289,208.695,0.154151
302.6000,-0.0886354,208.346,0.149162
302.5000,0.655441,208.702,0.154248
302.4000,2.783,208.525,0.151722
302.3000,0.893292,207.926,0.143143
302.2000,-0.290825,207.354,0.134934
302.1000,2.73908,208.5,0.151366
302.0000,2.26961,208.609,0.15292
301.9000,1.82208,208.762,0.155106
301.8000,0.0161652,207.97,0.143776
301.7000,1.04048,208.007,0.144312
301.6000,2.65191,208.618,0.15305
301.5000,0.954124,208.386,0.149729
301.4000,2.163,207.943,0.143386
301.3000,-0.413667,207.775,0.140983
301.2000,1.94651,208.35,0.14921
301.1000,1.23468,207.854,0.14212
301.0000,1.15037,207.856,0.142136
300.9000,1.4573,208.256,0.147865
300.8000,1.9159,208.152,0.146389
300.7000,1.78944,208.053,0.144961
300.6000,-0.64952,208.469,0.150912
300.5000,0.0133607,207.825,0.141698
300.4000,0.879353,208.403,0.149972
300.3000,-0.452103,207.526,0.137407
300.2000,0.681428,208.649,0.153487
300.1000,1.1038,208.367,0.149453
300.0000,2.00323,208.038,0.14475
299.9000,0.425195,208.42,0.150215
299.8000,0.9605,208.057,0.145026
299.7000,0.439305,207.827,0.14173
299.6000,1.08444,207.711,0.140057
299.5000,0.894638,208.015,0.144425
299.4000,2.22547,207.976,0.143857
299.3000,-0.590524,207.449,0.136301
299.2000,1.64806,207.839,0.141893
299.1000,1.45275,208.697,0.154183
299.0000,1.56766,208.043,0.144815
298.9000,-0.256757,208.192,0.146956
298.8000,1.38183,207.41,0.135748
298.7000,0.829015,207.452,0.13635
298.6000,0.749861,208.479,0.151058
298.5000,0.438415,208.019,0.144474
298.4000,1.17594,208.35,0.14921
298.3000,1.9456,208.092,0.145529
298.2000,2.31579,208.064,0.145123
298.1000,1.86898,207.856,0.142136
298.0000,1.854,208.151,0.146372
297.9000,2.59691,207.643,0.139081
297.8000,1.92576,207.877,0.142445
297.7000,-0.548215,207.988,0.144036
297.6000,2.24119,207.456,0.136398
297.5000,1.4393,208.194,0.146989
297.4000,0.254981,207.121,0.131597
297.3000,2.55957,207.972,0.143809
297.2000,0.335385,208.171,0.146648
297.1000,0.20147,207.505,0.137114
297.0000,0.889717,207.393,0.135504
296.9000,1.56371,207.092,0.131173
296.8000,-0.768988,206.976,0.129511
296.7000,1.07435,207.79,0.141194
296.6000,1.82566,208.089,0.14548
296.5000,0.911423,207.162,0.132183
296.4000,-0.00815072,208.625,0.153147
296.3000,-0.14156,207.729,0.140317
296.2000,1.12744,207.682,0.13965
296.1000,1.19224,207.73,0.140333
296.0000,1.80665,207.995,0.144133
295.9000,2.11561,207.773,0.14095
295.8000,-0.355025,208.103,0.145675
295.7000,1.27278,208.065,0.145139
295.6000,1.57248,206.924,0.128762
295.5000,0.959765,207.372,0.135195
295.4000,0.671063,207.781,0.141064
295.3000,-1.95557,207.306,0.134251
295.2000,0.296856,207.334,0.134658
295.1000,2.07745,207.75,0.140625
295.0000,0.255235,207.499,0.137017
294.9000,-0.0198891,207.709,0.14004
294.8000,1.04928,208.622,0.153098
294.7000,2.40274,208.19,0.146924
294.6000,0.355811,207.92,0.143062
294.5000,1.00966,208.135,0.146145
294.4000,2.14647,207.383,0.135357
294.3000,0.703954,207.584,0.138236
294.2000,-0.657813,207.828,0.141746
294.1000,2.19751,208.089,0.14548
294.0000,0.744557,208.235,0.147573
293.9000,1.44336,208.859,0.156497
293.8000,0.511113,208.489,0.151204
293.7000,1.62979,207.228,0.133127
293.6000,0.507086,207.212,0.132899
293.5000,-0.205173,206.931,0.128859
293.4000,1.37005,207.681,0.139634
293.3000,2.44855,207.372,0.135195
293.2000,2.37999,207.146,0.131955
293.1000,1.57772,207.671,0.139488
293.0000,2.73786,206.956,0.129218
292.9000,0.965408,207.592,0.13835
292.8000,-0.310262,208.127,0.146032
292.7000,1.5065,207.308,0.134283
292.6000,2.06651,207.701,0.139927
292.5000,0.453129,207.612,0.138643
292.4000,1.391,206.909,0.128549
292.3000,0.734947,207.017,0.130098
292.2000,0.519968,207.203,0.132769
292.1000,0.527693,206.696,0.125483
292.0000,2.09886,207.019,0.13013
291.9000,0.124415,206.146,0.117545
291.8000,1.65649,207.075,0.130929
291.7000,2.88295,207.369,0.135162
291.6000,1.82085,206.988,0.129674
291.5000,0.978329,207.068,0.130831
291.4000,1.0603,206.325,0.120128
291.3000,0.427506,207.419,0.135878
291.2000,1.72439,206.719,0.12581
291.1000,1.07101,207.527,0.137423
291.0000,0.825381,207.631,0.138919
290.9000,1.24214,206.34,0.12034
290.8000,1.3076,206.784,0.12674
290.7000,1.63965,207.339,0.134723
290.6000,2.44947,206.783,0.126723
290.5000,1.23166,207.335,0.134674
290.4000,0.267301,206.413,0.121402
290.3000,-0.852947,206.565,0.12359
290.2000,1.54518,207.154,0.132069
290.1000,1.97372,207.343,0.134788
290.0000,0.649548,207.545,0.137683
289.9000,0.595611,207.315,0.134381
289.8000,0.561706,207.041,0.13044
289.7000,0.681921,207.288,0.13399
289.6000,2.47972,207.498,0.137
289.5000,2.3497,207.447,0.136268
289.4000,-0.0889759,207.331,0.134609
289.3000,1.02546,207.164,0.132216
289.2000,0.148855,208.207,0.147167
289.1000,1.7488,207.12,0.13158
289.0000,0.608584,207.66,0.139325
288.9000,0.285904,206.49,0.122513
288.8000,-0.127969,207.371,0.135178
288.7000,0.993101,207.539,0.137602
288.6000,0.141535,206.904,0.128468
288.5000,1.74282,207.459,0.136447
288.4000,-0.222348,207.397,0.135553
288.3000,1.55286,207.343,0.134788
288.2000,2.24032,207.093,0.131189
288.1000,0.622576,207.567,0.137992
288.0000,-0.0236437,207.615,0.138692
287.9000,0.999238,207.068,0.130831
287.8000,0.49414,207.603,0.138512
287.7000,1.80699,207.348,0.134853
287.6000,1.04747,207.807,0.141438
287.5000,2.11963,207.815,0.141551
287.4000,-0.0872619,207.481,0.136756
287.3000,1.32102,207.671,0.139488
287.2000,2.47104,206.979,0.129544
287.1000,0.407074,207.295,0.134088
287.0000,1.24686,207.086,0.131092
286.9000,0.546779,207.02,0.130147
286.8000,2.20249,207.46,0.136464
286.7000,0.541935,206.862,0.127865
286.6000,1.1945,207.36,0.135032
286.5000,0.132552,207.215,0.132948
286.4000,1.00584,208.188,0.146892
286.3000,0.894968,207.381,0.135325
286.2000,0.6105,207.775,0.140983
286.1000,-0.0909662,206.89,0.128272
286.0000,1.42125,207.912,0.142948
285.9000,1.14176,207.243,0.133339
285.8000,-0.175655,207.771,0.140918
285.7000,1.20759,206.958,0.129251
285.6000,1.48269,207.688,0.139732
285.5000,1.11497,207.34,0.134739
285.4000,1.08144,207.462,0.136496
285.3000,0.746462,207.278,0.133844
285.2000,0.585184,206.821,0.127278
285.1000,1.88901,207.411,0.135764
285.0000,0.252173,207.253,0.133486
284.9000,1.404,206.915,0.128631
284.8000,0.467437,207.441,0.136187
284.7000,1.7349,206.827,0.127359
284.6000,1.51561,207.406,0.135683
284.5000,1.90853,206.942,0.129022
284.4000,0.959715,206.869,0.127963
284.3000,1.31402,207.304,0.134218
284.2000,0.0302406,207.653,0.139228
284.1000,-0.208824,208.538,0.1519
284.0000,0.0537651,205.93,0.114437
283.9000,1.4595,207.414,0.135797
283.8000,0.707486,207.548,0.137732
283.7000,1.73239,207.475,0.136675
283.6000,0.00490363,207.066,0.130799
283.5000,0.533988,207.715,0.140122
283.4000,1.62041,206.911,0.128566
283.3000,1.05254,207.58,0.138187
283.2000,-0.403191,207.172,0.132329
283.1000,0.978958,207.321,0.134462
283.0000,2.10161,207.026,0.130228
282.9000,1.51767,207.355,0.134951
282.8000,1.47332,207.267,0.133697
282.7000,1.66417,207.545,0.137683
282.6000,-0.101137,206.817,0.127213
282.5000,0.60511,207.405,0.135666
282.4000,-0.46405,206.362,0.120667
282.3000,1.35588,207.087,0.131108
282.2000,0.53963,207.428,0.136008
282.1000,-0.286451,206.843,0.127587
282.0000,0.286271,206.599,0.12408
281.9000,0.996979,207.817,0.141584
281.8000,1.67447,206.608,0.124211
281.7000,1.21936,207.811,0.141503
281.6000,0.663432,207.019,0.13013
281.5000,-0.420138,206.996,0.129788
281.4000,2.60848,207.561,0.137911
281.3000,3.01852,206.779,0.126674
281.2000,0.870079,207.665,0.139407
281.1000,0.0831156,206.434,0.121696
281.0000,1.82542,207.18,0.132444
280.9000,2.78804,206.911,0.128566
280.8000,0.879928,206.138,0.117431
280.7000,2.81068,207.254,0.133502
280.6000,1.96698,207.428,0.136008
280.5000,1.17773,206.531,0.1231
280.4000,1.66005,207.27,0.13373
280.3000,1.26142,207.06,0.130717
280.2000,0.886234,206.474,0.122284
280.1000,0.0626249,207.294,0.134072
280.0000,1.24954,207.803,0.141389
279.9000,0.333076,207.519,0.137309
279.8000,1.79413,207.994,0.144117
279.7000,0.0494693,206.848,0.127669
279.6000,0.405985,206.97,0.129414
279.5000,0.668085,206.347,0.120455
279.4000,-0.123858,207.885,0.142558
279.3000,0.733176,206.982,0.129593
279.2000,1.23986,206.472,0.122252
279.1000,1.90555,207.474,0.136659
279.0000,1.90986,207.546,0.1377
278.9000,1.37287,208.052,0.144945
278.8000,2.00644,207.486,0.136838
278.7000,0.567205,206.738,0.126087
278.6000,1.7595,207.243,0.133339
278.5000,0.700752,207.366,0.135113
278.4000,-0.488551,206.727,0.125924
278.3000,1.05573,206.855,0.127767
278.2000,0.961043,207.35,0.134885
278.1000,-0.0796647,207.613,0.138659
278.0000,1.37236,207.247,0.133404
277.9000,-1.2014,207.322,0.134479
277.8000,1.29979,206.754,0.126316
277.7000,1.06135,207.431,0.136041
277.6000,1.12765,207.185,0.132509
277.5000,-0.0476504,206.82,0.127261
277.4000,1.18841,207.346,0.13482
277.3000,-1.89754,208.19,0.146924
277.2000,0.498492,207.456,0.136398
277.1000,0.670561,207.627,0.138854
277.0000,0.963364,207.13,0.131727
276.9000,0.321601,206.772,0.126576
276.8000,0.99714,207.482,0.136773
276.7000,1.07449,207.224,0.133079
276.6000,1.36908,207.1,0.131287
276.5000,0.905031,207.04,0.130424
276.4000,-0.43383,207.21,0.132867
276.3000,2.0608,207.149,0.131988
276.2000,1.32202,206.959,0.129267
276.1000,1.71345,207.218,0.132981
276.0000,2.39392,207.284,0.133941
275.9000,0.414363,207.299,0.134153
275.8000,0.702937,207.373,0.135211
275.7000,-0.280383,206.938,0.128957
275.6000,0.140877,207.551,0.137765
275.5000,0.718473,208.083,0.145399
275.4000,1.09531,207.043,0.130473
275.3000,0.919128,206.797,0.126935
275.2000,1.43487,208.249,0.147767
275.1000,2.07064,207.616,0.138708
275.0000,-1.12527,207.27,0.13373
274.9000,1.9452,208.115,0.145853
274.8000,2.73933,207.295,0.134088
274.7000,3.3179,205.971,0.115026
274.6000,0.34277,208.138,0.146178
274.5000,0.662895,207.354,0.134934
274.4000,0.951654,206.179,0.118019
274.3000,1.337,207.622,0.138789
274.2000,1.59312,208.678,0.153908
274.1000,0.734483,206.763,0.126446
274.0000,0.371943,208.115,0.145853
273.9000,2.51481,206.406,0.121304
273.8000,2.35812,207.776,0.140999
273.7000,-0.287266,207.422,0.13591
273.6000,0.308125,206.999,0.129837
273.5000,-0.225093,207.772,0.140934
273.4000,0.220409,208.789,0.155494
273.3000,0.121168,206.707,0.12563
273.2000,-0.311581,207.405,0.135666
273.1000,1.62337,209.011,0.158664
273.0000,0.138754,209.289,0.162623
272.9000,-0.43716,206.996,0.129788
272.8000,-0.572821,207.396,0.135536
272.7000,0.541702,208.514,0.15156
272.6000,1.10652,206.283,0.119523
272.5000,1.10344,208.19,0.146924
272.4000,1.70757,207.016,0.130082
272.3000,2.5326,207.792,0.141227
272.2000,2.13261,207.993,0.144101
272.1000,0.44248,208.38,0.149648
272.0000,1.2788,208.138,0.146178
271.9000,1.04806,207.534,0.137521
271.8000,1.28899,205.988,0.115272
271.7000,0.576493,207.877,0.142445
271.6000,1.16532,208.086,0.145432
271.5000,0.082503,207.742,0.140512
271.4000,1.05186,207.794,0.141259
271.3000,0.724665,207.959,0.143614
271.2000,-0.0889697,207.612,0.138643
271.1000,0.820202,207.589,0.138318
271.0000,1.38389,208.569,0.152354
270.9000,0.910398,207.444,0.136236
270.8000,1.99934,208.314,0.148708
270.7000,1.62207,208.064,0.145123
270.6000,0.440808,208.269,0.148059
270.5000,1.93829,206.993,0.129756
270.4000,-0.203913,208.533,0.151835
270.3000,0.502561,208.06,0.145058
270.2000,0.0825469,207.62,0.138756
270.1000,0.552162,208.04,0.144783
270.0000,-0.00245223,208.387,0.149745
269.9000,0.840897,206.634,0.124586
269.8000,0.641122,208.725,0.154571
269.7000,0.520694,207.509,0.137163
269.6000,0.67101,208.392,0.14981
269.5000,1.65861,209.206,0.161444
269.4000,1.40876,208.722,0.154539
269.3000,1.76965,208.258,0.147897
269.2000,0.631946,207.551,0.137765
269.1000,1.11157,207.341,0.134755
269.0000,-0.302894,207.96,0.14363
268.9000,1.1528,207.436,0.136122
268.8000,-0.92453,206.758,0.126364
268.7000,-0.143583,207.973,0.143825
268.6000,0.894075,208.27,0.148075
268.5000,0.407274,209.335,0.163285
268.4000,1.18314,208.572,0.152386
268.3000,0.429311,207.529,0.137456
268.2000,0.932789,207.406,0.135683
268.1000,0.813842,208.334,0.148983
268.0000,0.47786,208.767,0.15517
267.9000,1.99532,208.703,0.154264
267.8000,-0.686128,208.233,0.14754
267.7000,0.998072,208.282,0.148238
267.6000,0.802797,208.967,0.158034
267.5000,0.700422,208.12,0.145918
267.4000,-0.482749,208.616,0.153017
267.3000,0.934856,208.395,0.149859
267.2000,1.53245,209.155,0.160717
267.1000,0.166309,207.694,0.139813
267.0000,1.6899,210.263,0.176485
266.9000,1.0929,208.244,0.147703
266.8000,-0.0349797,209.253,0.162106
266.7000,1.03568,209.282,0.162526
266.6000,-0.0983849,208.878,0.156756
266.5000,1.7641,208.761,0.15509
266.4000,-0.192092,209.688,0.168303
266.3000,0.792806,208.612,0.152969
266.2000,1.64168,209.329,0.163188
266.1000,0.94236,208.5,0.151366
266.0000,-0.613979,209.478,0.165319
265.9000,1.23696,208.413,0.150118
265.8000,0.671979,209.917,0.171559
265.7000,0.694854,209.268,0.162332
265.6000,0.950083,210.595,0.181196
265.5000,-0.279572,209.338,0.163317
265.4000,0.340388,208.713,0.15441
265.3000,-0.936498,209.627,0.167432
265.2000,1.56253,210.21,0.175729
265.1000,-0.245941,208.403,0.149972
265.0000,-0.373561,210.443,0.179042
264.9000,-0.807404,209.597,0.167013
264.8000,0.401893,208.54,0.151932
264.7000,-1.8409,209.611,0.167207
264.6000,1.90559,208.405,0.150004
264.5000,-0.577822,209.73,0.1689
264.4000,0.934692,208.648,0.153471
264.3000,0.648766,208.686,0.154021
264.2000,0.667998,209.637,0.167577
264.1000,0.552121,209.331,0.16322
264.0000,-0.119899,208.73,0.154652
263.9000,-0.508902,209.346,0.16343
263.8000,-0.454556,209.221,0.161654
263.7000,0.408813,210.116,0.174393
263.6000,2.41698,209.08,0.15965
263.5000,-0.13112,208.577,0.152467
263.4000,0.81756,209.172,0.160959
263.3000,0.139005,209.39,0.16406
263.2000,2.39672,209.71,0.168625
263.1000,-0.0138438,208.87,0.156643
263.0000,0.811577,209.211,0.161508
262.9000,0.356134,209.998,0.172718
262.8000,1.529,209.398,0.164173
262.7000,-1.13575,209.406,0.164286
262.6000,1.2681,209.922,0.171639
262.5000,2.92017,209.644,0.167674
262.4000,-0.560654,209.897,0.171285
262.3000,0.352802,209.71,0.168625
262.2000,-1.93595,209.453,0.164964
262.1000,-0.499664,210.399,0.178415
262.0000,0.478386,210.421,0.17872
261.9000,0.139316,210.047,0.173411
261.8000,-0.608181,209.769,0.169464
261.7000,1.81624,209.989,0.17259
261.6000,-1.22376,210.005,0.172815
261.5000,1.2773,210.485,0.179637
261.4000,-0.0590673,210.051,0.173475
261.3000,-1.22139,210.85,0.184809
261.2000,2.39558,209.963,0.172219
261.1000,0.67352,210.719,0.182946
261.0000,1.98918,210.688,0.182513
260.9000,0.425934,208.382,0.14968
260.8000,0.426733,211.139,0.1889
260.7000,1.46905,209.278,0.162461
260.6000,1.68485,209.874,0.170946
260.5000,0.915665,210,0.172751
260.4000,2.11162,210.504,0.179894
260.3000,2.60711,210.465,0.179348
260.2000,0.944947,211.086,0.188146
260.1000,0.574709,210.744,0.1833
260.0000,1.00151,210.38,0.178142
259.9000,1.67018,210.854,0.184857
259.8000,-0.0173133,209.534,0.166109
259.7000,2.35026,209.985,0.172525
259.6000,-0.908206,210.923,0.185836
259.5000,-0.157439,210.766,0.183621
259.4000,0.367873,210.338,0.177546
259.3000,0.283536,209.926,0.171687
259.2000,0.960406,211.124,0.188691
259.1000,0.538055,212.184,0.203652
259.0000,0.682033,211.101,0.188354
258.9000,0.461099,210.475,0.179492
258.8000,1.51442,211.293,0.191079
258.7000,-1.11735,210.472,0.179444
258.6000,1.51783,211.869,0.19921
258.5000,0.275356,210.534,0.180328
258.4000,1.73792,211.814,0.198443
258.3000,2.83949,211.044,0.187553
258.2000,1.16607,211.422,0.192906
258.1000,0.6863,210.456,0.179219
258.0000,0.238012,210.964,0.186414
257.9000,1.03503,211.298,0.191144
257.8000,-0.146703,211.016,0.187152
257.7000,0.412152,210.736,0.183187
257.6000,-0.322433,210.942,0.186109
257.5000,-0.156922,210.906,0.185595
257.4000,-0.397631,211.185,0.189541
257.3000,0.434049,211.242,0.190358
257.2000,0.3025,211.896,0.199594
257.1000,-0.733901,211.686,0.196635
257.0000,0.178887,211.214,0.189958
256.9000,-0.231417,211.481,0.193738
256.8000,0.291633,210.553,0.180601
256.7000,0.372929,212.278,0.204977
256.6000,1.37193,211.752,0.197563
256.5000,1.94055,212.015,0.201272
256.4000,1.09716,211.128,0.188739
256.3000,-0.524777,211.744,0.197451
256.2000,0.426829,212.279,0.204993
256.1000,0.842106,210.678,0.182368
256.0000,2.00545,211.471,0.193594
255.9000,-0.448572,211.684,0.196603
255.8000,-0.314584,212.027,0.201447
255.7000,1.91657,211.592,0.195307
255.6000,1.31476,211.257,0.190566
255.5000,-0.350717,212.524,0.208439
255.4000,-0.742829,211.658,0.196235
255.3000,1.95011,212.258,0.20469
255.2000,-0.162882,212.312,0.205456
255.1000,0.468817,212.635,0.210002
255.0000,1.12473,212.625,0.209858
254.9000,1.57656,212.162,0.203348
254.8000,-0.398534,213.609,0.223684
254.7000,0.214525,210.897,0.185467
254.6000,1.25563,213.137,0.217056
254.5000,-0.704661,213.384,0.220523
254.4000,1.30699,213.231,0.218376
254.3000,0.0584806,213.87,0.227335
254.2000,1.84248,212.347,0.20595
254.1000,3.29243,212.159,0.203301
254.0000,-0.181718,212.634,0.209985
253.9000,1.50639,212.038,0.201591
253.8000,2.00289,212.886,0.213538
253.7000,0.119257,212.489,0.207945
253.6000,1.59938,212.556,0.208886
253.5000,2.22501,212.332,0.205743
253.4000,0.883081,212.289,0.205137
253.3000,-1.59628,212.388,0.206525
253.2000,2.16888,212.476,0.207769
253.1000,1.11319,214.158,0.231362
253.0000,0.706518,212.765,0.211834
252.9000,0.0194237,212.745,0.211547
252.8000,0.904498,214.893,0.241632
252.7000,0.241853,213.302,0.219378
252.6000,2.31075,212.452,0.207434
252.5000,1.51878,212.816,0.212551
252.4000,-0.00937029,214.087,0.230379
252.3000,2.40879,213.999,0.229143
252.2000,-0.134902,212.438,0.207227
252.1000,0.689996,213.193,0.217851
252.0000,-0.00660652,214.104,0.230617
251.9000,2.28754,211.64,0.195979
251.8000,-1.35415,213.145,0.217167
251.7000,-0.0255513,213.013,0.215321
251.6000,1.04047,212.688,0.210751
251.5000,1.36859,212.59,0.209364
251.4000,1.47107,213.178,0.217629
251.3000,1.22455,213.582,0.223303
251.2000,-0.495559,213.951,0.228477
251.1000,1.05605,214.317,0.233596
251.0000,0.215466,214.082,0.2303
250.9000,0.632456,213.819,0.226621
250.8000,1.29764,213.386,0.220554
250.7000,0.486642,213.793,0.226256
250.6000,-0.737624,214.311,0.2335
250.5000,1.1599,214.093,0.230458
250.4000,1.19882,212.966,0.214653
250.3000,-0.619669,213.179,0.217645
250.2000,0.888352,214.46,0.23559
250.1000,1.85828,214.371,0.23434
250.0000,2.65996,212.892,0.213618
249.9000,-0.0451307,216.435,0.263075
249.8000,0.930687,213.282,0.219092
249.7000,-0.368742,214.364,0.234245
249.6000,0.293915,214.238,0.232487
249.5000,1.35994,214.496,0.236097
249.4000,-0.852987,214.084,0.230332
249.3000,1.20654,214.286,0.233152
249.2000,1.73756,214.115,0.23076
249.1000,0.124861,213.363,0.220236
249.0000,0.087157,213.057,0.215942
248.9000,0.555351,214.287,0.233168
248.8000,1.64816,215.113,0.244696
248.7000,-0.194135,212.894,0.21365
248.6000,0.140299,213.554,0.222906
248.5000,0.16214,215.256,0.246685
248.4000,1.27525,213.895,0.227684
248.3000,-0.694788,213.861,0.227208
248.2000,0.245119,213.974,0.228794
248.1000,0.792419,214.593,0.237442
248.0000,1.16384,213.837,0.226875
247.9000,-1.33407,214.186,0.231758
247.8000,3.07637,215.001,0.243133
247.7000,-0.189829,213.948,0.228429
247.6000,-0.314951,214.694,0.23885
247.5000,1.65259,214.359,0.234181
247.4000,-2.03071,215.187,0.245722
247.3000,1.877,214.384,0.23453
247.2000,0.715478,214.589,0.237395
247.1000,-0.13565,214.456,0.235527
247.0000,-1.2794,215,0.243117
246.9000,-1.0662,214.474,0.23578
246.8000,-0.0555564,214.274,0.232994
246.7000,1.36263,214.515,0.23635
246.6000,-0.944806,215,0.243117
246.5000,-2.21568,214.306,0.233437
246.4000,0.0220708,214.668,0.238486
246.3000,1.40923,214.545,0.236777
246.2000,-0.566185,214.911,0.241884
246.1000,0.225185,214.601,0.237553
246.0000,0.0156048,215.248,0.246574
245.9000,1.18594,215.488,0.249918
245.8000,1.15304,214.913,0.241916
245.7000,2.38536,215.866,0.25518
245.6000,1.8154,214.966,0.242643
245.5000,0.325367,214.343,0.23396
245.4000,0.148121,215.452,0.249414
245.3000,0.806522,215.593,0.251384
245.2000,0.178837,215.609,0.251605
245.1000,0.604249,217.266,0.274572
245.0000,0.256142,215.265,0.246811
244.9000,0.799254,214.877,0.24141
244.8000,1.01891,215.974,0.256676
244.7000,-0.389795,216.103,0.258469
244.6000,-1.0587,214.928,0.242121
244.5000,2.03294,215.293,0.247206
244.4000,0.703739,215.671,0.252472
244.3000,1.74009,216.311,0.261346
244.2000,0.424683,216.07,0.258013
244.1000,1.34746,215.577,0.251164
244.0000,2.24678,216.755,0.267502
243.9000,-0.261794,216.122,0.258737
243.8000,0.965836,215.581,0.251211
243.7000,1.14844,215.691,0.252739
243.6000,0.726119,215.63,0.251889
243.5000,2.54375,216.508,0.26408
243.4000,1.61632,216.732,0.267188
243.3000,0.148881,215.537,0.250596
243.2000,-0.636559,216.801,0.268145
243.1000,1.48108,215.487,0.249903
243.0000,0.0342351,216.032,0.257478
242.9000,-0.794819,217.089,0.272128
242.8000,0.314839,216.527,0.264347
242.7000,-1.04305,216.521,0.264269
242.6000,0.224326,216.445,0.263216
242.5000,-0.3374,216.492,0.26386
242.4000,0.683906,217.087,0.272096
242.3000,0.485228,216.301,0.261221
242.2000,1.40981,215.898,0.255621
242.1000,1.1379,216.777,0.267816
242.0000,-0.263113,216.665,0.266262
241.9000,0.927828,216.739,0.267283
241.8000,-0.270453,216.917,0.269745
241.7000,1.729,216.381,0.262321
241.6000,0.652344,217.08,0.272002
241.5000,-0.438149,217.749,0.281252
241.4000,-0.183499,217.169,0.27324
241.3000,1.47449,216.205,0.259885
241.2000,0.503486,217.592,0.279079
241.1000,0.124851,216.852,0.268851
241.0000,-0.0277919,218.007,0.284799
240.9000,0.248116,218.718,0.294592
240.8000,0.172465,217.096,0.272222
240.7000,-0.314729,217.227,0.274039
240.6000,-1.28265,218.616,0.29319
240.5000,-0.20643,218.037,0.28522
240.4000,0.347479,217.951,0.284033
240.3000,-2.71524,218.687,0.294156
240.2000,-1.37722,218.275,0.288498
240.1000,-2.03241,218.237,0.287967
240.0000,0.422706,218.071,0.285689
239.9000,0.232634,218.511,0.291741
239.8000,1.83039,218.19,0.287327
239.7000,-0.386872,218.3,0.288841
239.6000,1.53015,218.828,0.296103
239.5000,-0.831409,218.377,0.289901
239.4000,0.223445,218.692,0.294234
239.3000,-0.0923298,218.479,0.291304
239.2000,-0.11723,219.229,0.301609
239.1000,1.23259,218.16,0.286906
239.0000,0.191411,219.025,0.29881
238.9000,0.837861,219.632,0.307123
238.8000,0.528128,218.738,0.294857
238.7000,0.0660001,218.755,0.295091
238.6000,-2.81201,219.3,0.302573
238.5000,-0.700286,219.36,0.303396
238.4000,-0.282791,220.488,0.318838
238.3000,-0.633173,219.65,0.307372
238.2000,-1.79143,219.014,0.298655
238.1000,0.710068,219.723,0.30838
238.0000,-1.39609,220.062,0.313016
237.9000,-0.340783,219.88,0.31052
237.8000,-2.03781,220.554,0.319735
237.7000,-1.10083,220.177,0.314581
237.6000,-0.0543836,220.396,0.317585
237.5000,-0.366044,221.01,0.325963
237.4000,0.918221,219.988,0.312009
237.3000,-2.36799,220.497,0.318962
237.2000,0.213086,219.882,0.310552
237.1000,-1.32358,220.394,0.317553
237.0000,-2.48376,220.647,0.321003
236.9000,-1.79347,220.877,0.32414
236.8000,0.976652,219.209,0.301329
236.7000,0.065287,220.98,0.325546
236.6000,-1.07734,220.971,0.325422
236.5000,-0.730916,220.52,0.319271
236.4000,1.83066,221.444,0.331872
236.3000,1.65988,221.004,0.32587
236.2000,-1.24778,220.83,0.323507
236.1000,1.44422,221.691,0.335231
236.0000,-1.43624,221.366,0.330808
235.9000,-1.73168,221.907,0.338156
235.8000,-0.993976,221.67,0.334938
235.7000,-1.76666,220.743,0.322317
235.6000,-0.270642,221.247,0.329189
235.5000,0.505401,221.718,0.335585
235.4000,-2.59399,221.458,0.332057
235.3000,1.32851,221.151,0.327877
235.2000,-1.88102,222.402,0.344875
235.1000,-0.870401,222.889,0.351474
235.0000,0.625659,221.855,0.337448
234.9000,-1.10795,221.86,0.337525
234.8000,0.414923,222.355,0.344245
234.7000,-1.15715,222.857,0.351045
234.6000,-0.301449,222.071,0.340387
234.5000,1.44697,221.145,0.3278
234.4000,-2.39728,221.831,0.337125
234.3000,0.0265348,223.223,0.355995
234.2000,-0.906287,223.323,0.357342
234.1000,-1.96025,222.729,0.349312
234.0000,0.877812,222.071,0.340387
233.9000,-2.87696,223.178,0.355382
233.8000,0.364615,222.758,0.349695
233.7000,1.01944,222.83,0.350677
233.6000,-1.41036,223.507,0.359821
233.5000,-1.17854,223.534,0.360188
233.4000,1.25126,223.634,0.361534
233.3000,-1.48466,224.027,0.366836
233.2000,-0.700573,224.411,0.372009
233.1000,0.219352,223.584,0.360861
233.0000,-1.02027,223.564,0.360602
232.9000,-0.573268,223.864,0.364637
232.8000,-2.26326,224.096,0.367768
232.7000,-0.84591,224.113,0.367997
232.6000,-0.278475,223.933,0.365569
232.5000,-3.1467,224.02,0.366745
232.4000,-2.16327,223.969,0.366058
232.3000,-2.28639,224.85,0.37792
232.2000,-3.56886,224.345,0.371125
232.1000,-3.02848,225.733,0.38976
232.0000,-3.11027,224.737,0.376398
231.9000,-2.25827,224.964,0.379442
231.8000,-3.27673,225.451,0.38598
231.7000,-1.28347,225.495,0.386572
231.6000,-0.958913,225.366,0.38484
231.5000,-3.75657,225.632,0.388409
231.4000,-0.439272,225.117,0.381496
231.3000,-2.37364,225.253,0.38332
231.2000,-1.56934,225.326,0.384308
231.1000,-4.24012,225.093,0.381177
231.0000,-3.10638,225.082,0.381025
230.9000,-1.10545,225.596,0.387923
230.8000,-2.18879,224.788,0.377083
230.7000,-3.22362,225.605,0.388045
230.6000,-4.71352,225.224,0.38294
230.5000,-2.16246,225.173,0.382256
230.4000,-3.27597,226.433,0.399125
230.3000,-2.97554,225.638,0.388485
230.2000,-2.02968,226.56,0.40082
230.1000,-2.5749,225.742,0.389881
230.0000,-2.41407,225.752,0.390018
229.9000,-1.37533,226.22,0.396279
229.8000,-5.0196,225.946,0.392611
229.7000,-2.41974,225.271,0.383564
229.6000,-4.19338,225.841,0.391201
229.5000,-2.32922,225.508,0.386739
229.4000,-4.10514,226.423,0.398989
229.3000,-3.0541,226.338,0.397853
229.2000,-4.12708,226.964,0.406202
229.1000,-2.38276,227.002,0.406715
229.0000,-2.97717,226.68,0.402423
228.9000,-1.33671,227.275,0.410353
228.8000,-3.55895,227.668,0.415585
228.7000,-2.86553,229.08,0.434311
228.6000,-2.89526,226.398,0.398656
228.5000,-3.81611,227.676,0.415691
228.4000,-2.85956,227.602,0.414696
228.3000,-3.19757,227.376,0.411696
228.2000,-1.4669,227.937,0.419155
228.1000,-1.77711,228.054,0.420704
228.0000,-4.40561,229.35,0.437877
227.9000,-3.12163,227.471,0.412963
227.8000,-2.62509,228.435,0.425772
227.7000,-2.91996,229.145,0.435166
227.6000,-2.12942,228.001,0.420012
227.5000,-1.52714,229.293,0.437128
227.4000,-2.6746,230.843,0.457563
227.3000,-3.0193,227.515,0.413551
227.2000,-4.7065,229.489,0.439719
227.1000,-0.391065,229.319,0.437473
227.0000,-3.86455,229.68,0.442233
226.9000,-2.87574,230.33,0.450809
226.8000,-3.30629,231.407,0.464973
226.7000,-5.38684,231.881,0.471182
226.6000,-5.40801,229.941,0.445686
226.5000,-4.57713,231.079,0.46066
226.4000,-1.92026,230.44,0.452256
226.3000,-4.16084,230.186,0.448913
226.2000,-1.58999,230.433,0.452166
226.1000,-4.40388,232.142,0.474594
226.0000,-3.7017,230.674,0.455343
225.9000,-4.35366,230.896,0.458263
225.8000,-1.8747,231.407,0.464973
225.7000,-3.41517,232.519,0.479528
225.6000,-2.50322,231.189,0.462103
225.5000,-3.75793,231.47,0.465791
225.4000,-5.3319,231.824,0.47044
225.3000,-3.44232,231.786,0.469935
225.2000,-3.24601,230.653,0.455059
225.1000,-1.89055,232.104,0.474104
225.0000,-1.52332,231.909,0.471553
224.9000,-2.17223,232.178,0.475068
224.8000,-4.528,232.383,0.477751
224.7000,-4.50576,231.209,0.462371
224.6000,-1.19306,232.009,0.472859
224.5000,-3.09778,232.687,0.481719
224.4000,-2.19438,232.474,0.478936
224.3000,-5.34038,232.779,0.482917
224.2000,-4.2777,232.125,0.474372
224.1000,-3.43464,231.868,0.471004
224.0000,-6.03711,232.502,0.479306
223.9000,-3.91137,232.874,0.48416
223.8000,-2.54468,232.815,0.483391
223.7000,-2.57652,233.027,0.486156
223.6000,-5.25171,232.392,0.477869
223.5000,-0.972914,233.71,0.495058
223.4000,-2.39623,234.383,0.503805
223.3000,-6.75298,233.388,0.490868
223.2000,-3.40093,233.994,0.498757
223.1000,-3.38206,234.087,0.499964
223.0000,-3.68783,233.182,0.48818
222.9000,-5.67794,235.7,0.520859
222.8000,-3.50161,233.985,0.498639
222.7000,-5.81383,234.622,0.506908
222.6000,-4.96611,233.693,0.494836
222.5000,-2.16239,235.21,0.514528
222.4000,-5.04873,234.563,0.506144
222.3000,-6.24853,234.906,0.510595
222.2000,-5.43015,235.108,0.513208
222.1000,-3.86913,235.374,0.516654
222.0000,-2.78225,235.654,0.520273
221.9000,-2.49853,235.286,0.515511
221.8000,-5.12803,235.527,0.518633
221.7000,-3.29179,235.213,0.514572
221.6000,-5.41906,235.8,0.522162
221.5000,-3.22929,235.991,0.52462
221.4000,-5.26597,235.875,0.523128
221.3000,-4.06305,235.952,0.524123
221.2000,-5.22579,236.267,0.528187
221.1000,-3.29211,236.053,0.525424
221.0000,-3.44568,236.169,0.526916
220.9000,-3.21001,237.075,0.538592
220.8000,-4.3582,236.726,0.534101
220.7000,-4.94744,236.918,0.536566
220.6000,-4.84588,237.131,0.539305
220.5000,-3.87333,238.265,0.55386
220.4000,-3.8085,238.472,0.556515
220.3000,-3.18255,237.814,0.54808
220.2000,-3.11062,237.859,0.548661
220.1000,-3.80487,236.974,0.537295
220.0000,-3.93588,236.94,0.536857
219.9000,-3.74902,237.948,0.549795
219.8000,-3.81819,237.931,0.549577
219.7000,-3.07165,238.182,0.552801
219.6000,-1.53773,238.201,0.553047
219.5000,-4.3884,237.965,0.550013
219.4000,-4.97349,238.146,0.552336
219.3000,-4.90888,237.801,0.54792
219.2000,-6.43834,238.331,0.554702
219.1000,-3.68072,238.505,0.556935
219.0000,-3.98306,238.206,0.553105
218.9000,-2.65351,238.208,0.553135
218.8000,-3.56178,239.012,0.563411
218.7000,-5.96957,238.77,0.560327
218.6000,-1.42096,238.84,0.561225
218.5000,-3.93137,239.562,0.570439
218.4000,-3.0976,239.742,0.572735
218.3000,-1.49199,239.528,0.570005
218.2000,-1.67421,239.739,0.572692
218.1000,-2.86722,239.472,0.569283
218.0000,0.0527309,239.894,0.574669
217.9000,-3.76551,239.884,0.574539
217.8000,-3.44849,240.165,0.578116
217.7000,-4.30791,240.514,0.582554
217.6000,-4.61413,240.492,0.58228
217.5000,-3.73774,240.55,0.583015
217.4000,-4.532,240.353,0.580508
217.3000,-1.49119,240.671,0.584555
217.2000,-3.20365,241.781,0.598617
217.1000,-7.28919,241.439,0.594285
217.0000,-6.3922,241.249,0.591887
216.9000,-3.62102,241.392,0.593696
216.8000,-3.68725,241.366,0.593366
216.7000,-4.4859,241.26,0.592016
216.6000,-4.58409,241.377,0.59351
216.5000,-2.49839,242.495,0.607638
216.4000,-0.98155,241.819,0.599105
216.3000,-2.22092,241.757,0.598316
216.2000,-2.44737,242.625,0.609283
216.1000,-4.46937,243.129,0.615639
216.0000,-3.34554,242.985,0.613826
215.9000,-3.6132,242.541,0.608225
215.8000,-3.83191,242.401,0.606451
215.7000,-3.74101,242.457,0.607166
215.6000,-2.06647,241.649,0.596954
215.5000,-2.30925,242.798,0.611469
215.4000,-5.02615,243.918,0.625558
215.3000,-0.937774,242.542,0.608239
215.2000,-2.36291,243.45,0.619675
215.1000,-4.70718,242.024,0.601698
215.0000,-4.46176,243.894,0.625259
214.9000,-4.31804,242.851,0.612141
214.8000,-1.09206,244.135,0.62829
214.7000,-3.74988,243.571,0.6212
214.6000,-3.06534,244.053,0.627251
214.5000,-5.89795,244.232,0.629499
214.4000,-2.64681,243.951,0.625971
214.3000,-5.39854,243.394,0.618977
214.2000,-5.11804,244.924,0.638175
214.1000,-6.26724,244.777,0.636331
214.0000,-2.34312,244.748,0.635976
213.9000,-1.07187,245.078,0.640104
213.8000,-4.90221,245.78,0.648883
213.7000,1.42786,244.834,0.637055
213.6000,-4.95651,245.357,0.64359
213.5000,-3.51248,244.755,0.636061
213.4000,-2.73435,247.922,0.675519
213.3000,-2.7351,243.628,0.621913
213.2000,-4.02592,246.78,0.661337
213.1000,-2.49499,244.564,0.633662
213.0000,-4.70749,245.852,0.649774
212.9000,-1.62003,245.221,0.64189
212.8000,-3.16281,245.921,0.650637
212.7000,-2.54356,245.47,0.645006
212.6000,-3.99692,245.778,0.648855
212.5000,-2.72353,246.449,0.657218
212.4000,-3.23284,245.833,0.649534
212.3000,-1.48282,246.603,0.659137
212.2000,-7.57467,247.178,0.666281
212.1000,-2.12695,248.26,0.679701
212.0000,-1.63525,247.064,0.664873
211.9000,-1.71345,245.858,0.649845
211.8000,-1.40234,247.224,0.666858
211.7000,-3.43215,247.055,0.664761
211.6000,-2.76455,247.138,0.665789
211.5000,-1.75872,247.871,0.674887
211.4000,-4.59623,248.631,0.684299
211.3000,-3.60129,247.292,0.667703
211.2000,-4.80053,247.428,0.669391
211.1000,-7.0395,247.606,0.671599
211.0000,-2.0896,247.967,0.67608
210.9000,-3.88022,248.263,0.679743
210.8000,-4.80885,248.104,0.677779
210.7000,-3.78029,248.286,0.680023
210.6000,-3.24352,248.907,0.687701
210.5000,-2.96584,249.671,0.697137
210.4000,-4.80809,250.442,0.706618
210.3000,-4.04933,247.775,0.673693
210.2000,-5.01809,250.441,0.706604
210.1000,-2.79759,249.449,0.6944
210.0000,-4.48642,248.61,0.684033
209.9000,-1.16803,250.252,0.704278
209.8000,-3.92627,252.194,0.728084
209.7000,-4.0763,250.539,0.707815
209.6000,-3.39866,250.933,0.712643
209.5000,-3.4609,250.227,0.703971
209.4000,-5.32847,250.845,0.711572
209.3000,1.30169,251.102,0.714728
209.2000,-3.45354,251.474,0.719282
209.1000,-2.51749,252.828,0.735829
209.0000,-3.97612,251.457,0.719074
208.9000,-5.592,252.357,0.730077
208.8000,-1.0116,252.424,0.730894
208.7000,-2.8692,252.272,0.729039
208.6000,-3.25433,252.79,0.73536
208.5000,-5.08227,251.846,0.723831
208.4000,-3.61368,252.909,0.73681
208.3000,-2.68507,251.968,0.725328
208.2000,-3.18403,253.723,0.746728
208.1000,-2.70483,253.626,0.745543
208.0000,-1.86315,253.216,0.740552
207.9000,-5.05859,254.187,0.752358
207.8000,-5.43384,254.288,0.753582
207.7000,-4.63592,254.532,0.756551
207.6000,-6.42209,255.237,0.765087
207.5000,-2.28237,254.261,0.753266
207.4000,-2.23568,255.525,0.768568
207.3000,-4.90465,255.286,0.765677
207.2000,-5.95627,254.497,0.756125
207.1000,-4.08411,256.036,0.774739
207.0000,-1.76414,255.679,0.77043
206.9000,-3.35656,255.976,0.774015
206.8000,-5.52143,255.879,0.772852
206.7000,-2.23966,255.696,0.770635
206.6000,-4.84676,255.55,0.768869
206.5000,-1.16534,257.018,0.786575
206.4000,-4.2036,255.823,0.772168
206.3000,-1.74691,256.471,0.779986
206.2000,-2.21574,256.568,0.78116
206.1000,-4.71078,257.596,0.793519
206.0000,-3.13808,258.077,0.799283
205.9000,-5.5515,257.482,0.792145
205.8000,-0.44576,258.143,0.800084
205.7000,-3.10701,258.016,0.798563
205.6000,-5.25356,258.384,0.802962
205.5000,-4.55151,258.932,0.809524
205.4000,-2.70651,258.493,0.804278
205.3000,-2.65726,258.747,0.807315
205.2000,1.20347,260.287,0.825689
205.1000,-6.30757,259.25,0.813328
205.0000,-0.550356,259.597,0.817467
204.9000,-1.89563,260.193,0.82457
204.8000,-1.27072,260.379,0.826782
204.7000,-3.85918,260.5,0.828224
204.6000,-0.30012,261.399,0.838897
204.5000,-4.00338,261.126,0.835657
204.4000,-1.23701,261.48,0.839864
204.3000,-3.12112,261.203,0.836571
204.2000,-5.5873,260.978,0.833908
204.1000,-2.48975,262.119,0.847435
204.0000,-2.58447,261.88,0.844605
203.9000,-0.805013,262.753,0.854923
203.8000,-0.587069,263.806,0.867348
203.7000,0.387549,262.294,0.849499
203.6000,1.03145,262.866,0.856261
203.5000,-3.06089,263.887,0.868295
203.4000,0.807032,263.45,0.863144
203.3000,2.05574,263.418,0.86277
203.2000,2.24068,264.286,0.872986
203.1000,-1.30695,264.462,0.875063
203.0000,-0.86104,265.077,0.88227
202.9000,1.09142,265.613,0.888548
202.8000,1.60464,265.609,0.888508
202.7000,0.896485,264.561,0.87622
202.6000,-1.97151,266.548,0.899487
202.5000,2.16346,265.157,0.883213
202.4000,-0.347216,265.836,0.89116
202.3000,5.97451,267.014,0.904918
202.2000,-0.922229,266.465,0.898508
202.1000,1.62141,267.629,0.912082
202.0000,2.24762,268.096,0.917507
201.9000,1.42284,267.603,0.911778
201.8000,-0.849316,268.146,0.918087
201.7000,1.35477,268.71,0.924634
201.6000,1.40301,268.562,0.922912
201.5000,-0.130498,270.949,0.9505
201.4000,5.95001,270.139,0.941161
201.3000,3.14239,270.242,0.942351
201.2000,2.90062,269.745,0.936607
201.1000,-1.68008,270.172,0.94154
201.0000,3.29581,270.533,0.945709
200.9000,1.21918,269.443,0.933123
200.8000,1.77514,270.694,0.947564
200.7000,6.14474,271.475,0.956548
200.6000,5.07004,271.534,0.957225
200.5000,2.79096,271.251,0.953969
200.4000,4.09876,273.342,0.977951
200.3000,4.53879,272.411,0.967291
200.2000,5.62186,272.929,0.973221
200.1000,5.58523,272.851,0.972326
200.0000,2.3763,273.082,0.974971
199.9000,2.04525,273.615,0.981071
199.8000,7.66879,275.073,0.997675
199.7000,5.37794,274.181,0.987522
199.6000,0.661495,274.018,0.985662
199.5000,4.87429,274.248,0.988284
199.4000,7.34367,274.347,0.989421
199.3000,4.83291,275.092,0.997894
199.2000,2.48107,275.459,1.00207
199.1000,5.41265,274.488,0.991021
199.0000,1.84104,275.599,1.00366
198.9000,7.12189,276.772,1.01695
198.8000,6.06507,275.94,1.00753
198.7000,6.79029,276.329,1.01193
198.6000,12.9441,276.525,1.01415
198.5000,8.38169,277.92,1.02991
198.4000,6.21606,277.053,1.02013
198.3000,5.43426,277.23,1.02212
198.2000,3.53722,276.851,1.01785
198.1000,9.75682,277.7,1.02743
198.0000,13.4551,278.477,1.03619
197.9000,9.15705,279.64,1.04925
197.8000,3.65983,279.013,1.04222
197.7000,7.36798,278.793,1.03975
197.6000,11.8897,279.169,1.04396
197.5000,8.22025,279.438,1.04699
197.4000,8.43457,279.536,1.04808
197.3000,8.0042,280.197,1.0555
197.2000,8.58828,280.457,1.0584
197.1000,9.97649,278.396,1.03527
197.0000,13.233,280.757,1.06176
196.9000,7.11758,282.022,1.07587
196.8000,11.008,281.337,1.06824
196.7000,2.67938,281.381,1.06873
196.6000,10.5231,282.05,1.07618
196.5000,13.3135,280.992,1.06438
196.4000,7.23772,281.268,1.06747
196.3000,12.6949,281.568,1.07082
196.2000,7.28429,282.342,1.07944
196.1000,9.88828,282.47,1.08086
196.0000,4.72549,283.449,1.09173
195.9000,2.25061,281.648,1.0717
195.8000,7.90528,282.473,1.08089
195.7000,10.3809,282.585,1.08213
195.6000,13.4962,283.575,1.09313
195.5000,9.35555,283.432,1.09154
195.4000,8.19083,283.578,1.09316
195.3000,8.1748,284.126,1.09923
195.2000,9.42967,284.591,1.10438
195.1000,9.1713,283.503,1.09232
195.0000,10.8345,283.41,1.09129
194.9000,11.3642,284.678,1.10533
194.8000,10.1899,283.737,1.09492
194.7000,12.9727,285.083,1.10981
194.6000,11.4635,285.324,1.11247
194.5000,10.9744,283.745,1.09501
194.4000,8.2475,285.08,1.10977
194.3000,11.6983,285.291,1.1121
194.2000,11.0985,283.885,1.09657
194.1000,12.7978,284.881,1.10758
194.0000,15.5532,284.712,1.1057
193.9000,13.8869,285.729,1.11693
193.8000,8.3706,285.804,1.11775
193.7000,13.2224,286.049,1.12045
193.6000,11.7787,285.707,1.11669
193.5000,11.6582,286.424,1.12457
193.4000,8.75509,285.953,1.1194
193.3000,6.26977,285.864,1.11841
193.2000,10.9043,285.371,1.11298
193.1000,14.3215,287.908,1.14086
193.0000,10.8484,287.625,1.13775
192.9000,9.8219,286.062,1.1206
192.8000,13.0443,286.398,1.12429
192.7000,11.6751,287.06,1.13157
192.6000,12.0293,286.224,1.12238
192.5000,10.1972,287.584,1.13731
192.4000,9.15992,287.898,1.14075
192.3000,13.9324,287.713,1.13872
192.2000,12.935,287.4,1.1353
192.1000,14.5369,287.738,1.139
192.0000,10.7705,287.889,1.14065
191.9000,11.6096,287.89,1.14066
191.8000,9.09977,287.821,1.1399
191.7000,10.4811,288.293,1.14507
191.6000,9.52209,287.052,1.13148
191.5000,13.7092,287.57,1.13716
191.4000,15.0681,287.561,1.13706
191.3000,11.2651,288.051,1.14242
191.2000,8.37447,288.549,1.14787
191.1000,13.2659,287.713,1.13872
191.0000,6.19524,290.247,1.16637
190.9000,11.0898,289.154,1.15448
190.8000,14.9092,288.888,1.15157
190.7000,8.94743,288.708,1.1496
190.6000,11.1829,289.162,1.15456
190.5000,10.037,289.534,1.15861
190.4000,11.948,289.74,1.16086
190.3000,9.51863,288.927,1.15199
190.2000,14.5732,289.711,1.16054
190.1000,8.30895,289.007,1.15287
190.0000,10.3034,289.8,1.16151

##### Extended Information
[Comments]
Sample name,JN_ADProteinandAdditive
Comment,Protein and Additive
User,Jocelyn_Andrew
Division
Company,Saint Mary's College

[Detailed Information]
Creation date,9/29/2022 4:23 PM

Data array type,Linear data array * 3
Horizontal axis,Wavelength [nm]
Vertical axis(1),CD [mdeg]
Vertical axis(2),HT [V]
Vertical axis(3),Abs
Start,320 nm
End,190 nm
Data interval,0.1 nm
Data points,1301    

[Measurement Information]
Instrument name,J-1500
Model name,J-1500
Serial No.,B051061638

Detector,PM-539
Detector S/N,B051061638
  Lock-in amp.,X mode
  HT volt,Auto

Accessory,PTC-517
Accessory S/N,B026561646
  Temperature,21.47 C
  Control sensor,Holder
  Monitor sensor,Holder

Measurement date,9/29/2022 4:23 PM

CD Overload detect,1254
Photometric mode,CD, HT, Abs
Measure range,320 - 190 nm
Data pitch,0.1 nm
CD scale,20 mdeg/0.05 dOD
FL scale,20 mdeg/0.05 dOD
D.I.T.,8 msec
Bandwidth,2.00 nm
Start mode,Immediately
Scanning mode,Continuous
Scanning speed,200 nm/min
Baseline correction,None
Shutter control,Auto
No. of cycle,1/1
N2 Flowmeter,Manual

Solvent,NaPO4 buffer

