TITLE,JN_AD_Buffer
DATA TYPE,
ORIGIN,JASCO
OWNER,
DATE,22/09/29
TIME,16:31:50
SPECTROMETER/DATA SYSTEM,
LOCALE,1033
RESOLUTION,
DELTAX,-0.1
XUNITS,NANOMETERS
YUNITS,CD [mdeg]
Y2UNITS,HT [V]
Y3UNITS,ABSORBANCE
FIRSTX,  320.0000
LASTX,  190.0000
NPOINTS,    1301
FIRSTY,     0.94004
MAXY,    54.79369
MINY,   -56.55007
XYDATA
320.0000,0.940044,209.823,0.170221
319.9000,0.303491,209.485,0.165416
319.8000,1.40376,210.438,0.178962
319.7000,0.58537,208.253,0.147832
319.6000,1.57932,210.006,0.172831
319.5000,0.672991,209.348,0.163462
319.4000,0.490799,208.321,0.148805
319.3000,0.719047,210.213,0.175777
319.2000,0.468469,208.574,0.152418
319.1000,1.14171,209.482,0.165367
319.0000,0.587986,208.599,0.152775
318.9000,1.52807,208.312,0.148675
318.8000,0.121076,208.503,0.151398
318.7000,-0.328964,209.604,0.16711
318.6000,2.48919,208.609,0.15292
318.5000,0.156603,208.884,0.156853
318.4000,1.65667,209.408,0.164318
318.3000,3.02896,209.389,0.164044
318.2000,1.05213,208.821,0.155947
318.1000,1.31445,210.513,0.180022
318.0000,1.48883,209.242,0.161961
317.9000,0.885431,209.833,0.170366
317.8000,1.5362,208.444,0.150555
317.7000,0.248308,210.114,0.174361
317.6000,0.816041,209.568,0.166593
317.5000,0.592985,209.256,0.162154
317.4000,1.12067,209.939,0.171881
317.3000,1.18932,210.278,0.176694
317.2000,-0.267342,208.797,0.155607
317.1000,1.09132,208.875,0.156724
317.0000,-0.309765,209.883,0.171075
316.9000,2.59684,210.25,0.176292
316.8000,0.263034,208.676,0.153876
316.7000,1.99957,208.075,0.145286
316.6000,2.29329,209.364,0.163689
316.5000,1.92698,209.599,0.167045
316.4000,0.63568,209.641,0.167642
316.3000,1.02919,209.335,0.163285
316.2000,0.897965,207.875,0.142412
316.1000,0.137677,209.571,0.166642
316.0000,0.663009,210.055,0.173523
315.9000,1.53299,208.961,0.157953
315.8000,1.487,208.483,0.151123
315.7000,0.845093,207.244,0.133355
315.6000,1.48522,208.639,0.153341
315.5000,2.07538,208.6,0.152791
315.4000,0.95252,208.404,0.149988
315.3000,0.689703,208.974,0.15813
315.2000,1.29809,209.966,0.172268
315.1000,-0.19025,209.368,0.163753
315.0000,0.737549,209.173,0.160975
314.9000,0.609995,209.37,0.163785
314.8000,-0.742656,208.053,0.144961
314.7000,3.25723,209.246,0.162009
314.6000,0.195461,208.905,0.157144
314.5000,-1.22364,208.899,0.157063
314.4000,0.981687,208.986,0.158309
314.3000,2.46071,208.278,0.148189
314.2000,0.174698,209.602,0.167077
314.1000,-0.286512,208.478,0.151042
314.0000,-0.261964,210.42,0.178704
313.9000,0.553674,208.66,0.153649
313.8000,2.32951,209.043,0.159117
313.7000,-0.122106,208.633,0.15326
313.6000,1.41331,208.111,0.145789
313.5000,-0.17807,209.808,0.170012
313.4000,2.04757,208.24,0.147638
313.3000,-0.0644082,208.234,0.147557
313.2000,1.18936,210.223,0.175906
313.1000,1.8051,208.812,0.155818
313.0000,0.788389,208.334,0.148983
312.9000,0.0830879,209.404,0.16427
312.8000,2.19974,208.628,0.153195
312.7000,1.93628,208.072,0.145237
312.6000,1.48867,207.724,0.140252
312.5000,2.23331,209.167,0.160878
312.4000,1.43014,209.138,0.160474
312.3000,1.68061,209.38,0.163915
312.2000,0.0789791,208.552,0.152111
312.1000,0.297982,208.709,0.154345
312.0000,-1.53016,209.228,0.161751
311.9000,1.59286,209.261,0.162219
311.8000,0.751371,208.717,0.154458
311.7000,1.42075,207.664,0.13939
311.6000,3.18966,208.966,0.158017
311.5000,0.648489,208.829,0.15606
311.4000,-0.128405,208.876,0.15674
311.3000,0.171649,209.264,0.162268
311.2000,1.31531,208.56,0.152224
311.1000,1.47237,209.032,0.158955
311.0000,1.21834,208.848,0.156335
310.9000,1.05461,208.802,0.155672
310.8000,0.178025,207.338,0.134707
310.7000,-0.620765,208.961,0.157953
310.6000,1.48133,209.364,0.163689
310.5000,0.434742,208.459,0.150782
310.4000,1.00147,209.165,0.160862
310.3000,0.677401,208.08,0.145351
310.2000,0.707514,208.887,0.156885
310.1000,0.754539,208.951,0.157807
310.0000,1.73938,207.735,0.140414
309.9000,0.800122,208.401,0.14994
309.8000,1.43528,208.253,0.147832
309.7000,0.933584,208.118,0.145902
309.6000,1.32564,208.852,0.156384
309.5000,2.0898,208.974,0.15813
309.4000,0.937149,208.02,0.14449
309.3000,1.46947,209.503,0.165674
309.2000,3.06465,208.865,0.156578
309.1000,2.78376,209.156,0.160733
309.0000,1.13426,208.755,0.155009
308.9000,1.13898,209.24,0.161928
308.8000,0.0753631,208.368,0.149469
308.7000,0.782855,208.453,0.150685
308.6000,1.181,209.29,0.162639
308.5000,0.408266,208.901,0.157096
308.4000,0.748299,208.853,0.1564
308.3000,1.09132,208.887,0.156885
308.2000,0.0981069,209.083,0.159683
308.1000,1.6784,208.437,0.150458
308.0000,1.48374,208.41,0.150069
307.9000,3.23021,210.157,0.174972
307.8000,0.871037,207.945,0.143419
307.7000,1.01782,208.833,0.156125
307.6000,0.747205,208.428,0.150329
307.5000,0.873689,208.637,0.153325
307.4000,0.592229,209.251,0.16209
307.3000,1.6535,208.999,0.158486
307.2000,0.880901,209.621,0.167352
307.1000,1.05836,207.899,0.142753
307.0000,1.41953,209.071,0.159521
306.9000,1.28925,209.332,0.163237
306.8000,1.75043,208.241,0.147654
306.7000,-0.426292,207.786,0.141145
306.6000,-0.527284,209.197,0.161315
306.5000,1.56791,209.475,0.165271
306.4000,1.55965,208.35,0.14921
306.3000,1.51499,207.917,0.143013
306.2000,1.26018,207.075,0.130929
306.1000,0.549186,208.965,0.158001
306.0000,1.01336,209.821,0.170205
305.9000,1.61557,206.208,0.118444
305.8000,1.05598,208.529,0.151771
305.7000,2.03663,208.774,0.155284
305.6000,-0.284529,208.488,0.151187
305.5000,0.554665,209.506,0.165722
305.4000,1.82408,208.661,0.153665
305.3000,0.703151,209.335,0.163285
305.2000,0.857364,208.676,0.153876
305.1000,-0.769436,208.983,0.15826
305.0000,1.19383,208.589,0.152629
304.9000,0.641335,208.603,0.152839
304.8000,1.61437,207.443,0.13622
304.7000,1.63688,208.212,0.147248
304.6000,0.771538,211.005,0.187007
304.5000,1.37675,209.997,0.172702
304.4000,1.27664,208.543,0.151981
304.3000,0.44918,208.063,0.145107
304.2000,-1.16666,208.234,0.147557
304.1000,0.861488,209.093,0.159828
304.0000,1.81345,207.703,0.139943
303.9000,1.02404,208.807,0.155753
303.8000,0.110597,209.094,0.159844
303.7000,0.856653,208.956,0.157872
303.6000,0.426212,209.035,0.159004
303.5000,1.89285,209.807,0.169996
303.4000,0.790227,207.828,0.141746
303.3000,0.165323,208.538,0.1519
303.2000,0.377063,207.999,0.144198
303.1000,0.196487,208.061,0.145075
303.0000,1.05548,209.554,0.1664
302.9000,0.547601,209.076,0.159585
302.8000,1.31327,208.731,0.154669
302.7000,1.21909,209.213,0.161541
302.6000,-0.207855,208.327,0.148886
302.5000,-0.887183,208.794,0.155559
302.4000,0.573336,208.336,0.149016
302.3000,1.0179,209.055,0.159295
302.2000,0.0161591,208.737,0.15475
302.1000,1.39501,208.659,0.153633
302.0000,1.84664,208.646,0.153455
301.9000,-1.05833,209.402,0.164237
301.8000,0.706808,208.577,0.152467
301.7000,-0.371642,208.503,0.151398
301.6000,2.41932,208.852,0.156384
301.5000,1.47232,208.601,0.152807
301.4000,1.19491,208.513,0.151544
301.3000,3.57466,208.583,0.152548
301.2000,0.240812,208.094,0.145545
301.1000,1.18678,208.889,0.156918
301.0000,0.280278,207.127,0.131678
300.9000,1.50151,208.832,0.156109
300.8000,3.33748,207.939,0.143338
300.7000,-0.117141,208.285,0.148286
300.6000,1.04039,208.343,0.149113
300.5000,1.32738,208.733,0.154685
300.4000,-1.61468,208.701,0.154232
300.3000,0.364963,208.442,0.150539
300.2000,3.18784,208.702,0.154248
300.1000,1.41795,208.531,0.151803
300.0000,1.99862,207.442,0.136203
299.9000,1.5559,207.714,0.140105
299.8000,0.494129,208.284,0.14827
299.7000,-0.192432,207.965,0.143711
299.6000,1.13875,208.842,0.156254
299.5000,1.3635,208.09,0.145496
299.4000,0.819483,208.071,0.145221
299.3000,0.60873,208.446,0.150588
299.2000,0.67344,208.086,0.145432
299.1000,-2.79143,208.222,0.147378
299.0000,1.87642,207.559,0.137879
298.9000,0.991508,208.021,0.144506
298.8000,1.22496,208.582,0.152532
298.7000,-0.385722,208.541,0.151949
298.6000,1.65601,208.438,0.150474
298.5000,0.603405,207.759,0.140755
298.4000,0.717322,208.849,0.156351
298.3000,-0.270725,208.861,0.156513
298.2000,1.66206,207.332,0.134625
298.1000,1.16289,207.464,0.136512
298.0000,1.40154,206.125,0.117251
297.9000,0.232647,206.715,0.125745
297.8000,-0.681786,208.488,0.151187
297.7000,0.599866,207.938,0.143322
297.6000,1.52255,208.317,0.14874
297.5000,0.498816,208.078,0.145318
297.4000,2.84941,207.769,0.140902
297.3000,1.1332,208.864,0.156562
297.2000,3.27384,209.096,0.159876
297.1000,0.216771,207.329,0.134576
297.0000,0.592161,207.893,0.142672
296.9000,-0.175085,207.784,0.141113
296.8000,-0.391039,207.177,0.132395
296.7000,0.215368,208.211,0.147232
296.6000,0.258954,208.274,0.148124
296.5000,0.77783,207.856,0.142136
296.4000,2.46853,207.751,0.140642
296.3000,-1.28629,208.035,0.144701
296.2000,-0.0223124,208.516,0.151592
296.1000,1.30676,207.555,0.13783
296.0000,1.91701,207.783,0.141097
295.9000,1.11322,207.759,0.140755
295.8000,-0.204672,207.573,0.13809
295.7000,1.12456,208.074,0.145269
295.6000,2.05771,208.479,0.151058
295.5000,0.951869,207.798,0.141308
295.4000,0.787452,207.537,0.13757
295.3000,0.303435,208.108,0.145756
295.2000,2.37316,208.319,0.148773
295.1000,1.81251,208.048,0.144896
295.0000,0.972437,208.818,0.155899
294.9000,1.9988,207.758,0.140739
294.8000,1.24462,208.993,0.158406
294.7000,-0.938233,209.097,0.159893
294.6000,1.99151,208.907,0.157177
294.5000,2.00579,207.553,0.137797
294.4000,1.09271,207.311,0.134316
294.3000,0.13628,208.867,0.15661
294.2000,0.123077,207.944,0.143403
294.1000,-0.828723,208.968,0.15805
294.0000,0.958928,208.85,0.156368
293.9000,0.702983,207.97,0.143776
293.8000,1.13262,207.995,0.144133
293.7000,-0.263875,209.054,0.159279
293.6000,2.06185,208.189,0.146908
293.5000,1.40525,208.559,0.152208
293.4000,1.46625,208.081,0.145367
293.3000,0.967756,208.147,0.146308
293.2000,1.1,207.878,0.142461
293.1000,0.965478,208.06,0.145058
293.0000,1.68424,207.281,0.133893
292.9000,2.34651,207.5,0.137033
292.8000,1.66034,205.489,0.108049
292.7000,0.580439,208.241,0.147654
292.6000,-0.0403234,208.254,0.147848
292.5000,1.77795,207.414,0.135797
292.4000,1.38756,207.425,0.135959
292.3000,2.05879,207.909,0.142899
292.2000,0.317061,206.853,0.127734
292.1000,1.20309,207.339,0.134723
292.0000,-0.693167,208.748,0.154912
291.9000,2.14951,206.824,0.127327
291.8000,0.519281,206.831,0.127424
291.7000,-0.0312937,207.356,0.134967
291.6000,0.872131,206.977,0.129527
291.5000,1.99433,208.151,0.146372
291.4000,0.731842,207.905,0.142851
291.3000,2.9396,207.976,0.143857
291.2000,0.925106,209.161,0.160797
291.1000,0.800934,207.183,0.132476
291.0000,1.27641,207.664,0.13939
290.9000,0.489036,207.997,0.144166
290.8000,1.2637,206.813,0.127164
290.7000,1.52756,208.142,0.146243
290.6000,-0.388582,206.758,0.126364
290.5000,1.54987,207.658,0.139309
290.4000,1.89955,207.452,0.13635
290.3000,0.0217307,207.483,0.136789
290.2000,1.34944,207.914,0.14298
290.1000,1.73504,207.045,0.130505
290.0000,1.09418,207.936,0.143289
289.9000,1.11238,206.75,0.12625
289.8000,1.08524,207.777,0.141015
289.7000,1.10982,208.251,0.1478
289.6000,-0.884047,208.125,0.146
289.5000,1.13014,208.091,0.145513
289.4000,-0.337408,208.844,0.156271
289.3000,1.68658,208.123,0.145967
289.2000,1.06699,208.384,0.149696
289.1000,1.40037,207.231,0.133176
289.0000,1.20071,207.758,0.140739
288.9000,1.13623,207.729,0.140317
288.8000,1.55432,208.144,0.146275
288.7000,-1.20764,208.487,0.151171
288.6000,1.01988,208.547,0.15203
288.5000,1.64868,208.64,0.153357
288.4000,1.29757,208.337,0.149032
288.3000,-0.571865,210.135,0.174666
288.2000,-0.105943,208.071,0.145221
288.1000,0.118819,207.64,0.139049
288.0000,0.785177,208.892,0.156966
287.9000,2.91262,207.945,0.143419
287.8000,0.134514,207.825,0.141698
287.7000,1.61897,207.441,0.136187
287.6000,2.6651,207.13,0.131727
287.5000,-0.0923636,208.296,0.148448
287.4000,1.25712,206.835,0.127473
287.3000,1.61051,207.84,0.141909
287.2000,1.4934,208.679,0.153924
287.1000,0.637996,208.433,0.15041
287.0000,0.302777,208.19,0.146924
286.9000,0.453989,208.021,0.144506
286.8000,1.7429,207.749,0.140609
286.7000,1.00542,208.627,0.153179
286.6000,-0.0463644,208.174,0.146697
286.5000,0.758802,208.319,0.148773
286.4000,2.25455,208.124,0.145983
286.3000,1.33326,208.222,0.147378
286.2000,0.454925,208.966,0.158017
286.1000,2.38863,207.217,0.132965
286.0000,2.08122,207.588,0.138301
285.9000,0.498545,207.934,0.143257
285.8000,0.774782,207.139,0.131857
285.7000,1.41117,209.061,0.159376
285.6000,1.67866,208.959,0.15792
285.5000,1.78341,208.397,0.149891
285.4000,0.618871,208.011,0.14436
285.3000,0.240037,208.244,0.147703
285.2000,0.197028,207.854,0.14212
285.1000,0.325893,209.094,0.159844
285.0000,2.10857,207.81,0.141486
284.9000,0.853357,208.696,0.154167
284.8000,0.471516,209.441,0.164786
284.7000,1.09094,208.155,0.146421
284.6000,1.06872,208.297,0.148465
284.5000,2.59193,208.956,0.157872
284.4000,0.0730722,208.864,0.156562
284.3000,1.84777,208.045,0.144847
284.2000,0.868804,208.031,0.144653
284.1000,1.79988,209.41,0.16435
284.0000,2.48348,208.209,0.1472
283.9000,-0.115982,207.7,0.139911
283.8000,1.02539,207.128,0.131695
283.7000,-0.330187,208.202,0.147102
283.6000,1.29053,207.44,0.136171
283.5000,-0.699361,208.402,0.149956
283.4000,1.71345,207.109,0.131417
283.3000,-1.058,207.099,0.131271
283.2000,0.914628,207.413,0.13578
283.1000,-0.866924,208.18,0.146778
283.0000,1.28593,208.427,0.150312
282.9000,2.58349,209.425,0.16456
282.8000,0.488502,208.575,0.152434
282.7000,-1.42137,208.898,0.157047
282.6000,2.50458,207.995,0.144133
282.5000,0.595182,207.925,0.143127
282.4000,1.08727,208.13,0.146064
282.3000,0.776246,208.325,0.148854
282.2000,0.690785,208.378,0.149615
282.1000,0.399489,209.031,0.158939
282.0000,-0.188255,208.697,0.154183
281.9000,1.49821,208.05,0.144928
281.8000,1.4866,208.21,0.147216
281.7000,1.23197,208.47,0.150928
281.6000,0.415393,208.208,0.147183
281.5000,1.19928,208.541,0.151949
281.4000,0.144059,208.174,0.146697
281.3000,-0.800815,208.41,0.150069
281.2000,-0.314108,208.269,0.148059
281.1000,0.69491,208.203,0.147119
281.0000,0.403409,208.456,0.150734
280.9000,1.11349,208.303,0.148546
280.8000,-0.402011,208.372,0.149534
280.7000,-2.51143,208.548,0.152046
280.6000,-0.192832,208.821,0.155947
280.5000,1.22152,207.893,0.142672
280.4000,0.963823,208.75,0.154928
280.3000,0.129963,208.237,0.147605
280.2000,0.935644,208.285,0.148286
280.1000,0.752913,208.358,0.149324
280.0000,1.25056,208.3,0.148497
279.9000,0.532069,208.378,0.149615
279.8000,0.839251,208.458,0.150766
279.7000,0.939764,208.804,0.155704
279.6000,1.80426,208.542,0.151965
279.5000,0.694653,208.924,0.157419
279.4000,1.02905,207.916,0.142997
279.3000,0.658593,210.014,0.172944
279.2000,1.6542,208.344,0.149129
279.1000,1.27768,207.643,0.139081
279.0000,-0.729671,208.1,0.145642
278.9000,1.15273,208.892,0.156966
278.8000,1.73853,206.994,0.129772
278.7000,-0.198544,208.6,0.152791
278.6000,1.50959,208.757,0.155041
278.5000,-0.53808,208.687,0.154037
278.4000,1.16719,208.197,0.147021
278.3000,0.815622,208.215,0.147281
278.2000,0.434422,209.02,0.158794
278.1000,0.497807,209.732,0.168932
278.0000,1.12507,208.772,0.155251
277.9000,0.913943,208.532,0.151819
277.8000,1.07347,208.269,0.148059
277.7000,0.0793128,208.771,0.155235
277.6000,0.0882012,208.404,0.149988
277.5000,0.426794,208.929,0.157484
277.4000,-0.81133,208.277,0.148173
277.3000,0.850445,208.22,0.147362
277.2000,1.72799,207.921,0.143078
277.1000,1.07694,208.524,0.151706
277.0000,0.700467,209.026,0.158874
276.9000,2.88722,208.954,0.15784
276.8000,0.538909,207.296,0.134104
276.7000,-0.79633,208.704,0.15428
276.6000,1.48683,209.105,0.160006
276.5000,2.34024,208.942,0.157678
276.4000,2.22298,209.058,0.159327
276.3000,0.472451,209.757,0.169287
276.2000,0.963743,209.763,0.169367
276.1000,0.395097,209.389,0.164044
276.0000,1.7849,208.684,0.153989
275.9000,-0.357864,207.944,0.143403
275.8000,-0.0992239,208.705,0.154296
275.7000,-0.0837541,208.401,0.14994
275.6000,0.166092,208.937,0.157597
275.5000,1.78034,208.394,0.149842
275.4000,-0.779951,208.776,0.1553
275.3000,0.0102025,207.113,0.131483
275.2000,0.224345,208.376,0.149583
275.1000,0.20738,208.564,0.152273
275.0000,0.445436,209.023,0.158826
274.9000,0.0492793,208.492,0.151252
274.8000,0.850936,209.814,0.170093
274.7000,-0.367627,210.693,0.182577
274.6000,-0.354876,207.611,0.138626
274.5000,-0.338812,207.611,0.138626
274.4000,0.0580838,208.778,0.155332
274.3000,0.320896,207.829,0.141762
274.2000,0.316664,208.668,0.153762
274.1000,-0.682636,207.55,0.137748
274.0000,0.0748821,208.197,0.147021
273.9000,-0.320305,208.874,0.156707
273.8000,2.99242,208.999,0.158486
273.7000,-0.0559835,207.995,0.144133
273.6000,1.34246,208.381,0.149664
273.5000,1.66391,208.575,0.152434
273.4000,1.97166,207.188,0.132557
273.3000,-0.358608,208.173,0.146681
273.2000,0.948901,206.814,0.12718
273.1000,-0.915968,208.862,0.15653
273.0000,0.659854,208.828,0.156044
272.9000,2.6007,209.174,0.160992
272.8000,0.087511,209.026,0.158874
272.7000,0.881816,207.835,0.141844
272.6000,-0.00234445,209.237,0.16188
272.5000,-1.49782,208.784,0.155413
272.4000,1.1413,209.272,0.162381
272.3000,-1.39559,208.767,0.15517
272.2000,0.77151,208.955,0.157856
272.1000,1.30041,208.586,0.152596
272.0000,-1.43148,208.991,0.158373
271.9000,1.03386,208.696,0.154167
271.8000,1.16847,208.882,0.156821
271.7000,0.995118,208.918,0.157338
271.6000,-0.0607672,208.984,0.158276
271.5000,1.04607,208.293,0.1484
271.4000,0.496902,208.93,0.1575
271.3000,1.9648,209.139,0.160491
271.2000,0.43736,208.242,0.14767
271.1000,0.973476,209.225,0.161719
271.0000,0.499812,209.477,0.165303
270.9000,0.563091,209.285,0.162574
270.8000,0.776854,209.018,0.158761
270.7000,0.436158,208.476,0.151025
270.6000,-0.0130691,209.533,0.166093
270.5000,0.508144,209.706,0.168561
270.4000,0.766103,209.204,0.161412
270.3000,-0.00518239,209.058,0.159327
270.2000,1.00715,208.396,0.149875
270.1000,0.138501,208.673,0.153827
270.0000,0.886445,208.624,0.153131
269.9000,0.37943,208.554,0.152127
269.8000,-0.0908642,209.693,0.168384
269.7000,-1.90884,209.735,0.16898
269.6000,0.153422,209.637,0.167577
269.5000,0.601419,209.411,0.164367
269.4000,1.75179,208.527,0.151754
269.3000,0.365035,209.262,0.162235
269.2000,-0.297701,208.745,0.154863
269.1000,1.37458,208.308,0.148611
269.0000,-0.0544292,209.163,0.16083
268.9000,1.42825,209.45,0.164915
268.8000,1.26754,209.585,0.166835
268.7000,-0.319487,209.527,0.166013
268.6000,0.3783,210.744,0.1833
268.5000,-0.817156,209.01,0.158648
268.4000,0.869098,210.1,0.174167
268.3000,1.42041,208.608,0.152904
268.2000,0.122158,208.538,0.1519
268.1000,0.878027,208.189,0.146908
268.0000,0.795103,209.552,0.166368
267.9000,0.272849,209.118,0.160184
267.8000,0.836523,209.164,0.160846
267.7000,1.23024,210.33,0.177434
267.6000,-0.572515,208.704,0.15428
267.5000,-1.27584,209.161,0.160797
267.4000,1.16754,210.923,0.185836
267.3000,0.258728,208.728,0.15462
267.2000,1.41895,209.896,0.171269
267.1000,0.554932,209.024,0.158842
267.0000,1.07815,209.42,0.164496
266.9000,0.615447,209.639,0.16761
266.8000,-0.331645,209.508,0.165739
266.7000,-0.582877,210.298,0.176983
266.6000,-0.919316,209.321,0.163075
266.5000,0.506304,209.862,0.170785
266.4000,-1.0223,209.255,0.162138
266.3000,1.10724,209.913,0.17151
266.2000,1.88641,209.67,0.168045
266.1000,-0.348646,208.799,0.15564
266.0000,-0.29855,209.547,0.166303
265.9000,0.705996,210.089,0.174006
265.8000,0.773529,209.787,0.169722
265.7000,-0.386897,210.322,0.177321
265.6000,0.241977,210.368,0.177965
265.5000,0.368102,209.632,0.167513
265.4000,0.0997914,210.728,0.183075
265.3000,-0.105544,209.953,0.172074
265.2000,1.89717,208.947,0.157743
265.1000,1.37291,209.826,0.17027
265.0000,0.356697,210.593,0.181163
264.9000,-0.24664,210.22,0.175873
264.8000,-1.03188,209.94,0.171897
264.7000,2.19761,209.092,0.159812
264.6000,1.56008,210.064,0.173652
264.5000,-0.0661927,209.059,0.159343
264.4000,0.640077,209.97,0.172316
264.3000,-0.25477,209.198,0.161331
264.2000,0.184891,210.53,0.180264
264.1000,0.104036,210.34,0.177579
264.0000,0.377664,208.971,0.158082
263.9000,1.02812,211.095,0.188274
263.8000,-0.327807,209.508,0.165739
263.7000,-0.100045,211.493,0.193898
263.6000,-0.992698,209.825,0.170254
263.5000,0.411715,210.038,0.173282
263.4000,0.772874,210.216,0.175809
263.3000,-0.41239,210.575,0.180906
263.2000,1.20826,210.966,0.186446
263.1000,-0.310194,210.553,0.180601
263.0000,0.267108,209.828,0.170302
262.9000,1.49071,209.785,0.16969
262.8000,0.549906,211.123,0.188675
262.7000,-0.877656,210.46,0.179283
262.6000,2.67112,210.342,0.177595
262.5000,2.63469,210.764,0.183589
262.4000,1.67027,210.622,0.181581
262.3000,1.07055,210.618,0.181517
262.2000,0.828889,210.466,0.179364
262.1000,-1.27203,210.553,0.180601
262.0000,-0.690212,209.997,0.172702
261.9000,-0.0449705,210.481,0.179572
261.8000,0.511162,210.334,0.177482
261.7000,0.737251,210.174,0.175214
261.6000,1.94118,211.086,0.188146
261.5000,0.579691,210.981,0.186654
261.4000,1.59173,210.124,0.174505
261.3000,0.725694,210.595,0.181196
261.2000,1.64805,210.126,0.174538
261.1000,-0.3823,210.744,0.1833
261.0000,0.938803,210.728,0.183075
260.9000,0.126448,210.791,0.183974
260.8000,0.177079,211.451,0.193306
260.7000,0.370866,210.508,0.179958
260.6000,1.59031,210.644,0.181886
260.5000,1.6804,210.791,0.183974
260.4000,0.746522,211.067,0.187873
260.3000,-0.0831773,211.101,0.188354
260.2000,-0.0781269,211.018,0.187183
260.1000,-0.495828,210.262,0.176469
260.0000,-0.708784,210.948,0.186189
259.9000,-1.36481,212.604,0.209571
259.8000,-0.184139,211.183,0.189525
259.7000,1.13212,210.922,0.18582
259.6000,-0.824006,211.197,0.189717
259.5000,-0.1268,211.087,0.188162
259.4000,0.938028,211.541,0.194587
259.3000,-0.0531674,211.333,0.19164
259.2000,1.18742,211.595,0.195339
259.1000,0.00843017,211.958,0.200473
259.0000,-0.705802,210.974,0.186558
258.9000,1.06244,211.316,0.1914
258.8000,-0.192989,211.038,0.187472
258.7000,2.06387,211.851,0.198954
258.6000,1.03697,211.912,0.199817
258.5000,1.08045,211.686,0.196635
258.4000,0.991728,211.623,0.195739
258.3000,1.05448,212.976,0.214796
258.2000,1.74761,211.754,0.197595
258.1000,1.66581,211.597,0.195371
258.0000,0.42664,211.253,0.190503
257.9000,0.540333,211.524,0.194347
257.8000,0.0830228,211.836,0.198746
257.7000,-0.987834,211.616,0.195643
257.6000,-0.377126,211.766,0.197755
257.5000,1.94334,211.829,0.19865
257.4000,0.00705754,211.783,0.197995
257.3000,1.19823,211.189,0.189605
257.2000,0.258215,211.899,0.199642
257.1000,0.901868,211.946,0.200297
257.0000,-0.125072,212.426,0.207067
256.9000,-0.0215819,213.021,0.215433
256.8000,-1.09317,212.831,0.212758
256.7000,0.555821,212.511,0.208264
256.6000,-1.39566,211.607,0.195515
256.5000,1.46544,212.094,0.20239
256.4000,0.507053,211.831,0.198682
256.3000,-0.619202,212.763,0.211802
256.2000,-1.04416,212.177,0.203556
256.1000,0.441964,212.875,0.213379
256.0000,-0.255306,211.578,0.195099
255.9000,-0.238766,212.745,0.211547
255.8000,0.0438481,212.151,0.203189
255.7000,0.115923,212.644,0.210129
255.6000,0.0271583,212.251,0.204594
255.5000,0.375227,212.731,0.211356
255.4000,0.423598,212.806,0.212408
255.3000,-0.469851,212.408,0.206812
255.2000,-0.451644,212.662,0.210384
255.1000,1.59257,212.179,0.203588
255.0000,-0.0705349,213.258,0.218758
254.9000,0.14274,214.061,0.230015
254.8000,0.00174715,212.661,0.210368
254.7000,0.230031,212.747,0.211579
254.6000,1.23302,212.315,0.205503
254.5000,0.86163,212.815,0.212535
254.4000,1.14879,212.686,0.210719
254.3000,0.632216,212.614,0.209714
254.2000,0.220205,212.639,0.210065
254.1000,-0.717877,212.602,0.209539
254.0000,-0.632992,212.52,0.208391
253.9000,1.0493,213.008,0.215242
253.8000,0.949026,212.642,0.210097
253.7000,0.368306,213.263,0.218821
253.6000,-0.00425684,212.438,0.207227
253.5000,0.0998657,212.454,0.20745
253.4000,0.736181,212.553,0.208853
253.3000,-0.802277,213.598,0.223525
253.2000,0.0191407,212.895,0.213666
253.1000,1.68084,213.703,0.225002
253.0000,1.18859,213.727,0.225335
252.9000,0.0201261,214.367,0.234292
252.8000,0.430229,213.293,0.219251
252.7000,0.356627,213.772,0.22597
252.6000,-0.432498,212.695,0.210846
252.5000,2.38624,213.523,0.222477
252.4000,1.08173,213.896,0.227699
252.3000,-0.810233,214.592,0.237426
252.2000,0.969461,213.121,0.216833
252.1000,1.66473,213.537,0.222668
252.0000,0.570824,212.84,0.212885
251.9000,0.524733,213.86,0.227192
251.8000,0.399742,214.997,0.243085
251.7000,0.835711,214.052,0.229888
251.6000,-0.35881,213.447,0.221412
251.5000,0.0452718,213.631,0.223986
251.4000,-1.18379,214.526,0.236508
251.3000,0.23512,213.61,0.2237
251.2000,-0.51802,213.786,0.226161
251.1000,0.568884,214.409,0.234878
251.0000,-0.481342,214.841,0.240905
250.9000,0.886962,213.929,0.228159
250.8000,0.138932,214.506,0.236224
250.7000,0.596945,212.57,0.209093
250.6000,0.0158682,214.012,0.229317
250.5000,1.88401,213.929,0.228159
250.4000,0.530083,212.602,0.209539
250.3000,0.88555,213.805,0.22643
250.2000,-0.627864,215.011,0.243275
250.1000,-0.11265,215.054,0.243875
250.0000,0.817491,214.67,0.238518
249.9000,0.770958,214.052,0.229888
249.8000,-0.627787,215.497,0.250045
249.7000,-0.839248,215.72,0.253149
249.6000,0.0173479,214.277,0.233025
249.5000,-0.0439067,214.064,0.230046
249.4000,0.53305,215.089,0.244365
249.3000,-0.912894,214.666,0.23847
249.2000,0.2281,215.274,0.246937
249.1000,-1.07196,214.741,0.239514
249.0000,0.277316,214.716,0.239166
248.9000,2.63675,213.179,0.217645
248.8000,1.50507,216.556,0.264755
248.7000,0.455697,214.66,0.238375
248.6000,-2.27581,214.689,0.238786
248.5000,0.0988394,215.137,0.245028
248.4000,-1.24238,214.563,0.237031
248.3000,0.647693,214.759,0.239767
248.2000,-1.58835,215.019,0.243385
248.1000,0.318824,214.747,0.239593
248.0000,0.111862,215.379,0.248405
247.9000,0.296315,215.231,0.246338
247.8000,-1.14787,215.227,0.24629
247.7000,-1.7034,213.932,0.228207
247.6000,-1.10674,215.797,0.25422
247.5000,-0.446903,215.047,0.24378
247.4000,1.27508,215.031,0.243559
247.3000,0.368948,214.766,0.239862
247.2000,2.13479,214.638,0.238075
247.1000,-1.90106,215.78,0.253984
247.0000,2.1581,215.775,0.253905
246.9000,0.503,216.131,0.258862
246.8000,-0.394009,215.865,0.255165
246.7000,-1.78405,215.137,0.245028
246.6000,1.13952,217.406,0.276513
246.5000,-0.345637,215.322,0.247616
246.4000,-1.05539,215.347,0.247963
246.3000,-0.424311,215.09,0.24438
246.2000,-1.11798,215.602,0.25151
246.1000,0.417152,216.3,0.261205
246.0000,-1.95698,215.321,0.2476
245.9000,-1.9486,216.392,0.262478
245.8000,-1.57003,216.551,0.264677
245.7000,-2.52534,215.707,0.25296
245.6000,-0.716766,215.087,0.244333
245.5000,-1.42931,215.13,0.244933
245.4000,-1.76325,217.159,0.273099
245.3000,-1.16546,216.998,0.270874
245.2000,-1.37154,215.847,0.254913
245.1000,-0.503055,216,0.257038
245.0000,-0.992404,215.932,0.256094
244.9000,-2.21353,215.54,0.250643
244.8000,-0.92688,216.528,0.264363
244.7000,-0.0549651,217.012,0.271062
244.6000,-2.22566,216.027,0.257415
244.5000,-2.86591,215.802,0.254283
244.4000,-2.64916,216.546,0.264614
244.3000,-2.72044,216.612,0.265525
244.2000,-3.21229,215.452,0.249414
244.1000,-2.14959,216.53,0.264394
244.0000,-0.607736,216.757,0.267534
243.9000,-3.38903,215.886,0.255448
243.8000,-2.46273,218.429,0.290619
243.7000,-1.77393,216.578,0.265054
243.6000,-2.35214,217.125,0.272629
243.5000,-3.36806,216.93,0.269933
243.4000,-2.96914,217.867,0.282877
243.3000,-1.58785,217.444,0.277029
243.2000,-1.86198,217.029,0.271297
243.1000,-4.41168,218.472,0.291211
243.0000,-2.15203,217.896,0.283268
242.9000,-3.67602,217.634,0.279657
242.8000,-2.8508,216.695,0.26667
242.7000,-1.77212,217.686,0.280377
242.6000,-3.08254,218.753,0.295075
242.5000,-3.73112,218.857,0.296492
242.4000,-3.31635,217.992,0.284596
242.3000,-4.94533,218.587,0.292785
242.2000,-2.80778,218.551,0.292287
242.1000,-2.03231,218.049,0.285376
242.0000,-1.70389,217.812,0.282112
241.9000,-4.12575,218.381,0.289948
241.8000,-3.223,217.535,0.278297
241.7000,-2.09286,218.182,0.287218
241.6000,-2.45033,218.677,0.294031
241.5000,-2.38576,218.699,0.294327
241.4000,-4.56074,218.636,0.293455
241.3000,-4.17893,218.586,0.29277
241.2000,-2.86257,218.743,0.294935
241.1000,-4.62626,218.874,0.296725
241.0000,-2.70282,219.054,0.299199
240.9000,-4.23931,219.67,0.307651
240.8000,-3.55606,219.145,0.300459
240.7000,-5.55438,218.809,0.295838
240.6000,-3.64252,219.701,0.30807
240.5000,-5.25204,219.528,0.30571
240.4000,-7.07579,220.059,0.31297
240.3000,-6.00498,219.468,0.304888
240.2000,-4.45005,219.595,0.306626
240.1000,-6.63115,219.45,0.304639
240.0000,-7.25957,220.676,0.321405
239.9000,-7.27092,219.749,0.308737
239.8000,-7.08609,220.715,0.321931
239.7000,-6.18423,219.943,0.311389
239.6000,-7.07702,220.981,0.325561
239.5000,-4.3805,220.641,0.320926
239.4000,-6.60698,220.592,0.320261
239.3000,-4.73614,220.604,0.320415
239.2000,-7.02839,221.622,0.334291
239.1000,-8.00147,221.239,0.32908
239.0000,-7.18005,221.055,0.326565
238.9000,-7.82447,221.45,0.331949
238.8000,-7.6787,221.993,0.339325
238.7000,-8.5187,220.681,0.321467
238.6000,-8.74073,221.626,0.334338
238.5000,-7.86362,220.216,0.315123
238.4000,-9.61995,222.716,0.349128
238.3000,-6.69436,222.043,0.340002
238.2000,-8.89663,222.469,0.345781
238.1000,-8.76483,221.993,0.339325
238.0000,-11.3766,222.64,0.348099
237.9000,-9.27825,223.215,0.355888
237.8000,-10.9531,222.924,0.35195
237.7000,-11.0335,222.922,0.351919
237.6000,-8.91764,222.973,0.352609
237.5000,-9.35738,223.042,0.353544
237.4000,-9.95402,223.237,0.356179
237.3000,-9.91633,222.874,0.351275
237.2000,-11.2223,223.551,0.360418
237.1000,-13.9751,224.492,0.373107
237.0000,-13.8031,224.602,0.374585
236.9000,-12.9819,225.22,0.38288
236.8000,-13.2404,224.838,0.377753
236.7000,-12.542,225.124,0.381587
236.6000,-10.9779,225.653,0.388682
236.5000,-13.979,224.66,0.375362
236.4000,-13.2397,224.637,0.375057
236.3000,-13.6776,225.698,0.389289
236.2000,-14.0572,226.592,0.401243
236.1000,-13.8434,224.915,0.378788
236.0000,-11.9416,224.49,0.373076
235.9000,-13.818,225.182,0.382378
235.8000,-14.1131,225.878,0.391701
235.7000,-14.083,226.65,0.402015
235.6000,-14.9226,226.472,0.39964
235.5000,-15.2655,226.472,0.39964
235.4000,-15.7225,226.698,0.402665
235.3000,-15.4894,227.297,0.41064
235.2000,-17.6523,227.26,0.410157
235.1000,-14.7853,227.681,0.415751
235.0000,-15.9301,227.398,0.411982
234.9000,-17.4636,226.803,0.404056
234.8000,-18.2041,227.536,0.413822
234.7000,-18.082,227.006,0.40676
234.6000,-17.415,228.57,0.427559
234.5000,-17.2785,228.508,0.426733
234.4000,-20.6261,227.718,0.416248
234.3000,-17.8955,229.591,0.441066
234.2000,-18.8333,229.799,0.443803
234.1000,-17.0866,229.012,0.433411
234.0000,-18.8333,228.046,0.420599
233.9000,-20.8841,229.01,0.433382
233.8000,-19.8499,229.648,0.441814
233.7000,-20.5522,230.49,0.452912
233.6000,-21.1242,230.617,0.454582
233.5000,-22.6967,231.206,0.462326
233.4000,-21.7865,230.021,0.446732
233.3000,-22.3663,230.331,0.450823
233.2000,-21.7029,230.466,0.452599
233.1000,-22.5112,229.933,0.445582
233.0000,-23.5296,231.257,0.462996
232.9000,-22.3805,231.324,0.463873
232.8000,-23.1618,232.026,0.473081
232.7000,-22.8575,231.98,0.472473
232.6000,-21.8946,232.183,0.475128
232.5000,-23.7633,233.632,0.49404
232.4000,-23.3849,231.607,0.467589
232.3000,-23.6098,231.25,0.462906
232.2000,-23.5616,231.487,0.466014
232.1000,-26.8876,232.851,0.483864
232.0000,-26.5379,231.968,0.472325
231.9000,-27.5663,233.889,0.497386
231.8000,-28.4666,232.069,0.473645
231.7000,-26.2312,233.823,0.496532
231.6000,-26.8709,233.542,0.492875
231.5000,-27.7172,234.053,0.499522
231.4000,-27.1002,233.359,0.490484
231.3000,-28.2713,234.33,0.503114
231.2000,-28.4137,234.731,0.508319
231.1000,-28.4607,235.53,0.518662
231.0000,-28.3354,234.477,0.505026
230.9000,-30.1402,234.871,0.51014
230.8000,-27.5525,235.236,0.514866
230.7000,-28.65,235.822,0.52244
230.6000,-29.5066,235.819,0.522396
230.5000,-30.7808,235.594,0.519497
230.4000,-31.2101,236.2,0.527325
230.3000,-30.0016,235.787,0.521986
230.2000,-30.4571,237.261,0.54098
230.1000,-31.7474,235.824,0.522469
230.0000,-33.6128,234.769,0.508818
229.9000,-30.5066,237.127,0.539262
229.8000,-34.7402,238.076,0.551436
229.7000,-35.6697,237.616,0.545536
229.6000,-34.9154,237.17,0.539815
229.5000,-32.668,236.279,0.528333
229.4000,-35.2537,238.123,0.552046
229.3000,-35.3831,237.525,0.544372
229.2000,-32.4324,237.871,0.548807
229.1000,-36.1609,238.453,0.556268
229.0000,-37.3402,238.247,0.553628
228.9000,-36.0663,238.896,0.561934
228.8000,-35.4229,239.517,0.569861
228.7000,-35.4137,239.703,0.572229
228.6000,-35.9324,239.056,0.563975
228.5000,-36.2985,238.842,0.561239
228.4000,-38.0076,239.92,0.575001
228.3000,-38.6241,240.311,0.579975
228.2000,-38.2746,240.404,0.581157
228.1000,-37.4723,239.824,0.573774
228.0000,-40.9714,241.136,0.59045
227.9000,-39.5837,239.892,0.57464
227.8000,-38.4619,241.556,0.595778
227.7000,-37.1798,242.418,0.606666
227.6000,-40.6839,242.354,0.605864
227.5000,-40.2864,242.022,0.60167
227.4000,-41.351,242.161,0.603431
227.3000,-40.7655,241.146,0.59058
227.2000,-40.6208,243.373,0.618706
227.1000,-39.9851,242.32,0.605435
227.0000,-40.3333,241.842,0.599391
226.9000,-41.7938,242.701,0.610241
226.8000,-44.9285,244.428,0.631957
226.7000,-44.5654,243.608,0.621671
226.6000,-43.3774,244.978,0.638856
226.5000,-43.3791,244.51,0.632994
226.4000,-42.3859,244.281,0.630124
226.3000,-43.131,244.829,0.636984
226.2000,-45.3647,244.176,0.628802
226.1000,-43.0197,245.209,0.641748
226.0000,-41.7982,244.62,0.634372
225.9000,-44.253,245.902,0.650396
225.8000,-46.4535,245.332,0.643278
225.7000,-44.8747,245.935,0.650806
225.6000,-44.7406,246.159,0.653604
225.5000,-44.8903,245.634,0.647058
225.4000,-46.7434,246.698,0.660322
225.3000,-46.4906,247.628,0.67188
225.2000,-46.0979,247.205,0.666619
225.1000,-45.5386,247.93,0.675617
225.0000,-47.011,246.48,0.6576
224.9000,-47.4879,246.84,0.662084
224.8000,-44.2213,248.086,0.677554
224.7000,-45.3132,248.081,0.677484
224.6000,-46.5456,248.617,0.684117
224.5000,-42.8647,248.759,0.685881
224.4000,-47.2632,248.232,0.679364
224.3000,-45.9796,250.215,0.703832
224.2000,-47.3799,250.773,0.710682
224.1000,-49.1448,248.393,0.681355
224.0000,-47.4838,249.373,0.693463
223.9000,-47.9273,250.776,0.710724
223.8000,-45.2625,251.405,0.718436
223.7000,-44.8248,249.965,0.700751
223.6000,-46.0498,249.288,0.692415
223.5000,-50.445,250.222,0.703915
223.4000,-46.7666,250.522,0.707607
223.3000,-46.8804,250.778,0.710751
223.2000,-49.9185,251.134,0.715117
223.1000,-48.8463,251.361,0.717894
223.0000,-51.7679,252.82,0.735733
222.9000,-48.9165,251.331,0.717533
222.8000,-47.2126,251.73,0.722417
222.7000,-47.9227,252.62,0.733286
222.6000,-48.812,252.007,0.725799
222.5000,-47.9924,252.802,0.735512
222.4000,-49.4783,252.381,0.730368
222.3000,-48.9549,253.141,0.739641
222.2000,-46.8216,253.327,0.741904
222.1000,-45.5702,254.795,0.759737
222.0000,-47.7048,253.892,0.74878
221.9000,-49.8657,254.987,0.762057
221.8000,-49.3136,253.28,0.741338
221.7000,-47.7788,254.075,0.750996
221.6000,-49.5563,255.256,0.765321
221.5000,-52.6636,253.775,0.747362
221.4000,-49.979,255.569,0.769102
221.3000,-50.2244,256.837,0.784393
221.2000,-46.8816,256.349,0.778511
221.1000,-50.2962,256.905,0.785211
221.0000,-50.0748,256.222,0.776981
220.9000,-50.3963,256.013,0.774466
220.8000,-49.3283,257.211,0.788891
220.7000,-49.7604,259.424,0.815398
220.6000,-51.6615,258.534,0.804766
220.5000,-52.1534,256.65,0.782142
220.4000,-48.6787,257.99,0.79825
220.3000,-51.4837,257.777,0.795695
220.2000,-51.387,257.729,0.79511
220.1000,-48.8394,258.845,0.808481
220.0000,-47.6148,259.358,0.814614
219.9000,-47.1981,260.358,0.826539
219.8000,-51.5089,259.316,0.814113
219.7000,-48.2051,259.423,0.815384
219.6000,-50.5341,260.584,0.829221
219.5000,-45.7694,258.368,0.802772
219.4000,-46.5826,259.835,0.820304
219.3000,-47.4601,259.986,0.8221
219.2000,-49.7602,260.286,0.825676
219.1000,-48.6912,261.087,0.835199
219.0000,-51.3974,264.052,0.870241
218.9000,-47.0709,262.23,0.848749
218.8000,-49.156,262.263,0.849138
218.7000,-47.0863,262.176,0.848105
218.6000,-50.1546,261.6,0.841289
218.5000,-47.9939,262.71,0.854414
218.4000,-48.0631,262.165,0.847971
218.3000,-48.0452,262.289,0.849446
218.2000,-45.3335,263.736,0.866521
218.1000,-44.4651,264.05,0.870214
218.0000,-48.2119,262.775,0.855191
217.9000,-50.1335,264.009,0.869735
217.8000,-48.5727,263.742,0.866588
217.7000,-49.4004,264.623,0.876952
217.6000,-46.6303,265.175,0.883425
217.5000,-49.2369,265.784,0.89055
217.4000,-42.5397,263.992,0.869535
217.3000,-50.983,265.218,0.88393
217.2000,-47.7508,265.424,0.886346
217.1000,-46.1472,265.66,0.889105
217.0000,-47.2355,266.977,0.904482
216.9000,-52.1046,267.192,0.906991
216.8000,-48.0769,267.16,0.906621
216.7000,-48.261,267.446,0.909946
216.6000,-47.0596,268.004,0.916441
216.5000,-48.653,267.973,0.916073
216.4000,-52.1984,268.086,0.917389
216.3000,-45.6528,267.82,0.914295
216.2000,-46.0275,270.335,0.943423
216.1000,-47.4157,267.957,0.915888
216.0000,-46.6145,267.938,0.915665
215.9000,-45.1369,268.687,0.924358
215.8000,-50.0254,268.711,0.924647
215.7000,-55.0536,271.01,0.951205
215.6000,-45.2834,270.982,0.950879
215.5000,-47.6394,271.149,0.952795
215.4000,-49.3284,269.206,0.930369
215.3000,-49.2561,271.169,0.95303
215.2000,-46.5269,271.87,0.961091
215.1000,-50.2186,272.378,0.966914
215.0000,-45.9381,271.893,0.961351
214.9000,-49.2855,271.868,0.961065
214.8000,-47.4785,272.086,0.963562
214.7000,-47.8258,271.491,0.95673
214.6000,-51.1088,272.95,0.973468
214.5000,-45.3362,274.339,0.98933
214.4000,-49.6403,273.543,0.980243
214.3000,-48.3036,273.891,0.984214
214.2000,-44.9459,274.903,0.995742
214.1000,-50.7219,274.958,0.996373
214.0000,-51.9885,275.286,1.0001
213.9000,-51.1072,274.968,0.996489
213.8000,-48.3957,275.518,1.00273
213.7000,-48.7399,276.216,1.01065
213.6000,-51.0401,275.388,1.00125
213.5000,-44.6497,276.161,1.01003
213.4000,-53.3533,278.05,1.03138
213.3000,-47.4296,277.927,1.02999
213.2000,-46.4831,277.384,1.02386
213.1000,-49.7243,277.263,1.02249
213.0000,-48.7539,278.188,1.03294
212.9000,-44.6074,279.149,1.04374
212.8000,-47.1294,279.181,1.0441
212.7000,-45.7292,279.192,1.04423
212.6000,-49.6198,279.436,1.04696
212.5000,-49.0238,279.044,1.04256
212.4000,-48.5661,281.013,1.06462
212.3000,-47.5963,280.869,1.06301
212.2000,-45.1884,281.036,1.06487
212.1000,-49.529,282.108,1.07683
212.0000,-51.3484,282.729,1.08373
211.9000,-50.0028,283.123,1.08811
211.8000,-48.9555,282.806,1.08459
211.7000,-51.2216,283.695,1.09446
211.6000,-48.3553,282.981,1.08654
211.5000,-50.8348,283.436,1.09158
211.4000,-52.3113,284.82,1.10691
211.3000,-51.1601,284.664,1.10518
211.2000,-52.5112,284.15,1.09949
211.1000,-47.5684,284.718,1.10578
211.0000,-51.9792,284.966,1.10852
210.9000,-51.8489,285.423,1.11356
210.8000,-52.115,286.258,1.12275
210.7000,-48.0212,287.584,1.13731
210.6000,-56.5501,287.056,1.13152
210.5000,-53.2023,287.008,1.131
210.4000,-52.1944,287.978,1.14163
210.3000,-51.6284,290.061,1.16435
210.2000,-46.1444,288.896,1.15166
210.1000,-51.2737,291.052,1.17512
210.0000,-50.8608,291.111,1.17576
209.9000,-47.3924,291.393,1.17882
209.8000,-51.0739,292.062,1.18606
209.7000,-52.2714,291.55,1.18051
209.6000,-50.3467,291.79,1.18311
209.5000,-50.9629,294.331,1.21053
209.4000,-50.0324,293.781,1.2046
209.3000,-54.8845,294.05,1.20751
209.2000,-53.8827,294.824,1.21582
209.1000,-51.7822,296.086,1.22934
209.0000,-48.2905,294.874,1.21636
208.9000,-52.2401,295.878,1.22711
208.8000,-53.6983,297.317,1.24248
208.7000,-49.6654,296.708,1.23599
208.6000,-47.5225,297.442,1.24381
208.5000,-54.8791,297.928,1.24898
208.4000,-50.9406,299.141,1.26187
208.3000,-50.1613,299.837,1.26924
208.2000,-47.337,299.743,1.26825
208.1000,-55.8048,301.577,1.28761
208.0000,-48.4438,301.105,1.28264
207.9000,-50.1039,302.357,1.29582
207.8000,-51.0688,304.055,1.31362
207.7000,-51.2859,303.66,1.30949
207.6000,-54.0083,304.894,1.32238
207.5000,-48.5574,304.94,1.32287
207.4000,-51.071,306.148,1.33545
207.3000,-46.5578,306.107,1.33503
207.2000,-50.8868,306.494,1.33904
207.1000,-50.5248,307.556,1.35007
207.0000,-48.2315,308.96,1.36459
206.9000,-49.7693,309.837,1.37363
206.8000,-47.7426,310.254,1.37792
206.7000,-44.0286,312.101,1.39687
206.6000,-46.5586,311.791,1.39369
206.5000,-53.5253,311.889,1.3947
206.4000,-41.0808,313.037,1.40644
206.3000,-44.2238,314.485,1.42119
206.2000,-42.9767,314.637,1.42274
206.1000,-41.763,315.095,1.42739
206.0000,-39.0685,316.269,1.43929
205.9000,-43.0896,317.525,1.45199
205.8000,-41.3891,317.803,1.45479
205.7000,-43.866,318.038,1.45716
205.6000,-40.1501,319.194,1.46879
205.5000,-44.9848,321.468,1.49156
205.4000,-41.8982,320.736,1.48425
205.3000,-40.8445,323.185,1.50866
205.2000,-35.7077,323.938,1.51615
205.1000,-35.5294,324.321,1.51995
205.0000,-26.9135,326.974,1.54615
204.9000,-37.7726,325.787,1.53445
204.8000,-29.7745,328.032,1.55655
204.7000,-37.375,328.406,1.56022
204.6000,-29.2278,328.907,1.56513
204.5000,-29.6409,330.016,1.57598
204.4000,-32.4089,331.091,1.58647
204.3000,-32.1828,332.7,1.60211
204.2000,-30.74,334.516,1.61969
204.1000,-26.0548,335.386,1.62808
204.0000,-30.7041,336.216,1.63608
203.9000,-25.9188,337.389,1.64734
203.8000,-34.4522,338.99,1.66266
203.7000,-25.5579,338.519,1.65816
203.6000,-25.7409,340.362,1.67575
203.5000,-21.1298,340.533,1.67738
203.4000,-9.64906,342.533,1.69636
203.3000,-20.695,344.927,1.71896
203.2000,-20.7785,344.927,1.71896
203.1000,-9.88703,346.996,1.73839
203.0000,-13.8096,346.931,1.73778
202.9000,-10.2855,348.366,1.7512
202.8000,-7.6772,349.467,1.76147
202.7000,-13.6738,350.613,1.77212
202.6000,-4.7832,351.522,1.78055
202.5000,-13.0931,352.825,1.79261
202.4000,-4.80502,354.122,1.80457
202.3000,-11.7181,355.669,1.81879
202.2000,-12.9617,357.462,1.83521
202.1000,1.46552,358.42,1.84395
202.0000,-13.3091,360.025,1.85856
201.9000,-12.3228,361.696,1.8737
201.8000,-8.64758,362.618,1.88204
201.7000,10.345,365.172,1.90502
201.6000,-0.129178,366.423,1.91623
201.5000,-2.86569,368.645,1.93607
201.4000,5.72462,367.734,1.92795
201.3000,0.347597,369.867,1.94694
201.2000,6.85809,371.62,1.96247
201.1000,1.74279,372.872,1.97353
201.0000,9.9063,375.035,1.99256
200.9000,14.8609,376.153,2.00236
200.8000,10.9744,376.687,2.00703
200.7000,12.3269,378.643,2.02409
200.6000,8.98383,381.413,2.04814
200.5000,9.00389,382.435,2.05697
200.4000,14.7222,385.25,2.0812
200.3000,17.5073,386.026,2.08785
200.2000,21.668,388.135,2.10587
200.1000,7.61085,389.278,2.11561
200.0000,10.7143,391.759,2.13666
199.9000,11.8697,391.995,2.13865
199.8000,21.3462,394.611,2.16071
199.7000,16.6175,395.248,2.16607
199.6000,27.5053,397.589,2.18568
199.5000,40.6267,399.768,2.20384
199.4000,32.1645,400.935,2.21354
199.3000,17.8896,402.33,2.22509
199.2000,38.7141,403.281,2.23296
199.1000,32.0633,404.53,2.24326
199.0000,40.2239,406.998,2.26353
198.9000,18.4201,409.518,2.28412
198.8000,30.2199,411.727,2.30209
198.7000,33.8286,413.448,2.31603
198.6000,32.2342,414.272,2.32268
198.5000,33.9933,417.118,2.34559
198.4000,32.7515,418.677,2.35809
198.3000,36.1715,420.256,2.37069
198.2000,34.9885,422.914,2.39184
198.1000,48.5639,425.918,2.4156
198.0000,41.276,425.342,2.41105
197.9000,23.846,428.739,2.43778
197.8000,50.7733,429.656,2.44496
197.7000,25.5805,431.334,2.45808
197.6000,28.6238,432.134,2.46431
197.5000,48.3889,434.966,2.48632
197.4000,43.159,437.142,2.50314
197.3000,42.893,439.736,2.5231
197.2000,35.5629,441.101,2.53357
197.1000,45.5554,442.862,2.54702
197.0000,41.3548,443.941,2.55526
196.9000,38.6321,446.584,2.57533
196.8000,46.6609,449.285,2.59574
196.7000,39.7178,451.726,2.6141
196.6000,36.6559,452.762,2.62187
196.5000,32.4057,455.287,2.64073
196.4000,36.2924,456.653,2.65091
196.3000,35.5782,458.849,2.6672
196.2000,46.7346,461.428,2.68626
196.1000,30.951,463.072,2.69836
196.0000,44.6702,465.848,2.7187
195.9000,42.1903,467.319,2.72944
195.8000,49.0867,468.897,2.74094
195.7000,34.7914,471.721,2.76142
195.6000,50.0821,473.314,2.77293
195.5000,41.8453,474.728,2.78311
195.4000,45.9976,476.837,2.79826
195.3000,28.0323,478.337,2.809
195.2000,47.1099,482.346,2.83756
195.1000,35.2429,482.118,2.83594
195.0000,40.5975,484.986,2.85626
194.9000,43.633,485.092,2.85701
194.8000,44.9359,486.817,2.86918
194.7000,38.9872,488.215,2.87902
194.6000,38.4066,489.783,2.89002
194.5000,54.7937,490.943,2.89815
194.4000,40.1603,492.966,2.91227
194.3000,43.8798,495.326,2.92869
194.2000,43.9979,496.823,2.93906
194.1000,36.5069,499.297,2.95616
194.0000,37.727,501.411,2.97071
193.9000,37.554,502.986,2.98151
193.8000,43.5916,504.991,2.99523
193.7000,40.5612,508.183,3.01697
193.6000,37.6316,508.261,3.0175
193.5000,42.4349,510.207,3.0307
193.4000,29.8623,512.314,3.04494
193.3000,29.4408,513.627,3.05379
193.2000,35.1708,515.575,3.06688
193.1000,42.3665,516.857,3.07547
193.0000,25.8834,517.939,3.08271
192.9000,43.9836,519.695,3.09443
192.8000,29.4047,521.399,3.10578
192.7000,36.7621,523.794,3.12167
192.6000,29.2011,526.381,3.13876
192.5000,30.2087,528,3.14942
192.4000,32.5515,529.634,3.16015
192.3000,30.9167,533.118,3.18294
192.2000,43.8154,533.637,3.18633
192.1000,32.6478,536.503,3.20496
192.0000,43.6088,536.793,3.20684
191.9000,40.9684,538.587,3.21846
191.8000,19.9536,539.864,3.2267
191.7000,26.1476,542.008,3.24052
191.6000,24.412,544.883,3.25897
191.5000,40.1339,545.888,3.2654
191.4000,42.836,548.101,3.27952
191.3000,27.7657,550.545,3.29507
191.2000,27.016,552.169,3.30536
191.1000,29.8595,555.048,3.32355
191.0000,33.045,558.071,3.34256
190.9000,33.7755,560.331,3.35672
190.8000,26.327,563.018,3.37348
190.7000,33.9885,566.003,3.39204
190.6000,29.4229,569.2,3.41181
190.5000,25.4463,570.172,3.4178
190.4000,20.8919,573.419,3.43776
190.3000,33.1408,575.836,3.45255
190.2000,23.5461,577.089,3.4602
190.1000,15.5222,579.616,3.47558
190.0000,14.7637,581.806,3.48887

##### Extended Information
[Comments]
Sample name,JN_AD_Buffer
Comment,Buffer 
User,Jocelyn_Andrew
Division
Company,Saint Mary's College

[Detailed Information]
Creation date,9/29/2022 3:31 PM

Data array type,Linear data array * 3
Horizontal axis,Wavelength [nm]
Vertical axis(1),CD [mdeg]
Vertical axis(2),HT [V]
Vertical axis(3),Abs
Start,320 nm
End,190 nm
Data interval,0.1 nm
Data points,1301    

[Measurement Information]
Instrument name,J-1500
Model name,J-1500
Serial No.,B051061638

Detector,PM-539
Detector S/N,B051061638
  Lock-in amp.,X mode
  HT volt,Auto

Accessory,PTC-517
Accessory S/N,B026561646
  Temperature,22.55 C
  Control sensor,Holder
  Monitor sensor,Holder

Measurement date,9/29/2022 3:31 PM

CD Overload detect,1022
Photometric mode,CD, HT, Abs
Measure range,320 - 190 nm
Data pitch,0.1 nm
CD scale,20 mdeg/0.05 dOD
FL scale,20 mdeg/0.05 dOD
D.I.T.,8 msec
Bandwidth,2.00 nm
Start mode,Immediately
Scanning mode,Continuous
Scanning speed,200 nm/min
Baseline correction,None
Shutter control,Auto
No. of cycle,1/1
N2 Flowmeter,Manual

Solvent,NaPO4 buffer

