TITLE,JN_ADProteinandAdditive
DATA TYPE,
ORIGIN,JASCO
OWNER,
DATE,22/09/29
TIME,17:22:40
SPECTROMETER/DATA SYSTEM,
LOCALE,1033
RESOLUTION,
DELTAX,-0.1
XUNITS,NANOMETERS
YUNITS,CD [mdeg]
Y2UNITS,HT [V]
Y3UNITS,ABSORBANCE
FIRSTX,  320.0000
LASTX,  190.0000
NPOINTS,    1301
FIRSTY,     1.27240
MAXY,    17.79297
MINY,    -7.79521
XYDATA
320.0000,1.2724,209.576,0.166707
319.9000,0.79558,209.067,0.159456
319.8000,3.55359,208.846,0.156303
319.7000,-1.2987,209.282,0.162526
319.6000,1.19188,209.378,0.163899
319.5000,1.47602,210.116,0.174393
319.4000,1.84594,209.104,0.159989
319.3000,0.885646,208.864,0.156562
319.2000,1.11857,209.61,0.16719
319.1000,0.513329,209.63,0.167481
319.0000,1.31573,209.736,0.168996
318.9000,-0.103714,209.509,0.165755
318.8000,0.692575,209.468,0.165174
318.7000,0.955904,209.611,0.167207
318.6000,-0.569992,209.196,0.161299
318.5000,1.98886,209.494,0.165545
318.4000,0.691339,209.273,0.162397
318.3000,0.234204,209.298,0.162752
318.2000,1.4926,209.398,0.164173
318.1000,2.46909,209.267,0.162316
318.0000,1.45785,209.721,0.168771
317.9000,0.244143,209.33,0.163204
317.8000,-0.00588718,209.759,0.169319
317.7000,1.7212,209.45,0.164915
317.6000,0.949534,209.489,0.16548
317.5000,0.167091,209.014,0.158696
317.4000,0.258034,209.573,0.166674
317.3000,1.88365,208.981,0.158228
317.2000,3.9297,209.023,0.158826
317.1000,2.49759,208.881,0.156804
317.0000,-0.0729384,209.431,0.164641
316.9000,0.244409,208.722,0.154539
316.8000,-0.0326154,209.137,0.160458
316.7000,0.601482,208.931,0.157516
316.6000,2.0021,208.527,0.151754
316.5000,1.55594,208.665,0.153714
316.4000,-0.261819,209.092,0.159812
316.3000,0.184564,209.054,0.159279
316.2000,2.23339,208.842,0.156254
316.1000,1.3943,209.288,0.162607
316.0000,-0.388017,209.295,0.162704
315.9000,1.00958,209.307,0.162881
315.8000,1.22509,209.142,0.160523
315.7000,1.85016,209.716,0.168706
315.6000,0.87686,209.171,0.160943
315.5000,0.395094,208.386,0.149729
315.4000,0.516215,209.059,0.159343
315.3000,3.46805,209.238,0.161896
315.2000,0.590671,208.95,0.157791
315.1000,0.47393,208.537,0.151884
315.0000,1.07942,208.67,0.153795
314.9000,-0.22841,209.097,0.159893
314.8000,1.07706,207.977,0.143873
314.7000,1.17353,208.381,0.149664
314.6000,2.61441,209.271,0.162365
314.5000,1.09346,208.577,0.152467
314.4000,0.695297,207.508,0.137147
314.3000,1.90932,208.544,0.151997
314.2000,2.13853,208.471,0.150944
314.1000,0.794867,208.603,0.152839
314.0000,1.42259,208.822,0.155963
313.9000,0.535696,208.262,0.147962
313.8000,1.52388,207.444,0.136236
313.7000,0.470991,208.656,0.153584
313.6000,0.389555,208.493,0.151268
313.5000,3.67657,208.397,0.149891
313.4000,1.33578,208.199,0.147054
313.3000,1.02936,208.721,0.154523
313.2000,0.690687,208.205,0.147135
313.1000,3.57664,208.243,0.147686
313.0000,2.3232,209.043,0.159117
312.9000,1.32094,208.399,0.149923
312.8000,0.757513,208.192,0.146956
312.7000,0.585114,208.644,0.153422
312.6000,1.90435,208.697,0.154183
312.5000,1.62461,208.033,0.144685
312.4000,1.72243,208.575,0.152434
312.3000,1.72207,208.445,0.150572
312.2000,2.43096,208.487,0.151171
312.1000,1.01252,209.202,0.161379
312.0000,1.83236,208.158,0.14647
311.9000,2.514,208.932,0.157532
311.8000,1.14627,208.492,0.151252
311.7000,1.01897,208.719,0.154491
311.6000,-0.584272,209.278,0.162461
311.5000,0.762744,208.49,0.15122
311.4000,0.796522,208.44,0.150507
311.3000,1.37238,208.133,0.146113
311.2000,1.3124,208.606,0.152872
311.1000,0.434393,208.776,0.1553
311.0000,1.00653,208.404,0.149988
310.9000,0.28603,208.219,0.147346
310.8000,1.47611,208.348,0.149194
310.7000,1.08743,208.771,0.155235
310.6000,2.14057,208.645,0.153438
310.5000,1.1572,208.795,0.155575
310.4000,0.948808,208.87,0.156643
310.3000,2.23489,208.492,0.151252
310.2000,2.05624,209.565,0.166561
310.1000,1.07407,208.803,0.155688
310.0000,-0.457913,209.02,0.158794
309.9000,1.40067,208.33,0.148935
309.8000,2.52529,208.677,0.153892
309.7000,0.733545,208.518,0.151625
309.6000,1.08989,208.48,0.151074
309.5000,1.00416,207.945,0.143419
309.4000,1.25374,208.112,0.145805
309.3000,0.285917,208.515,0.151576
309.2000,0.317775,208.571,0.15237
309.1000,2.00996,207.581,0.138204
309.0000,0.716316,208.351,0.149226
308.9000,1.26563,208.233,0.14754
308.8000,1.51599,208.907,0.157177
308.7000,0.100887,208.037,0.144734
308.6000,2.15243,208.691,0.154086
308.5000,0.640818,209.168,0.160895
308.4000,1.55241,208.551,0.152094
308.3000,2.41534,209.131,0.160377
308.2000,0.439961,208.183,0.146827
308.1000,1.41177,209.133,0.160393
308.0000,0.451701,208.505,0.15143
307.9000,1.69679,208.21,0.147216
307.8000,1.97629,208.53,0.151787
307.7000,0.038637,208.838,0.15619
307.6000,-0.248417,208.365,0.149437
307.5000,0.986183,208.609,0.15292
307.4000,0.780408,209.223,0.161686
307.3000,0.703939,208.259,0.147913
307.2000,2.30819,208.706,0.154313
307.1000,2.31383,208.058,0.145042
307.0000,2.27775,207.697,0.139862
306.9000,0.493861,208.62,0.153082
306.8000,0.786626,208.249,0.147767
306.7000,2.30541,208.836,0.156157
306.6000,1.10833,208.569,0.152354
306.5000,2.86497,208.752,0.15496
306.4000,1.21226,207.799,0.141324
306.3000,2.42365,208.971,0.158082
306.2000,2.05035,209.346,0.16343
306.1000,1.06263,208.492,0.151252
306.0000,1.20921,208.482,0.151106
305.9000,1.23526,208.691,0.154086
305.8000,1.44842,208.066,0.145156
305.7000,1.11608,207.99,0.144068
305.6000,1.2028,208.147,0.146308
305.5000,2.2082,208.748,0.154912
305.4000,2.26778,208.861,0.156513
305.3000,0.985467,208.593,0.152694
305.2000,2.41652,209.636,0.167561
305.1000,1.39663,208.411,0.150085
305.0000,0.660687,208.35,0.14921
304.9000,-0.274765,208.458,0.150766
304.8000,0.863867,208.116,0.14587
304.7000,1.34195,208.106,0.145724
304.6000,0.207488,208.241,0.147654
304.5000,1.44984,208.056,0.14501
304.4000,1.09162,208.415,0.15015
304.3000,1.63123,208.395,0.149859
304.2000,0.287848,208.804,0.155704
304.1000,1.56825,208.338,0.149048
304.0000,1.56187,208.785,0.155429
303.9000,0.126116,208.633,0.15326
303.8000,1.57985,207.785,0.141129
303.7000,1.29486,207.614,0.138675
303.6000,1.14355,208.355,0.149291
303.5000,2.8431,208.535,0.151868
303.4000,-0.551518,208.931,0.157516
303.3000,2.79614,208.41,0.150069
303.2000,2.15788,208.813,0.155834
303.1000,1.11342,208.296,0.148448
303.0000,2.43403,208.334,0.148983
302.9000,-0.00383825,208.531,0.151803
302.8000,0.942136,208.762,0.155106
302.7000,1.27451,208.121,0.145935
302.6000,1.59628,207.956,0.143581
302.5000,1.75338,208.2,0.14707
302.4000,2.38347,208.148,0.146324
302.3000,1.07428,208.685,0.154005
302.2000,1.69665,207.507,0.13713
302.1000,1.93812,208.899,0.157063
302.0000,1.24251,208.151,0.146372
301.9000,2.72849,208.208,0.147183
301.8000,0.378685,208.41,0.150069
301.7000,0.53814,207.718,0.140171
301.6000,1.03672,208.557,0.152175
301.5000,0.147258,207.954,0.143549
301.4000,1.27576,207.982,0.143955
301.3000,1.63368,208.469,0.150912
301.2000,0.204299,207.769,0.140902
301.1000,1.00116,208.689,0.15407
301.0000,1.73763,207.887,0.142591
300.9000,2.18327,207.733,0.140382
300.8000,1.32148,207.571,0.138057
300.7000,0.544848,207.82,0.141633
300.6000,0.423085,208.132,0.146097
300.5000,1.15152,208.608,0.152904
300.4000,-1.21888,207.648,0.139163
300.3000,1.06178,207.639,0.139033
300.2000,1.87835,208.658,0.153617
300.1000,0.987859,207.688,0.139732
300.0000,1.26586,208.413,0.150118
299.9000,-0.0196491,208.253,0.147832
299.8000,-0.0726714,207.874,0.142396
299.7000,1.29862,208.123,0.145967
299.6000,0.186163,208.299,0.148481
299.5000,2.64171,207.633,0.138952
299.4000,1.24389,208.371,0.149518
299.3000,1.53673,208.483,0.151123
299.2000,0.664343,208.616,0.153017
299.1000,0.885206,208.299,0.148481
299.0000,-0.00453027,207.784,0.141113
298.9000,1.57211,208.284,0.14827
298.8000,-0.162641,208.467,0.150896
298.7000,-0.326684,208.02,0.14449
298.6000,1.96345,207.953,0.143533
298.5000,2.37843,209.172,0.160959
298.4000,2.48926,207.827,0.14173
298.3000,3.47063,207.586,0.138269
298.2000,0.605866,207.706,0.139992
298.1000,1.33186,208.243,0.147686
298.0000,2.57568,208.1,0.145642
297.9000,0.621217,207.911,0.142932
297.8000,1.04186,207.449,0.136301
297.7000,1.45657,207.393,0.135504
297.6000,2.1661,208.341,0.149081
297.5000,2.13716,208.279,0.148205
297.4000,-0.226508,208.861,0.156513
297.3000,1.57476,207.604,0.138529
297.2000,2.12222,207.771,0.140918
297.1000,2.33951,206.807,0.127082
297.0000,2.09805,207.39,0.135455
296.9000,1.14844,207.931,0.143224
296.8000,0.812413,207.897,0.142737
296.7000,1.10991,207.959,0.143614
296.6000,2.49081,207.236,0.133242
296.5000,0.273895,207.363,0.135064
296.4000,1.16028,207.857,0.142152
296.3000,2.23067,207.415,0.135813
296.2000,0.49528,207.193,0.132623
296.1000,2.13654,208.066,0.145156
296.0000,-0.151796,208.087,0.145448
295.9000,0.551519,208.225,0.147427
295.8000,0.642307,208.041,0.144799
295.7000,1.49218,207.784,0.141113
295.6000,1.24994,207.53,0.137472
295.5000,1.50473,207.343,0.134788
295.4000,2.03452,207.97,0.143776
295.3000,-0.609237,207.519,0.137309
295.2000,1.03909,207.417,0.135846
295.1000,0.281595,208.144,0.146275
295.0000,2.68232,207.279,0.13386
294.9000,-1.48354,208.007,0.144312
294.8000,-0.528507,207.754,0.140674
294.7000,0.0892554,207.912,0.142948
294.6000,1.23461,207.5,0.137033
294.5000,0.274479,207.61,0.13861
294.4000,1.8893,207.053,0.130619
294.3000,0.94121,207.341,0.134755
294.2000,1.28033,207.802,0.141373
294.1000,1.27393,208.369,0.149486
294.0000,1.63449,207.822,0.141649
293.9000,1.59865,207.73,0.140333
293.8000,0.667469,207.05,0.13057
293.7000,2.35254,208.067,0.145172
293.6000,1.45853,207.318,0.13443
293.5000,1.15431,207.603,0.138512
293.4000,2.34112,207.507,0.13713
293.3000,1.51583,207.786,0.141145
293.2000,0.0313371,207.304,0.134218
293.1000,0.645557,206.891,0.128289
293.0000,-0.379953,207.79,0.141194
292.9000,1.12571,207.153,0.132053
292.8000,1.27394,208.058,0.145042
292.7000,0.744458,207.143,0.131906
292.6000,0.0550607,208.456,0.150734
292.5000,1.43178,206.89,0.128272
292.4000,0.952359,207.294,0.134072
292.3000,-0.154238,207.207,0.132835
292.2000,2.66307,207.689,0.139748
292.1000,0.874069,206.546,0.123313
292.0000,1.59148,207.936,0.143289
291.9000,1.20862,207.015,0.130065
291.8000,0.916212,206.068,0.116417
291.7000,0.498207,206.754,0.126316
291.6000,0.166857,206.877,0.128077
291.5000,2.68222,207.655,0.13926
291.4000,-0.578569,207.394,0.13552
291.3000,0.998545,207.294,0.134072
291.2000,2.7148,206.594,0.124015
291.1000,1.16559,206.479,0.122349
291.0000,1.95146,207.198,0.132704
290.9000,0.487949,207.435,0.136106
290.8000,3.30626,206.838,0.127522
290.7000,1.5881,206.753,0.126299
290.6000,0.394667,206.894,0.128321
290.5000,0.991447,206.923,0.128745
290.4000,1.13215,206.202,0.118363
290.3000,2.33664,206.483,0.122415
290.2000,-0.687303,207.403,0.13565
290.1000,-0.731583,207.437,0.136138
290.0000,1.58148,207.449,0.136301
289.9000,1.25379,206.991,0.129723
289.8000,1.063,207.786,0.141145
289.7000,0.946757,206.973,0.129462
289.6000,2.07806,206.8,0.126968
289.5000,-0.0358494,206.452,0.121957
289.4000,0.585692,208.058,0.145042
289.3000,1.1442,207.49,0.136886
289.2000,-0.157755,207.703,0.139943
289.1000,0.578339,207.346,0.13482
289.0000,0.19365,207.249,0.133437
288.9000,1.20604,207.873,0.14238
288.8000,1.00115,207.513,0.137228
288.7000,1.91602,207.156,0.132102
288.6000,2.32472,208.144,0.146275
288.5000,1.77049,207.747,0.140577
288.4000,3.11682,207.521,0.137342
288.3000,1.40205,207.21,0.132867
288.2000,1.65646,207.465,0.136529
288.1000,-0.565579,207.322,0.134479
288.0000,2.64208,207.537,0.13757
287.9000,-0.558681,207.23,0.13316
287.8000,0.266427,207.993,0.144101
287.7000,0.803922,207.346,0.13482
287.6000,2.51302,206.549,0.123362
287.5000,1.57358,208.094,0.145545
287.4000,1.60154,206.616,0.124325
287.3000,1.39719,207.265,0.133665
287.2000,-0.832472,206.877,0.128077
287.1000,0.213146,207.396,0.135536
287.0000,1.09841,207.354,0.134934
286.9000,2.34432,207.419,0.135878
286.8000,1.33054,206.417,0.121451
286.7000,1.17093,207.655,0.13926
286.6000,0.949936,207.447,0.136268
286.5000,0.468727,207.741,0.140495
286.4000,0.262987,207.558,0.137862
286.3000,1.36094,207.351,0.134902
286.2000,0.545067,207.194,0.132639
286.1000,1.16002,207.415,0.135813
286.0000,0.510734,207.482,0.136773
285.9000,3.23417,207.061,0.130733
285.8000,0.411637,207.2,0.13272
285.7000,0.185442,207.452,0.13635
285.6000,0.963887,207.203,0.132769
285.5000,1.86713,206.396,0.121157
285.4000,0.862454,207.453,0.136366
285.3000,1.77336,207.595,0.138399
285.2000,0.383183,207.589,0.138318
285.1000,1.99227,206.817,0.127213
285.0000,3.8145,207.862,0.142234
284.9000,1.77526,207.762,0.140788
284.8000,-0.479079,206.644,0.124733
284.7000,-0.113067,207.113,0.131483
284.6000,1.17225,207.203,0.132769
284.5000,1.40914,207.822,0.141649
284.4000,1.17304,206.502,0.122676
284.3000,1.57272,207.346,0.13482
284.2000,1.56868,207.842,0.141941
284.1000,2.32031,208.558,0.152192
284.0000,-0.477067,208.066,0.145156
283.9000,-0.904896,206.688,0.125369
283.8000,0.781274,206.492,0.122545
283.7000,0.49435,207.341,0.134755
283.6000,1.21958,207.328,0.13456
283.5000,0.726655,207.516,0.137261
283.4000,0.423196,207.498,0.137
283.3000,1.13752,206.841,0.127571
283.2000,1.15697,206.733,0.126006
283.1000,1.18429,207.647,0.139147
283.0000,3.26357,205.983,0.11519
282.9000,1.21502,207.539,0.137602
282.8000,1.20741,207.384,0.135374
282.7000,0.855387,207.868,0.142315
282.6000,0.786859,207.295,0.134088
282.5000,1.42496,208.104,0.145691
282.4000,2.45431,207.12,0.13158
282.3000,0.474522,206.645,0.124749
282.2000,-0.0442736,207.321,0.134462
282.1000,1.10721,208.02,0.14449
282.0000,0.22566,207.064,0.130766
281.9000,0.345385,207.137,0.131825
281.8000,1.73926,207.312,0.134332
281.7000,-0.704144,207.078,0.130978
281.6000,-1.75447,207.592,0.13835
281.5000,-0.48395,207.122,0.131613
281.4000,2.84796,207.266,0.133681
281.3000,1.5736,206.784,0.12674
281.2000,-0.953449,206.494,0.122562
281.1000,1.4814,207.515,0.137244
281.0000,0.0765017,206.915,0.128631
280.9000,1.00709,207.22,0.133014
280.8000,1.96318,207.705,0.139975
280.7000,1.86493,207.254,0.133502
280.6000,0.947444,206.967,0.129381
280.5000,2.08533,207.679,0.139602
280.4000,1.75518,207.332,0.134625
280.3000,0.926937,207.299,0.134153
280.2000,1.19237,207.818,0.1416
280.1000,2.12781,207.058,0.130684
280.0000,1.32753,206.523,0.122986
279.9000,1.53911,207.271,0.133746
279.8000,0.731614,207.363,0.135064
279.7000,1.3714,207.68,0.139618
279.6000,1.2453,207.385,0.13539
279.5000,2.45554,207.162,0.132183
279.4000,0.797765,207.816,0.141568
279.3000,1.20801,207.384,0.135374
279.2000,0.420153,207.902,0.142802
279.1000,1.36484,206.687,0.125353
279.0000,-0.610143,207.291,0.134039
278.9000,2.06108,206.681,0.125255
278.8000,1.19333,207.323,0.134495
278.7000,0.368102,207.492,0.136919
278.6000,0.101424,208.065,0.145139
278.5000,1.50642,207.308,0.134283
278.4000,1.01676,207.481,0.136756
278.3000,1.31461,207.536,0.137553
278.2000,-0.259219,206.669,0.125092
278.1000,0.814119,207.308,0.134283
278.0000,2.0315,206.919,0.12868
277.9000,1.23336,207.638,0.139017
277.8000,-0.0864449,207.137,0.131825
277.7000,0.726717,207.754,0.140674
277.6000,-0.132021,206.796,0.126919
277.5000,1.88823,207.074,0.130913
277.4000,1.60032,208.006,0.144296
277.3000,-0.550968,208.016,0.144442
277.2000,1.09454,207.508,0.137147
277.1000,0.000457512,206.932,0.128876
277.0000,0.821486,207.138,0.131841
276.9000,1.6932,207.164,0.132216
276.8000,2.53917,207.996,0.14415
276.7000,-0.0642808,208.087,0.145448
276.6000,1.12462,207.394,0.13552
276.5000,1.86868,207.407,0.135699
276.4000,0.851883,206.809,0.127098
276.3000,-0.439724,207.007,0.129951
276.2000,-0.519325,207.315,0.134381
276.1000,-0.00740702,207.061,0.130733
276.0000,0.949642,206.953,0.129169
275.9000,1.8934,207.599,0.138464
275.8000,0.658649,206.752,0.126283
275.7000,1.19681,208.182,0.146811
275.6000,0.49053,207.781,0.141064
275.5000,0.60869,208.053,0.144961
275.4000,0.0160009,207.853,0.142104
275.3000,1.59366,207.454,0.136382
275.2000,0.172093,207.426,0.135976
275.1000,2.26445,208.035,0.144701
275.0000,1.66291,206.937,0.128941
274.9000,1.79808,207.551,0.137765
274.8000,-0.434062,207.773,0.14095
274.7000,1.35621,206.751,0.126266
274.6000,1.44701,207.273,0.133779
274.5000,1.12803,207.883,0.142526
274.4000,1.19744,206.999,0.129837
274.3000,2.1028,207.078,0.130978
274.2000,-1.13418,208.038,0.14475
274.1000,0.452538,208.199,0.147054
274.0000,-0.427008,207.271,0.133746
273.9000,0.362868,206.684,0.125304
273.8000,0.559158,207.788,0.141162
273.7000,1.17959,206.888,0.12824
273.6000,1.52171,207.701,0.139927
273.5000,-0.767771,207.831,0.141779
273.4000,1.09792,207.812,0.141519
273.3000,1.01291,207.631,0.138919
273.2000,0.385871,207.379,0.135292
273.1000,1.56975,207.636,0.138984
273.0000,1.82163,208.082,0.145383
272.9000,0.906511,207.288,0.13399
272.8000,-0.134535,207.839,0.141893
272.7000,0.815891,208.066,0.145156
272.6000,0.74914,208.319,0.148773
272.5000,1.77732,207.874,0.142396
272.4000,-0.39873,207.477,0.136708
272.3000,0.188309,207.961,0.143646
272.2000,1.1587,207.763,0.140804
272.1000,-1.1741,207.579,0.138171
272.0000,0.987052,207.571,0.138057
271.9000,-0.503038,207.241,0.133323
271.8000,0.664371,208.372,0.149534
271.7000,1.36313,207.801,0.141356
271.6000,0.701064,207.544,0.137667
271.5000,0.148966,207.513,0.137228
271.4000,0.510994,207.253,0.133486
271.3000,1.50179,208.124,0.145983
271.2000,2.44218,208.144,0.146275
271.1000,1.53761,208.005,0.144279
271.0000,-0.420999,207.938,0.143322
270.9000,0.748409,208.111,0.145789
270.8000,1.39572,207.892,0.142656
270.7000,1.13641,208.02,0.14449
270.6000,1.00403,207.774,0.140967
270.5000,0.595161,207.809,0.14147
270.4000,0.674697,208.057,0.145026
270.3000,2.15335,207.859,0.142185
270.2000,-0.45055,207.703,0.139943
270.1000,1.30875,207.74,0.140479
270.0000,-1.32,207.478,0.136724
269.9000,1.51529,207.791,0.14121
269.8000,1.99755,208.225,0.147427
269.7000,1.40646,207.515,0.137244
269.6000,0.73799,208.047,0.14488
269.5000,0.158545,208.735,0.154717
269.4000,1.00049,207.287,0.133974
269.3000,-0.954333,207.842,0.141941
269.2000,-0.309581,208.543,0.151981
269.1000,0.552332,207.754,0.140674
269.0000,0.437714,207.973,0.143825
268.9000,0.895514,208.15,0.146356
268.8000,-0.399679,207.664,0.13939
268.7000,2.0232,208.375,0.149567
268.6000,1.38016,208.419,0.150199
268.5000,1.24778,208.631,0.153228
268.4000,0.956784,207.832,0.141795
268.3000,1.75686,207.729,0.140317
268.2000,0.324147,208.039,0.144766
268.1000,0.983142,208.705,0.154296
268.0000,0.434223,208.462,0.150815
267.9000,2.66194,208.471,0.150944
267.8000,-0.0783236,208.344,0.149129
267.7000,1.21358,209.097,0.159893
267.6000,0.52872,208.483,0.151123
267.5000,-0.0137478,208.428,0.150329
267.4000,-0.288365,208.66,0.153649
267.3000,3.02029,208.593,0.152694
267.2000,0.75405,208.295,0.148432
267.1000,2.56548,209.02,0.158794
267.0000,0.435976,208.423,0.150264
266.9000,0.835188,209.139,0.160491
266.8000,0.903398,208.943,0.157694
266.7000,0.138728,208.325,0.148854
266.6000,1.54521,208.449,0.150636
266.5000,-0.141285,209.29,0.162639
266.4000,-1.04516,208.423,0.150264
266.3000,0.506251,208.956,0.157872
266.2000,0.737287,209.295,0.162704
266.1000,0.0172275,208.853,0.1564
266.0000,2.89884,208.639,0.153341
265.9000,0.120233,208.725,0.154571
265.8000,0.751779,209.111,0.160087
265.7000,-0.33964,207.893,0.142672
265.6000,1.539,209.198,0.161331
265.5000,0.794042,208.76,0.155073
265.4000,0.527404,209.495,0.165561
265.3000,0.132634,208.126,0.146016
265.2000,-0.373404,209.267,0.162316
265.1000,0.312468,209.109,0.160054
265.0000,0.775933,209.349,0.163479
264.9000,0.458026,209.143,0.160539
264.8000,2.08368,208.047,0.14488
264.7000,1.39238,209.074,0.159553
264.6000,2.43478,208.805,0.155721
264.5000,-0.166075,209.622,0.167368
264.4000,0.21131,209.613,0.167239
264.3000,1.3188,209.174,0.160992
264.2000,1.67767,209.617,0.167303
264.1000,1.32198,210.144,0.174795
264.0000,1.19723,208.819,0.155915
263.9000,0.256553,209.968,0.172284
263.8000,-0.27776,209.869,0.170882
263.7000,1.42565,209.866,0.170834
263.6000,0.847594,209.85,0.170608
263.5000,1.45393,209.554,0.1664
263.4000,-0.200756,209.356,0.163576
263.3000,1.87575,209.866,0.170834
263.2000,1.15492,209.367,0.163737
263.1000,0.187303,209.785,0.16969
263.0000,0.564183,209.951,0.172042
262.9000,0.756339,209.838,0.170447
262.8000,0.478543,209.454,0.16498
262.7000,0.607219,210.85,0.184809
262.6000,0.160153,209.385,0.163995
262.5000,0.833765,209.831,0.170334
262.4000,0.257855,209.542,0.166223
262.3000,2.31362,209.868,0.170866
262.2000,0.85587,209.859,0.170737
262.1000,2.00802,210.687,0.182497
262.0000,0.823025,210.108,0.17428
261.9000,0.0218904,209.973,0.172364
261.8000,1.37925,210.702,0.182705
261.7000,0.959583,210.807,0.184199
261.6000,0.867258,209.607,0.167158
261.5000,2.83014,209.769,0.169464
261.4000,0.0779116,209.531,0.166077
261.3000,0.140496,209.676,0.168142
261.2000,-0.0767431,210.281,0.176742
261.1000,1.38175,210.124,0.174505
261.0000,1.15927,210.156,0.174956
260.9000,1.02828,211.005,0.187007
260.8000,0.11406,210.41,0.17856
260.7000,0.64487,210.143,0.174779
260.6000,-0.213431,210.899,0.185499
260.5000,0.611408,209.894,0.171237
260.4000,-0.153226,210.389,0.17827
260.3000,0.347262,210.439,0.178978
260.2000,-0.612584,210.749,0.18338
260.1000,3.33119,210.485,0.179637
260.0000,0.600132,210.525,0.180199
259.9000,0.997902,210.973,0.186542
259.8000,-0.831728,210.788,0.183926
259.7000,-0.108311,211.052,0.187665
259.6000,-0.171785,211.141,0.188932
259.5000,1.80663,210.521,0.180135
259.4000,1.35973,210.458,0.179251
259.3000,-0.633173,211.192,0.189653
259.2000,-1.22121,210.515,0.180054
259.1000,1.62224,210.737,0.183203
259.0000,0.132384,210.774,0.183733
258.9000,0.644143,210.558,0.180665
258.8000,0.34065,211.247,0.190422
258.7000,-0.234018,210.715,0.182898
258.6000,1.03385,210.062,0.17362
258.5000,1.40569,210.918,0.185772
258.4000,-0.525575,211.092,0.188226
258.3000,0.318137,210.612,0.181437
258.2000,1.71175,210.856,0.184889
258.1000,0.188601,211.263,0.190647
258.0000,1.06724,210.57,0.180842
257.9000,0.130298,211.238,0.190294
257.8000,0.393334,210.61,0.181404
257.7000,-0.0585461,211.026,0.187296
257.6000,-0.463259,211.271,0.190759
257.5000,1.95543,211.473,0.193626
257.4000,0.249925,211.696,0.196763
257.3000,2.01998,211.366,0.192105
257.2000,-0.964011,210.917,0.185756
257.1000,0.832274,211.063,0.187825
257.0000,0.942684,212.347,0.20595
256.9000,1.03732,211.434,0.193066
256.8000,2.18257,211.562,0.194875
256.7000,0.0237427,210.766,0.183621
256.6000,0.0534533,211.521,0.194299
256.5000,0.721269,211.77,0.197819
256.4000,0.945217,211.236,0.190262
256.3000,2.46111,211.145,0.18898
256.2000,0.638285,211.119,0.188611
256.1000,-0.585299,211.881,0.199386
256.0000,0.686463,211.138,0.188883
255.9000,0.120931,211.522,0.194314
255.8000,-0.337488,211.12,0.188627
255.7000,0.519125,211.794,0.198155
255.6000,0.399917,210.97,0.18651
255.5000,2.07932,212.255,0.204658
255.4000,1.18866,211.893,0.199546
255.3000,0.766871,212.09,0.202326
255.2000,0.399995,212.157,0.203268
255.1000,0.235765,211.918,0.199897
255.0000,-0.412482,212.267,0.204817
254.9000,-0.719931,212.157,0.203268
254.8000,0.236924,212.176,0.20354
254.7000,1.03475,212.142,0.203061
254.6000,0.140624,212.429,0.207099
254.5000,1.0605,212.406,0.20678
254.4000,0.827442,212.442,0.207291
254.3000,0.27215,212.688,0.210751
254.2000,0.464555,211.956,0.200441
254.1000,1.22812,212.503,0.208152
254.0000,1.08484,212.162,0.203348
253.9000,1.2901,212.474,0.207737
253.8000,1.13933,212.228,0.204275
253.7000,0.0681362,212.041,0.201639
253.6000,-0.0456456,212.165,0.20338
253.5000,1.28785,212.026,0.201431
253.4000,1.09044,212.484,0.207881
253.3000,-0.664763,212.978,0.214828
253.2000,-1.46196,213.28,0.21906
253.1000,0.885492,212.735,0.211404
253.0000,1.14025,213.111,0.21669
252.9000,0.751449,212.204,0.203939
252.8000,-1.17089,212.749,0.211611
252.7000,0.71303,212.833,0.21279
252.6000,0.766058,213.416,0.220967
252.5000,1.72652,213.28,0.21906
252.4000,0.730471,212.718,0.211165
252.3000,0.964,213.368,0.2203
252.2000,-0.33896,212.986,0.21494
252.1000,0.188565,213.559,0.222985
252.0000,-0.901497,213.664,0.224446
251.9000,0.945879,212.959,0.214557
251.8000,0.968013,213.29,0.219203
251.7000,2.40451,212.363,0.206174
251.6000,-0.325547,213.516,0.222382
251.5000,1.73436,213.804,0.226414
251.4000,0.764334,213.014,0.215338
251.3000,0.31217,213.529,0.222556
251.2000,0.177237,213.653,0.224303
251.1000,0.074126,213.174,0.217581
251.0000,0.562795,213.358,0.220157
250.9000,2.62635,212.531,0.208535
250.8000,0.814516,212.888,0.213554
250.7000,2.16405,213.578,0.223239
250.6000,1.18712,213.162,0.217406
250.5000,-0.0482354,213.815,0.226573
250.4000,0.946777,213.967,0.228699
250.3000,1.66158,214.201,0.231964
250.2000,1.82099,214.222,0.232265
250.1000,0.630257,213.744,0.225573
250.0000,0.222708,214.11,0.230696
249.9000,-0.755148,212.348,0.205966
249.8000,0.342405,213.697,0.224907
249.7000,0.858864,213.955,0.228524
249.6000,-0.694532,213.522,0.222461
249.5000,-0.754574,213.537,0.222668
249.4000,-0.109506,213.622,0.223859
249.3000,1.28118,213.742,0.225542
249.2000,0.685871,214.046,0.229793
249.1000,0.676807,213.789,0.226208
249.0000,1.02208,213.819,0.226621
248.9000,0.603524,214.106,0.230633
248.8000,0.810388,214.159,0.231378
248.7000,1.79848,213.38,0.220475
248.6000,0.576086,214.078,0.230252
248.5000,0.361858,214.166,0.231473
248.4000,0.0349378,214.033,0.229618
248.3000,0.0942601,214.501,0.23616
248.2000,1.33767,213.91,0.22789
248.1000,2.95189,214.299,0.233342
248.0000,2.32194,214.57,0.237125
247.9000,0.552446,214.26,0.232788
247.8000,0.172212,214.425,0.2351
247.7000,1.10343,214.314,0.233548
247.6000,-0.145574,214.912,0.241901
247.5000,0.824869,214.315,0.233564
247.4000,1.11088,213.843,0.226954
247.3000,0.00278543,213.942,0.22835
247.2000,0.32116,215.115,0.244728
247.1000,-0.823864,215.137,0.245028
247.0000,-1.80944,214.877,0.24141
246.9000,1.81408,214.76,0.239783
246.8000,1.21851,215.565,0.25099
246.7000,0.911935,215.234,0.246385
246.6000,1.57587,214.892,0.241616
246.5000,1.75534,215.196,0.245849
246.4000,0.312469,214.949,0.242406
246.3000,-0.0837153,215.385,0.248483
246.2000,-0.583214,215.226,0.246275
246.1000,0.523947,215.889,0.255495
246.0000,1.46324,215.353,0.248042
245.9000,-0.307452,213.656,0.224335
245.8000,1.06908,215.301,0.247316
245.7000,1.39697,215.18,0.245628
245.6000,1.50639,214.857,0.241126
245.5000,0.0137236,215.233,0.246369
245.4000,0.929647,215.654,0.252235
245.3000,2.18558,215.415,0.248909
245.2000,1.23911,215.516,0.250312
245.1000,-0.898506,216.091,0.258296
245.0000,2.0282,215.243,0.246511
244.9000,1.04931,215.881,0.255385
244.8000,-0.0965108,215.812,0.254425
244.7000,-0.407402,215.601,0.251495
244.6000,0.637793,215.362,0.248168
244.5000,1.28526,215.089,0.244365
244.4000,-0.67041,215.745,0.253496
244.3000,-0.538287,215.557,0.25088
244.2000,0.700258,216.075,0.258076
244.1000,0.399176,215.538,0.250612
244.0000,0.563139,216.017,0.257274
243.9000,2.49282,215.173,0.245533
243.8000,0.368536,216.198,0.25979
243.7000,-0.0990077,216.212,0.259979
243.6000,0.692115,216.282,0.260953
243.5000,0.776426,216.53,0.264394
243.4000,0.394131,215.931,0.256078
243.3000,0.548561,215.749,0.253543
243.2000,-1.48014,215.769,0.253826
243.1000,1.60231,216.188,0.259649
243.0000,0.305529,216.088,0.258265
242.9000,0.394266,216.861,0.268977
242.8000,1.57096,217.139,0.272817
242.7000,-0.055973,216.065,0.257934
242.6000,-1.39527,216.178,0.259507
242.5000,1.14394,216.448,0.263248
242.4000,0.190868,216.513,0.264159
242.3000,-0.524958,216.156,0.259208
242.2000,0.546291,216.111,0.258579
242.1000,1.10652,215.983,0.256802
242.0000,-2.03661,216.825,0.268475
241.9000,0.385785,217.07,0.271861
241.8000,-0.194326,215.888,0.25548
241.7000,-0.140739,217.316,0.275261
241.6000,0.944915,216.635,0.265839
241.5000,0.0519078,216.244,0.260419
241.4000,0.522891,217.39,0.276294
241.3000,-0.536877,217.396,0.276372
241.2000,0.544041,217.445,0.277045
241.1000,1.25353,217.64,0.279736
241.0000,0.209856,216.684,0.266529
240.9000,-0.643625,217.164,0.273162
240.8000,0.705347,217.431,0.276857
240.7000,-0.595851,217.479,0.277514
240.6000,1.17004,217.885,0.283127
240.5000,0.688067,217.534,0.278281
240.4000,1.61494,218.026,0.285064
240.3000,3.10068,217.658,0.279986
240.2000,2.83535,218.072,0.285704
240.1000,1.59191,217.703,0.280611
240.0000,2.09976,218.125,0.286422
239.9000,-0.358293,218.232,0.287905
239.8000,0.379453,218.67,0.293922
239.7000,-1.40437,218.455,0.290977
239.6000,-0.168837,218.71,0.294483
239.5000,0.328693,218.811,0.295869
239.4000,1.17024,217.969,0.284283
239.3000,-0.864804,217.917,0.283565
239.2000,-0.0319946,218.68,0.294063
239.1000,0.88513,219.588,0.306533
239.0000,-0.00166176,218.81,0.295854
238.9000,-0.220318,219.585,0.306487
238.8000,-0.45972,218.284,0.288623
238.7000,0.445439,219.27,0.302169
238.6000,-0.696826,220.246,0.315526
238.5000,-0.312524,219.25,0.301889
238.4000,-1.71983,219.684,0.307837
238.3000,0.828472,219.761,0.308892
238.2000,0.706132,219.831,0.309854
238.1000,0.358561,219.373,0.303583
238.0000,1.75801,219.016,0.298686
237.9000,-0.160458,219.596,0.306642
237.8000,-1.06183,220.103,0.313574
237.7000,1.12903,220.179,0.314612
237.6000,-1.11988,219.958,0.31159
237.5000,-0.627327,219.863,0.310288
237.4000,0.0763992,220.46,0.318451
237.3000,-2.67767,221.029,0.32621
237.2000,-0.209953,220.473,0.318637
237.1000,0.845543,220.19,0.314767
237.0000,-1.37692,220.31,0.316408
236.9000,-1.75545,220.652,0.32108
236.8000,-0.233185,220.026,0.31252
236.7000,-1.38931,221.27,0.329497
236.6000,-0.145452,220.252,0.315618
236.5000,-0.0949105,221.373,0.330901
236.4000,1.73067,220.848,0.323754
236.3000,-1.78635,220.894,0.324372
236.2000,-1.73681,221.01,0.325963
236.1000,-1.08509,221.152,0.327892
236.0000,-0.760152,221.255,0.329297
235.9000,-0.606617,221.643,0.334569
235.8000,-1.22055,221.426,0.331625
235.7000,-2.90195,221.435,0.331749
235.6000,-1.32703,222.162,0.341617
235.5000,1.49565,221.722,0.335647
235.4000,-1.76391,221.98,0.339156
235.3000,-3.6491,221.272,0.329528
235.2000,-1.33516,222.215,0.34234
235.1000,-0.336896,221.188,0.328386
235.0000,-1.99444,222.255,0.342878
234.9000,-1.62974,221.727,0.335708
234.8000,-2.35806,222.315,0.343692
234.7000,-0.505764,221.972,0.339049
234.6000,-1.71822,222.344,0.344091
234.5000,-1.8009,222.615,0.347762
234.4000,1.58067,222.51,0.346334
234.3000,-1.58564,222.048,0.340079
234.2000,0.37541,222.685,0.348713
234.1000,-1.90005,222.346,0.344122
234.0000,-2.42915,222.396,0.344798
233.9000,-3.25157,222.611,0.347716
233.8000,-1.31278,223.211,0.355826
233.7000,-1.58616,223.013,0.353145
233.6000,-1.13858,223.325,0.357373
233.5000,-0.0968551,224.1,0.367829
233.4000,-2.33819,223.065,0.35385
233.3000,-1.17758,224.186,0.368989
233.2000,0.0417637,224.337,0.371018
233.1000,-3.02028,223.087,0.354157
233.0000,-2.56274,223.575,0.360739
232.9000,-0.846099,223.764,0.363292
232.8000,-0.745788,224.944,0.379183
232.7000,-1.99445,223.773,0.363415
232.6000,-0.970108,223.933,0.365569
232.5000,-2.82269,223.436,0.358873
232.4000,-1.25797,223.581,0.360831
232.3000,-3.42038,224.33,0.370926
232.2000,-2.47839,224.947,0.379214
232.1000,-1.11617,224.951,0.379275
232.0000,-2.2948,224.684,0.375682
231.9000,-0.481497,225.343,0.384536
231.8000,-2.83974,225.107,0.381359
231.7000,-0.0926645,224.964,0.379442
231.6000,-2.80581,224.988,0.379762
231.5000,-1.89326,225.19,0.382484
231.4000,0.46223,225.913,0.392171
231.3000,-0.306494,224.952,0.37929
231.2000,-2.37211,225.316,0.384172
231.1000,-1.15325,225.079,0.380994
231.0000,-1.94454,225.928,0.392369
230.9000,-3.40976,224.858,0.378027
230.8000,-1.36756,225.757,0.390078
230.7000,-1.35779,225.956,0.392748
230.6000,-2.19508,225.673,0.388955
230.5000,-1.12121,225.499,0.386617
230.4000,-2.54196,224.981,0.379671
230.3000,-4.87012,226.198,0.395976
230.2000,-3.1031,227.104,0.408074
230.1000,-2.21801,226.292,0.397233
230.0000,-0.832066,226.589,0.401198
229.9000,-2.26199,226.587,0.401183
229.8000,-1.60005,225.825,0.390989
229.7000,-1.50502,226.353,0.39805
229.6000,-2.21669,226.695,0.40262
229.5000,-3.34585,226.089,0.394521
229.4000,-2.03048,226.272,0.396975
229.3000,-2.00591,227.055,0.407425
229.2000,-1.83913,227.313,0.410851
229.1000,-2.02244,228.011,0.420133
229.0000,-1.64584,226.993,0.406594
228.9000,-2.86171,228.065,0.420855
228.8000,-4.03238,227.453,0.412721
228.7000,-1.99245,228.114,0.421502
228.6000,-3.02101,228.372,0.42493
228.5000,-5.2382,227.12,0.408285
228.4000,-3.52896,228.715,0.429481
228.3000,-4.8518,228.278,0.423683
228.2000,-3.18357,228.316,0.424194
228.1000,-1.0084,228.727,0.429631
228.0000,-2.00089,228.937,0.432422
227.9000,-1.96493,229.385,0.438341
227.8000,-2.0668,228.867,0.431492
227.7000,-3.75183,229.605,0.441245
227.6000,-3.9054,228.968,0.432827
227.5000,-2.44829,228.889,0.431777
227.4000,-3.76295,229.819,0.444072
227.3000,-2.38256,229.396,0.438491
227.2000,-1.22437,229.97,0.44606
227.1000,-4.04173,229.474,0.439524
227.0000,-1.53735,229.227,0.436259
226.9000,-5.60586,229.652,0.441873
226.8000,-2.86421,230.525,0.453374
226.7000,-3.17446,229.259,0.436679
226.6000,-2.04808,230.744,0.456252
226.5000,-4.51502,230.223,0.449405
226.4000,-2.84398,230.393,0.451644
226.3000,-1.88244,230.686,0.455492
226.2000,-2.49193,230.589,0.454224
226.1000,-4.58704,231.394,0.464795
226.0000,-2.21749,231.145,0.461523
225.9000,-1.55721,230.836,0.457473
225.8000,-3.26122,230.878,0.458024
225.7000,-2.98721,230.559,0.453822
225.6000,-1.54144,231.41,0.465003
225.5000,-0.684366,231.417,0.465092
225.4000,-4.40552,232.099,0.47403
225.3000,-3.16604,231.06,0.460407
225.2000,-2.68274,232.589,0.480446
225.1000,-4.43419,231.632,0.467916
225.0000,-3.58544,232.772,0.482828
224.9000,-3.73164,232.414,0.478151
224.8000,-2.33954,232.297,0.476625
224.7000,-4.48403,232.666,0.481452
224.6000,-4.25405,231.897,0.47139
224.5000,-1.82773,233.045,0.486392
224.4000,-3.36107,232.305,0.476728
224.3000,-2.18377,232.652,0.48126
224.2000,-3.46791,232.628,0.480949
224.1000,-3.83131,233.084,0.486909
224.0000,-4.87618,233.133,0.487545
223.9000,-2.19234,233.469,0.491916
223.8000,-3.65418,232.967,0.485372
223.7000,-2.4557,234.888,0.51036
223.6000,-5.54564,233.52,0.49258
223.5000,-4.00431,233.439,0.491532
223.4000,-3.15007,234.212,0.501584
223.3000,0.099863,233.829,0.496606
223.2000,-4.59166,234.025,0.499154
223.1000,-3.15904,234.193,0.501334
223.0000,-3.00002,234.16,0.500907
222.9000,-5.87831,234.431,0.504423
222.8000,-3.02484,233.641,0.494158
222.7000,-3.31195,234.721,0.508187
222.6000,-5.08771,235.549,0.518911
222.5000,-2.78602,235.228,0.514763
222.4000,-3.62868,235.445,0.517563
222.3000,-4.89888,234.491,0.505203
222.2000,-4.66002,234.594,0.506541
222.1000,-5.11087,235.7,0.520859
222.0000,-1.96807,235.424,0.517299
221.9000,-3.85931,235.911,0.523596
221.8000,-6.26392,235.552,0.518955
221.7000,-4.17827,235.842,0.522703
221.6000,-1.99455,235.683,0.520639
221.5000,-3.51674,234.752,0.508598
221.4000,-1.65291,236.033,0.525161
221.3000,-2.18975,235.172,0.51403
221.2000,-4.82976,235.846,0.522747
221.1000,-2.59291,235.976,0.52443
221.0000,-2.56166,237.764,0.54744
220.9000,-2.70888,236.876,0.536026
220.8000,-4.8097,236.684,0.533561
220.7000,-5.10847,236.767,0.534626
220.6000,-3.0326,237.435,0.543222
220.5000,-3.82562,237.481,0.543804
220.4000,-3.33881,237.454,0.543455
220.3000,-3.84019,237.84,0.548414
220.2000,-3.01649,237.314,0.541665
220.1000,-3.52511,237.837,0.548371
220.0000,-3.74574,237.03,0.538009
219.9000,-6.85592,238.428,0.555949
219.8000,-3.57107,238.213,0.553192
219.7000,-1.62024,237.414,0.542946
219.6000,-4.82957,239.177,0.565524
219.5000,-3.51582,237.512,0.544212
219.4000,-5.66427,238.465,0.556428
219.3000,-2.19856,237.55,0.544692
219.2000,-4.82386,238.273,0.553962
219.1000,-3.23707,238.016,0.550666
219.0000,-4.96948,238.908,0.562093
218.9000,-4.84585,238.145,0.552322
218.8000,-1.84687,239.698,0.572172
218.7000,-2.79963,239.534,0.570078
218.6000,-3.02486,239.34,0.567606
218.5000,-4.22356,238.962,0.562774
218.4000,-0.0410951,239.345,0.567664
218.3000,-3.36966,238.35,0.554949
218.2000,-4.63134,239.831,0.573861
218.1000,-2.33238,240.041,0.576544
218.0000,-3.77714,240.372,0.580754
217.9000,-4.81428,240.39,0.580984
217.8000,-4.52453,240.318,0.580062
217.7000,-1.58189,240.679,0.584656
217.6000,-3.59389,240.869,0.587058
217.5000,-4.90212,240.625,0.583965
217.4000,-5.63393,240.086,0.577107
217.3000,-5.03232,241.114,0.590178
217.2000,-3.80495,241.129,0.590364
217.1000,-4.53817,240.73,0.585303
217.0000,-3.14675,241.61,0.596452
216.9000,-3.40232,241.943,0.600667
216.8000,-2.26017,241.246,0.591844
216.7000,-4.37006,241.348,0.593137
216.6000,-3.07026,241.479,0.594802
216.5000,-4.31217,241.326,0.592864
216.4000,-3.53737,241.559,0.595806
216.3000,-5.00562,242.201,0.603932
216.2000,-4.89512,242.189,0.603775
216.1000,-4.50686,242.847,0.612083
216.0000,-3.06415,242.186,0.603746
215.9000,-1.45594,242.858,0.612226
215.8000,-4.32663,242.238,0.604405
215.7000,-3.04776,243.13,0.615653
215.6000,-4.81358,241.926,0.600452
215.5000,-1.38177,242.746,0.610812
215.4000,-2.02234,243.553,0.620972
215.3000,-5.21742,243.537,0.620773
215.2000,-5.25088,243.062,0.614797
215.1000,-2.55315,242.951,0.613398
215.0000,-5.16903,243.553,0.620972
214.9000,-4.92696,243.547,0.620901
214.8000,-2.67835,243.483,0.620089
214.7000,-4.666,243.468,0.619903
214.6000,-3.09039,243.888,0.625188
214.5000,-3.89121,243.623,0.621856
214.4000,-2.60755,244.235,0.629541
214.3000,-3.15862,244.296,0.630309
214.2000,-2.98321,244.684,0.635167
214.1000,-3.41112,244.448,0.632213
214.0000,-4.85565,244.979,0.63887
213.9000,-4.56014,244.977,0.638842
213.8000,-5.46837,244.437,0.632071
213.7000,-4.17088,245.497,0.645346
213.6000,-4.85218,245.293,0.642797
213.5000,-5.64671,245.53,0.645756
213.4000,-3.16102,244.251,0.62974
213.3000,-0.532883,245.196,0.641578
213.2000,-0.7894,246.183,0.653901
213.1000,-5.19345,245.654,0.647299
213.0000,-4.27152,245.526,0.6457
212.9000,-3.12988,246.335,0.655793
212.8000,-4.3509,246.256,0.654819
212.7000,-2.07664,245.805,0.649194
212.6000,-2.69966,246.077,0.652587
212.5000,-3.73637,246.43,0.656979
212.4000,-5.97121,246.518,0.658079
212.3000,-4.15426,246.197,0.654084
212.2000,-4.08534,246.286,0.655186
212.1000,-4.95099,247.26,0.667309
212.0000,-0.318504,247.148,0.665915
211.9000,-2.53172,247.307,0.667886
211.8000,-6.22949,247.444,0.669588
211.7000,-5.25262,247.845,0.674564
211.6000,-2.32117,248.117,0.677933
211.5000,-4.67226,247.772,0.673665
211.4000,-3.93679,247.916,0.675448
211.3000,-3.05565,247.679,0.672512
211.2000,-5.69202,248.354,0.680865
211.1000,-0.601915,248.026,0.67681
211.0000,-3.71163,249.081,0.689856
210.9000,-3.9711,248.843,0.686917
210.8000,-7.79521,249.282,0.692331
210.7000,-3.71416,249.326,0.692876
210.6000,-2.19402,248.533,0.68308
210.5000,-5.93395,249.546,0.695587
210.4000,-1.5393,249.122,0.69036
210.3000,-4.86887,249.755,0.69817
210.2000,-6.61391,250.114,0.702591
210.1000,-3.43404,250.496,0.707286
210.0000,-5.19811,249.736,0.697932
209.9000,-3.78927,250.306,0.704947
209.8000,-2.20002,250.246,0.704208
209.7000,-2.90411,250.797,0.710974
209.6000,-4.33731,250.876,0.711948
209.5000,-5.2438,250.649,0.709166
209.4000,-4.11489,251.031,0.713852
209.3000,-5.49824,251.736,0.722487
209.2000,-3.64133,251.876,0.724206
209.1000,-4.36061,252.172,0.727821
209.0000,-5.44876,252.578,0.732775
208.9000,-5.84117,251.697,0.722015
208.8000,-6.95785,252.189,0.728029
208.7000,-3.66484,252.961,0.737446
208.6000,-6.56265,252.858,0.736189
208.5000,-5.65487,252.65,0.73366
208.4000,-4.16438,253.143,0.739668
208.3000,-0.718986,252.313,0.729538
208.2000,-1.28912,252.784,0.73529
208.1000,-3.24674,253.833,0.748064
208.0000,-7.49943,253.788,0.747514
207.9000,-2.30193,254.684,0.758392
207.8000,-2.65991,254.668,0.7582
207.7000,-2.80796,255.056,0.762893
207.6000,-3.15202,254.959,0.761727
207.5000,-3.78562,255.501,0.76828
207.4000,-5.11448,255.15,0.764032
207.3000,-3.40562,255.33,0.766211
207.2000,-4.02972,254.915,0.761192
207.1000,-3.70749,254.957,0.7617
207.0000,-1.66387,256.376,0.778839
206.9000,-4.17228,255.476,0.767979
206.8000,-3.38284,256.455,0.779795
206.7000,0.51818,255.946,0.773659
206.6000,-3.32718,256.489,0.780204
206.5000,-1.07784,256.702,0.78277
206.4000,-4.50448,257.094,0.787488
206.3000,-1.64819,256.986,0.786193
206.2000,-1.83833,257.667,0.794376
206.1000,1.21295,257.901,0.797177
206.0000,-2.46038,257.969,0.797992
205.9000,-4.97758,258.053,0.798997
205.8000,-2.82118,257.877,0.796891
205.7000,-1.34336,258.199,0.800749
205.6000,-3.09222,258.931,0.80951
205.5000,-3.42273,259.237,0.813166
205.4000,-3.66017,258.905,0.809199
205.3000,-2.13352,259.083,0.811325
205.2000,1.27993,259.885,0.820898
205.1000,-6.67543,259.376,0.81483
205.0000,-4.16553,260.198,0.824624
204.9000,-2.16976,260.585,0.829235
204.8000,-3.91997,259.855,0.820547
204.7000,-3.44044,260.416,0.827227
204.6000,0.0890394,260.685,0.83042
204.5000,-0.455781,261.881,0.844618
204.4000,0.0937463,261.253,0.837163
204.3000,-2.63807,262.505,0.851991
204.2000,-3.63311,262.071,0.846858
204.1000,-1.34772,261.416,0.839099
204.0000,-0.056907,262.849,0.85606
203.9000,2.2599,263.191,0.860098
203.8000,0.781105,263.195,0.860138
203.7000,-2.73808,263.486,0.863571
203.6000,2.48046,264.378,0.874064
203.5000,2.45383,263.608,0.865013
203.4000,2.59933,264.299,0.873145
203.3000,-0.41793,263.915,0.868628
203.2000,-0.0469942,264.788,0.878881
203.1000,2.71842,264.834,0.879426
203.0000,1.08807,264.378,0.874064
202.9000,2.56628,265.659,0.889092
202.8000,1.80134,265.937,0.892339
202.7000,-0.0867897,265.623,0.888668
202.6000,1.71139,266.44,0.898217
202.5000,0.212977,267.472,0.910249
202.4000,1.47365,266.043,0.893585
202.3000,1.72975,266.853,0.903043
202.2000,-0.365195,267.767,0.913676
202.1000,4.13176,267.311,0.908376
202.0000,2.54703,267.721,0.913149
201.9000,-2.22365,268.987,0.927837
201.8000,1.49894,268.485,0.922019
201.7000,-1.14205,269.14,0.929609
201.6000,2.18095,268.867,0.926446
201.5000,3.09371,269.012,0.928126
201.4000,1.43061,269.92,0.938636
201.3000,-1.31529,270.076,0.940429
201.2000,-0.271047,269.652,0.935533
201.1000,2.61426,270.605,0.946532
201.0000,-0.17848,270.378,0.943919
200.9000,2.44389,271.049,0.951648
200.8000,2.28311,270.76,0.948321
200.7000,-2.00724,270.77,0.948438
200.6000,6.70762,269.361,0.932166
200.5000,7.08068,272.093,0.96364
200.4000,2.34874,272.053,0.963185
200.3000,0.435395,273.073,0.974868
200.2000,4.66434,272.507,0.968395
200.1000,0.0451749,274.039,0.985907
200.0000,5.31918,273.8,0.98318
199.9000,10.1316,273.491,0.979647
199.8000,5.12055,274.169,0.987393
199.7000,3.41719,274.06,0.98614
199.6000,4.23718,274.683,0.99324
199.5000,3.34981,275.025,0.997133
199.4000,4.71904,274.903,0.995742
199.3000,6.42603,274.939,0.996154
199.2000,5.18457,275.585,1.00349
199.1000,5.70292,275.588,1.00353
199.0000,4.75312,275.965,1.00781
198.9000,7.51323,275.121,0.998228
198.8000,7.59123,276.041,1.00867
198.7000,7.76175,276.619,1.01522
198.6000,4.71925,277.945,1.03019
198.5000,4.7885,277.403,1.02408
198.4000,6.30722,277.836,1.02896
198.3000,9.12734,277.587,1.02615
198.2000,7.7131,278.303,1.03423
198.1000,6.02651,278.593,1.03749
198.0000,8.69818,278.494,1.03638
197.9000,7.43957,279.044,1.04256
197.8000,7.21105,279.454,1.04717
197.7000,10.5112,279.157,1.04383
197.6000,5.9721,279.216,1.04449
197.5000,12.8992,279.64,1.04925
197.4000,4.8582,279.959,1.05283
197.3000,5.33077,279.996,1.05324
197.2000,8.09898,280.533,1.05925
197.1000,13.7578,279.387,1.04641
197.0000,7.74744,280.853,1.06284
196.9000,13.076,280.45,1.05832
196.8000,10.7056,281.217,1.0669
196.7000,5.61295,280.908,1.06344
196.6000,13.2484,280.995,1.06442
196.5000,10.6658,282.076,1.07647
196.4000,12.2713,282.637,1.08271
196.3000,6.14215,281.619,1.07138
196.2000,8.85915,283.023,1.08701
196.1000,8.88276,283.953,1.09732
196.0000,13.1996,282.17,1.07752
195.9000,7.75856,283.974,1.09755
195.8000,10.9457,283.515,1.09246
195.7000,10.5168,283.859,1.09628
195.6000,7.06473,283.657,1.09403
195.5000,10.7233,283.652,1.09398
195.4000,7.65458,283.622,1.09364
195.3000,7.82926,283.972,1.09752
195.2000,10.0722,283.858,1.09627
195.1000,9.06487,284.497,1.10334
195.0000,15.2212,284.583,1.10429
194.9000,10.4905,284.411,1.10239
194.8000,9.88219,284.363,1.10185
194.7000,14.4812,284.465,1.10297
194.6000,9.26086,285.124,1.11026
194.5000,14.8142,284.982,1.1087
194.4000,15.7503,285.395,1.11325
194.3000,10.5197,285.663,1.11621
194.2000,9.26415,285.769,1.11737
194.1000,8.24637,285.673,1.11632
194.0000,17.0002,285.504,1.11445
193.9000,10.0812,286.165,1.12173
193.8000,12.6135,286.179,1.12188
193.7000,15.2905,286.95,1.13036
193.6000,15.0623,285.975,1.11964
193.5000,12.6739,286.825,1.12898
193.4000,12.1755,287.082,1.1318
193.3000,14.7119,287.046,1.13141
193.2000,9.33908,287.156,1.13261
193.1000,12.5666,286.937,1.13021
193.0000,12.6912,287.779,1.13944
192.9000,8.5076,286.805,1.12877
192.8000,11.441,287.256,1.13372
192.7000,12.1131,287.451,1.13586
192.6000,11.3809,287.495,1.13634
192.5000,8.65348,287.539,1.13681
192.4000,10.3479,288.03,1.1422
192.3000,11.7274,287.255,1.13371
192.2000,8.39201,288.247,1.14456
192.1000,15.6091,288.106,1.14303
192.0000,6.1087,288.421,1.14647
191.9000,6.36422,288.657,1.14905
191.8000,13.0732,287.976,1.1416
191.7000,11.4119,288.244,1.14454
191.6000,9.91862,288.136,1.14335
191.5000,6.20087,288.567,1.14807
191.4000,16.5458,288.382,1.14604
191.3000,9.10484,288.619,1.14864
191.2000,8.25778,288.626,1.14871
191.1000,13.471,289.081,1.15367
191.0000,17.793,289.211,1.15509
190.9000,13.3353,289.425,1.15743
190.8000,9.67035,289.644,1.15981
190.7000,15.5837,289.484,1.15807
190.6000,14.6713,290.504,1.16917
190.5000,12.6381,290.46,1.16869
190.4000,10.9651,290.571,1.16989
190.3000,6.10783,289.958,1.16323
190.2000,13.4151,290.484,1.16896
190.1000,9.25849,290.698,1.17127
190.0000,9.3005,291.12,1.17586

##### Extended Information
[Comments]
Sample name,JN_ADProteinandAdditive
Comment,Protein and Additive
User,Jocelyn_Andrew
Division
Company,Saint Mary's College

[Detailed Information]
Creation date,9/29/2022 4:22 PM

Data array type,Linear data array * 3
Horizontal axis,Wavelength [nm]
Vertical axis(1),CD [mdeg]
Vertical axis(2),HT [V]
Vertical axis(3),Abs
Start,320 nm
End,190 nm
Data interval,0.1 nm
Data points,1301    

[Measurement Information]
Instrument name,J-1500
Model name,J-1500
Serial No.,B051061638

Detector,PM-539
Detector S/N,B051061638
  Lock-in amp.,X mode
  HT volt,Auto

Accessory,PTC-517
Accessory S/N,B026561646
  Temperature,21.57 C
  Control sensor,Holder
  Monitor sensor,Holder

Measurement date,9/29/2022 4:22 PM

CD Overload detect,1232
Photometric mode,CD, HT, Abs
Measure range,320 - 190 nm
Data pitch,0.1 nm
CD scale,20 mdeg/0.05 dOD
FL scale,20 mdeg/0.05 dOD
D.I.T.,8 msec
Bandwidth,2.00 nm
Start mode,Immediately
Scanning mode,Continuous
Scanning speed,200 nm/min
Baseline correction,None
Shutter control,Auto
No. of cycle,1/1
N2 Flowmeter,Manual

Solvent,NaPO4 buffer

