TITLE,JN_ADProteinandAdditive
DATA TYPE,
ORIGIN,JASCO
OWNER,
DATE,22/09/29
TIME,17:24:40
SPECTROMETER/DATA SYSTEM,
LOCALE,1033
RESOLUTION,
DELTAX,-0.1
XUNITS,NANOMETERS
YUNITS,CD [mdeg]
Y2UNITS,HT [V]
Y3UNITS,ABSORBANCE
FIRSTX,  320.0000
LASTX,  190.0000
NPOINTS,    1301
FIRSTY,     2.24346
MAXY,    16.50583
MINY,    -7.82684
XYDATA
320.0000,2.24346,209.113,0.160119
319.9000,1.11571,208.395,0.149859
319.8000,-0.0362378,209.127,0.160313
319.7000,-0.202393,209.205,0.161428
319.6000,1.88626,209.117,0.160168
319.5000,1.24258,209.341,0.163366
319.4000,1.14237,208.939,0.157629
319.3000,2.52788,209.455,0.164996
319.2000,0.0527292,209.179,0.161056
319.1000,2.50978,209.431,0.164641
319.0000,2.03231,209.313,0.162962
318.9000,0.461153,209.004,0.158567
318.8000,2.12814,209.764,0.169383
318.7000,0.277776,208.431,0.150377
318.6000,1.2835,208.686,0.154021
318.5000,-0.452216,209.061,0.159376
318.4000,1.4161,209.665,0.16798
318.3000,2.09719,208.878,0.156756
318.2000,1.8965,208.808,0.155769
318.1000,2.54107,208.464,0.150847
318.0000,0.997988,208.036,0.144718
317.9000,1.79242,208.938,0.157613
317.8000,1.51193,209.518,0.165883
317.7000,-1.04091,209.13,0.160361
317.6000,2.84877,208.935,0.157581
317.5000,1.19775,208.54,0.151932
317.4000,1.07359,209.275,0.162429
317.3000,1.47151,209.627,0.167432
317.2000,0.306211,209.336,0.163301
317.1000,2.09512,208.882,0.156821
317.0000,2.78473,209.617,0.167303
316.9000,0.200431,209.432,0.164657
316.8000,1.69205,209.297,0.162736
316.7000,1.48353,208.754,0.154993
316.6000,1.99128,209.156,0.160733
316.5000,0.65829,207.84,0.141909
316.4000,3.21526,208.06,0.145058
316.3000,1.07973,209.296,0.16272
316.2000,0.301465,208.692,0.154102
316.1000,0.974211,209.095,0.15986
316.0000,1.50846,209.3,0.162784
315.9000,0.895726,208.389,0.149778
315.8000,1.59845,208.441,0.150523
315.7000,1.40986,208.7,0.154215
315.6000,1.95288,208.622,0.153098
315.5000,2.76137,208.957,0.157888
315.4000,1.23271,208.431,0.150377
315.3000,1.92628,209.304,0.162833
315.2000,0.25189,209.454,0.16498
315.1000,0.366733,208.674,0.153843
315.0000,2.3727,209.147,0.160604
314.9000,1.79816,208.908,0.157193
314.8000,1.75816,208.111,0.145789
314.7000,0.9948,208.938,0.157613
314.6000,0.671202,209.215,0.161573
314.5000,1.46821,209.088,0.159763
314.4000,2.03361,208.673,0.153827
314.3000,1.51126,208.223,0.147394
314.2000,0.260887,208.464,0.150847
314.1000,1.77256,209.088,0.159763
314.0000,0.31024,208.755,0.155009
313.9000,0.234254,208.296,0.148448
313.8000,0.306041,208.526,0.151738
313.7000,0.643393,208.036,0.144718
313.6000,0.647534,209.004,0.158567
313.5000,1.82866,208.291,0.148367
313.4000,2.0192,208.35,0.14921
313.3000,1.10606,207.759,0.140755
313.2000,-0.979403,208.347,0.149178
313.1000,1.66453,208.811,0.155802
313.0000,1.28751,208.382,0.14968
312.9000,1.88778,208.079,0.145334
312.8000,2.22811,208.574,0.152418
312.7000,1.41188,208.507,0.151463
312.6000,2.68672,208.667,0.153746
312.5000,0.850599,208.548,0.152046
312.4000,1.01156,208.754,0.154993
312.3000,1.06951,208.359,0.14934
312.2000,0.970946,208.055,0.144993
312.1000,-0.272596,208.661,0.153665
312.0000,1.82821,208.277,0.148173
311.9000,2.17395,207.958,0.143598
311.8000,3.43373,209.355,0.16356
311.7000,0.255852,208.476,0.151025
311.6000,-1.64676,208.846,0.156303
311.5000,1.01739,208.957,0.157888
311.4000,0.991782,209.014,0.158696
311.3000,1.41048,208.799,0.15564
311.2000,2.29507,208.395,0.149859
311.1000,2.03316,208.381,0.149664
311.0000,0.579237,208.917,0.157322
310.9000,-2.0102,208.634,0.153276
310.8000,1.07069,209.793,0.169802
310.7000,0.744939,208.396,0.149875
310.6000,1.34986,208.947,0.157743
310.5000,3.06804,208.261,0.147946
310.4000,3.00496,208.798,0.155623
310.3000,1.40482,208.931,0.157516
310.2000,1.28492,209.547,0.166303
310.1000,0.0837331,208.65,0.153503
310.0000,1.49762,208.368,0.149469
309.9000,1.55232,209.826,0.17027
309.8000,0.88503,208.174,0.146697
309.7000,1.40058,209.191,0.161234
309.6000,0.76381,208.452,0.150669
309.5000,1.21177,208.597,0.152742
309.4000,0.468967,208.33,0.148935
309.3000,1.76194,208.359,0.14934
309.2000,2.0517,208.748,0.154912
309.1000,0.836529,208.903,0.157112
309.0000,0.137102,208.515,0.151576
308.9000,2.18152,208.949,0.157775
308.8000,1.19916,209.125,0.16028
308.7000,1.52537,208.465,0.150863
308.6000,2.46725,208.901,0.157096
308.5000,2.63222,208.769,0.155203
308.4000,0.832926,208.586,0.152596
308.3000,2.34841,208.859,0.156497
308.2000,0.00411476,208.767,0.15517
308.1000,1.3345,209.01,0.158648
308.0000,0.494471,208.73,0.154652
307.9000,-0.711831,207.867,0.142299
307.8000,0.732888,208.497,0.151317
307.7000,1.34353,208.329,0.148919
307.6000,0.471955,208.439,0.150491
307.5000,-0.34475,208.116,0.14587
307.4000,-0.697415,208.725,0.154571
307.3000,0.446986,208.339,0.149064
307.2000,1.94334,208.524,0.151706
307.1000,2.26601,208.252,0.147816
307.0000,0.00499668,208.608,0.152904
306.9000,2.28167,207.897,0.142737
306.8000,0.869042,208.787,0.155462
306.7000,3.20608,208.425,0.150296
306.6000,-0.262397,208.759,0.155057
306.5000,2.45956,208.243,0.147686
306.4000,1.34589,207.894,0.142688
306.3000,0.900591,208.568,0.152337
306.2000,1.90333,208.649,0.153487
306.1000,0.720015,208.2,0.14707
306.0000,3.44776,208.89,0.156934
305.9000,0.550851,208.765,0.155154
305.8000,1.05383,208.609,0.15292
305.7000,-0.204316,208.023,0.144539
305.6000,0.341489,208.763,0.155122
305.5000,1.11157,208.626,0.153163
305.4000,2.61077,208.514,0.15156
305.3000,0.356839,208.057,0.145026
305.2000,1.04022,208.674,0.153843
305.1000,1.23174,208.836,0.156157
305.0000,1.41167,208.388,0.149761
304.9000,1.4142,208.321,0.148805
304.8000,3.01158,208.496,0.151301
304.7000,1.82367,208.259,0.147913
304.6000,0.477009,209.02,0.158794
304.5000,1.06058,208.445,0.150572
304.4000,-0.250217,208.063,0.145107
304.3000,2.13147,208.728,0.15462
304.2000,2.251,208.253,0.147832
304.1000,1.20462,207.963,0.143679
304.0000,-0.304353,208.627,0.153179
303.9000,0.908146,208.135,0.146145
303.8000,0.303012,208.448,0.15062
303.7000,1.46262,208.166,0.146583
303.6000,3.56305,208.475,0.151009
303.5000,0.475594,208.239,0.147622
303.4000,1.04696,208.619,0.153066
303.3000,1.15115,209.049,0.159198
303.2000,1.15531,208.778,0.155332
303.1000,0.409608,208.711,0.154377
303.0000,1.60616,208.125,0.146
302.9000,1.25856,208.816,0.155882
302.8000,0.842124,209.058,0.159327
302.7000,1.30888,207.746,0.140561
302.6000,0.188953,208.486,0.151155
302.5000,1.80539,208.348,0.149194
302.4000,-1.49995,207.764,0.14082
302.3000,0.431385,207.942,0.14337
302.2000,1.06834,207.987,0.14402
302.1000,-0.287481,208.449,0.150636
302.0000,1.57171,208.171,0.146648
301.9000,0.623267,208.307,0.148594
301.8000,1.69488,208.155,0.146421
301.7000,2.61351,208.011,0.14436
301.6000,-0.594645,208.26,0.147929
301.5000,1.52902,208.064,0.145123
301.4000,2.73455,207.69,0.139764
301.3000,2.18426,208.575,0.152434
301.2000,1.94712,208.385,0.149713
301.1000,2.13474,207.817,0.141584
301.0000,0.682079,207.796,0.141275
300.9000,0.474671,207.934,0.143257
300.8000,0.355527,208.302,0.148529
300.7000,1.41224,208.593,0.152694
300.6000,0.0621232,208.241,0.147654
300.5000,1.52863,207.087,0.131108
300.4000,0.822942,207.797,0.141292
300.3000,1.67331,207.936,0.143289
300.2000,1.1151,208.265,0.147994
300.1000,0.67218,208.835,0.156141
300.0000,1.47296,208.556,0.152159
299.9000,-0.4003,207.292,0.134056
299.8000,1.10786,207.333,0.134641
299.7000,3.08481,207.947,0.143451
299.6000,1.24575,207.604,0.138529
299.5000,1.0288,207.818,0.1416
299.4000,-0.0302014,208.478,0.151042
299.3000,1.24415,208.057,0.145026
299.2000,0.547982,208.328,0.148902
299.1000,0.744498,208.612,0.152969
299.0000,0.766674,208.608,0.152904
298.9000,0.817208,208.816,0.155882
298.8000,0.0278738,208.106,0.145724
298.7000,0.0172881,207.774,0.140967
298.6000,2.12222,208.68,0.15394
298.5000,-0.689358,207.822,0.141649
298.4000,2.0266,208.157,0.146454
298.3000,0.396354,207.325,0.134527
298.2000,4.22213,208.299,0.148481
298.1000,0.0493052,207.986,0.144003
298.0000,0.37476,207.993,0.144101
297.9000,0.599613,208.487,0.151171
297.8000,0.404561,208.291,0.148367
297.7000,2.17889,207.788,0.141162
297.6000,0.187437,208.188,0.146892
297.5000,1.28374,207.462,0.136496
297.4000,0.864227,208.6,0.152791
297.3000,0.957793,207.254,0.133502
297.2000,0.834349,207.934,0.143257
297.1000,0.82024,208.314,0.148708
297.0000,1.95933,207.316,0.134397
296.9000,0.817303,207.537,0.13757
296.8000,-0.0602374,207.61,0.13861
296.7000,0.221831,208.109,0.145772
296.6000,1.29033,208.263,0.147978
296.5000,0.372204,207.431,0.136041
296.4000,1.42131,207.669,0.139455
296.3000,1.79796,208.926,0.157451
296.2000,1.26048,207.846,0.142006
296.1000,1.42717,208.631,0.153228
296.0000,0.18256,207.504,0.137098
295.9000,1.03971,207.914,0.14298
295.8000,1.70252,207.871,0.142364
295.7000,0.372337,207.752,0.140658
295.6000,0.105648,208.046,0.144864
295.5000,0.465772,207.539,0.137602
295.4000,1.39384,207.445,0.136252
295.3000,1.66267,207.829,0.141762
295.2000,0.00966265,207.311,0.134316
295.1000,1.77727,207.16,0.13215
295.0000,0.605265,207.366,0.135113
294.9000,0.724132,207.471,0.136626
294.8000,1.9558,207.427,0.135992
294.7000,2.09724,208.18,0.146778
294.6000,-0.422444,207.797,0.141292
294.5000,0.480092,207.482,0.136773
294.4000,1.21116,207.475,0.136675
294.3000,1.53968,208.091,0.145513
294.2000,1.5532,207.109,0.131417
294.1000,0.507602,208.475,0.151009
294.0000,1.49601,206.771,0.12656
293.9000,1.90817,207.397,0.135553
293.8000,1.01852,206.983,0.129609
293.7000,4.26813,208.046,0.144864
293.6000,1.62002,207.738,0.140447
293.5000,0.488813,206.819,0.127245
293.4000,1.4802,207.524,0.137374
293.3000,1.55774,207.58,0.138187
293.2000,1.79381,207.528,0.137439
293.1000,1.11706,206.869,0.127963
293.0000,2.07305,207.146,0.131955
292.9000,0.92338,208.1,0.145642
292.8000,0.346813,207.385,0.13539
292.7000,0.729592,207.64,0.139049
292.6000,1.41963,207.709,0.14004
292.5000,1.56341,208.223,0.147394
292.4000,1.47232,207.45,0.136317
292.3000,3.65948,207.337,0.13469
292.2000,0.278524,207.217,0.132965
292.1000,1.46878,207.032,0.13031
292.0000,1.1396,207.451,0.136334
291.9000,-0.443468,207.26,0.133583
291.8000,3.58322,206.989,0.12969
291.7000,-1.50674,207.699,0.139894
291.6000,1.54014,207.767,0.140869
291.5000,1.5538,206.903,0.128452
291.4000,0.708739,206.861,0.127848
291.3000,0.999845,207.406,0.135683
291.2000,0.996134,207.115,0.131499
291.1000,0.970659,207.179,0.132427
291.0000,-1.0569,207.041,0.13044
290.9000,0.647291,206.631,0.124537
290.8000,0.234266,208.032,0.144669
290.7000,1.33886,207.033,0.130326
290.6000,1.64385,207.303,0.134202
290.5000,1.30007,207.138,0.131841
290.4000,0.716649,207.435,0.136106
290.3000,0.845342,207.964,0.143695
290.2000,2.20225,206.724,0.125875
290.1000,1.23032,207.464,0.136512
290.0000,0.244777,206.973,0.129462
289.9000,0.547985,207.61,0.13861
289.8000,1.61101,207.775,0.140983
289.7000,0.261165,206.351,0.120504
289.6000,1.41107,208.514,0.15156
289.5000,0.848851,207.066,0.130799
289.4000,0.566917,207.597,0.138431
289.3000,1.64561,207.228,0.133127
289.2000,-0.416152,207.001,0.12987
289.1000,1.7032,207.019,0.13013
289.0000,0.668271,207.548,0.137732
288.9000,2.01683,207.662,0.139358
288.8000,0.788739,208.177,0.146746
288.7000,0.292216,207.747,0.140577
288.6000,0.328401,207.68,0.139618
288.5000,1.76009,207.161,0.132167
288.4000,0.542302,207.832,0.141795
288.3000,1.45591,206.985,0.129641
288.2000,0.964315,207.729,0.140317
288.1000,-0.0574345,207.173,0.132346
288.0000,1.6875,207.482,0.136773
287.9000,2.01924,206.575,0.123737
287.8000,1.22254,207.073,0.130896
287.7000,1.24179,206.869,0.127963
287.6000,1.52444,207.255,0.133518
287.5000,-0.162439,206.837,0.127506
287.4000,0.74156,207.384,0.135374
287.3000,4.3438,207.559,0.137879
287.2000,1.28803,207.179,0.132427
287.1000,0.37829,207.713,0.140089
287.0000,0.477519,206.615,0.124308
286.9000,0.987724,207.413,0.13578
286.8000,0.752996,207.88,0.142493
286.7000,0.0755649,207.031,0.130293
286.6000,-1.12169,206.626,0.124472
286.5000,1.74683,207.579,0.138171
286.4000,0.906102,207.333,0.134641
286.3000,1.51386,207.277,0.133828
286.2000,1.23106,207.346,0.13482
286.1000,1.23396,207.977,0.143873
286.0000,0.717731,207.535,0.137537
285.9000,1.21244,206.87,0.127979
285.8000,0.0551787,206.899,0.128403
285.7000,2.8189,207.758,0.140739
285.6000,0.220694,207.649,0.139179
285.5000,1.47664,207.332,0.134625
285.4000,1.60528,207.85,0.142055
285.3000,0.503183,206.958,0.129251
285.2000,1.39019,207.416,0.135829
285.1000,1.57218,207.32,0.134446
285.0000,2.21904,206.764,0.126462
284.9000,0.400083,207.26,0.133583
284.8000,0.523874,207.38,0.135309
284.7000,0.496116,207.544,0.137667
284.6000,1.46358,206.437,0.121745
284.5000,1.83158,206.759,0.126381
284.4000,1.96381,207.278,0.133844
284.3000,1.83148,207.475,0.136675
284.2000,1.88648,207,0.129853
284.1000,1.59613,207.773,0.14095
284.0000,1.73017,206.854,0.127751
283.9000,1.46041,206.258,0.119164
283.8000,2.53506,206.769,0.126527
283.7000,1.65411,207.104,0.131352
283.6000,0.743231,206.806,0.127066
283.5000,0.763596,207.07,0.130864
283.4000,0.652151,207.407,0.135699
283.3000,1.36958,207.483,0.136789
283.2000,0.306113,207.41,0.135748
283.1000,1.39147,207.087,0.131108
283.0000,0.36509,207.013,0.130033
282.9000,-0.928309,207.136,0.131808
282.8000,0.737851,207.326,0.134544
282.7000,3.01384,207.127,0.131678
282.6000,2.39989,207.342,0.134771
282.5000,1.37055,207.096,0.131238
282.4000,0.00595497,208.432,0.150393
282.3000,1.75052,207.639,0.139033
282.2000,1.56142,207.547,0.137716
282.1000,-0.344636,206.722,0.125859
282.0000,2.37512,207.135,0.131792
281.9000,1.42763,207.037,0.130391
281.8000,2.18065,206.815,0.127196
281.7000,-0.386691,207.655,0.13926
281.6000,0.0609853,207.943,0.143386
281.5000,0.658875,207.112,0.131466
281.4000,0.447069,207.615,0.138692
281.3000,0.153599,207.161,0.132167
281.2000,0.0363322,206.746,0.126201
281.1000,0.939163,207.006,0.129935
281.0000,0.789733,206.805,0.12705
280.9000,0.0855304,206.396,0.121157
280.8000,0.664095,206.716,0.125761
280.7000,-0.132872,207.749,0.140609
280.6000,2.51048,207.034,0.130342
280.5000,1.20544,206.957,0.129234
280.4000,-0.300027,207.724,0.140252
280.3000,1.29235,207.335,0.134674
280.2000,2.46596,207.456,0.136398
280.1000,2.58876,206.997,0.129804
280.0000,-1.45195,207.724,0.140252
279.9000,0.429793,206.829,0.127392
279.8000,1.63685,207.379,0.135292
279.7000,0.698743,207.016,0.130082
279.6000,-0.760735,207.773,0.14095
279.5000,0.817536,207.162,0.132183
279.4000,1.78474,207.484,0.136805
279.3000,0.437716,207.422,0.13591
279.2000,1.31762,206.718,0.125793
279.1000,1.7904,207.657,0.139293
279.0000,2.02516,206.771,0.12656
278.9000,2.26237,207.394,0.13552
278.8000,0.863456,207.724,0.140252
278.7000,1.76306,206.589,0.123933
278.6000,-0.0656961,206.57,0.123656
278.5000,-1.15038,207.708,0.140024
278.4000,1.92824,207.261,0.1336
278.3000,0.727809,207.223,0.133062
278.2000,-0.315363,206.787,0.126788
278.1000,-0.0485771,208.524,0.151706
278.0000,1.37818,208.202,0.147102
277.9000,2.48924,207.365,0.135097
277.8000,0.176168,207.21,0.132867
277.7000,-0.0603771,207.301,0.134186
277.6000,2.44892,208.02,0.14449
277.5000,0.899476,208.267,0.148027
277.4000,0.131477,207.797,0.141292
277.3000,0.688644,207.863,0.14225
277.2000,0.803314,207.609,0.138594
277.1000,0.66195,207.512,0.137212
277.0000,0.808637,207.367,0.13513
276.9000,2.19701,207.779,0.141031
276.8000,0.661207,207.655,0.13926
276.7000,2.03661,207.483,0.136789
276.6000,0.0156964,207.996,0.14415
276.5000,1.06618,207.669,0.139455
276.4000,1.16052,207.38,0.135309
276.3000,-0.0766043,207.27,0.13373
276.2000,0.985518,207.687,0.139715
276.1000,0.345457,207.193,0.132623
276.0000,1.66798,207.406,0.135683
275.9000,1.53037,207.125,0.131646
275.8000,0.590267,207.071,0.13088
275.7000,0.343246,207.419,0.135878
275.6000,-1.17376,207.798,0.141308
275.5000,1.56695,207.373,0.135211
275.4000,0.553794,208.115,0.145853
275.3000,1.17839,207.185,0.132509
275.2000,0.454995,207.53,0.137472
275.1000,0.157081,207.309,0.1343
275.0000,1.02442,207.97,0.143776
274.9000,0.330011,207.827,0.14173
274.8000,1.39675,206.814,0.12718
274.7000,2.42129,207.411,0.135764
274.6000,1.66936,206.906,0.1285
274.5000,0.992787,207.816,0.141568
274.4000,-0.306708,206.891,0.128289
274.3000,0.311982,207.111,0.13145
274.2000,1.17236,207.721,0.140203
274.1000,1.03252,206.509,0.12279
274.0000,1.23961,207.601,0.13848
273.9000,1.61491,207.313,0.134348
273.8000,0.206468,207.679,0.139602
273.7000,0.524144,207.654,0.139244
273.6000,-0.595985,207.052,0.130603
273.5000,0.270503,207.224,0.133079
273.4000,2.021,208.12,0.145918
273.3000,1.10615,207.684,0.139683
273.2000,1.19381,207.503,0.137082
273.1000,1.99145,208.199,0.147054
273.0000,1.91354,207.921,0.143078
272.9000,0.892684,207.86,0.142201
272.8000,0.417269,207.995,0.144133
272.7000,0.132823,207.613,0.138659
272.6000,2.10827,207.766,0.140853
272.5000,1.5697,207.578,0.138155
272.4000,1.32682,207.732,0.140365
272.3000,0.201771,207.297,0.13412
272.2000,1.26039,207.296,0.134104
272.1000,0.750154,207.389,0.135439
272.0000,0.15609,207.655,0.13926
271.9000,1.37438,207.081,0.13101
271.8000,1.80199,208.433,0.15041
271.7000,0.184286,208.295,0.148432
271.6000,-0.14261,207.256,0.133534
271.5000,0.976943,207.465,0.136529
271.4000,0.929433,207.861,0.142217
271.3000,2.01075,207.181,0.13246
271.2000,0.576841,207.423,0.135927
271.1000,-0.20474,207.16,0.13215
271.0000,2.46686,207.59,0.138334
270.9000,0.0672981,207.828,0.141746
270.8000,0.98667,208.124,0.145983
270.7000,-0.371201,207.267,0.133697
270.6000,1.5273,208.636,0.153309
270.5000,1.37163,208.055,0.144993
270.4000,1.31159,208.501,0.151382
270.3000,2.31853,207.86,0.142201
270.2000,0.539839,207.879,0.142477
270.1000,0.874828,207.534,0.137521
270.0000,1.54768,207.504,0.137098
269.9000,0.857754,208.075,0.145286
269.8000,0.7224,207.68,0.139618
269.7000,1.63024,207.999,0.144198
269.6000,0.0373763,207.91,0.142916
269.5000,0.544709,208.291,0.148367
269.4000,1.75553,208.099,0.145626
269.3000,1.47546,206.982,0.129593
269.2000,0.461894,207.943,0.143386
269.1000,-0.918317,208.107,0.14574
269.0000,0.685348,208.459,0.150782
268.9000,0.524788,207.905,0.142851
268.8000,0.268066,208.415,0.15015
268.7000,-0.117409,208.906,0.15716
268.6000,0.537491,208.616,0.153017
268.5000,1.6263,208.24,0.147638
268.4000,1.28761,208.173,0.146681
268.3000,0.116851,208.384,0.149696
268.2000,-0.118519,208.455,0.150717
268.1000,1.5592,207.294,0.134072
268.0000,0.0439201,208.449,0.150636
267.9000,0.384566,208.246,0.147735
267.8000,1.1301,208.566,0.152305
267.7000,0.713197,208.36,0.149356
267.6000,-0.131423,208.785,0.155429
267.5000,1.6127,208.606,0.152872
267.4000,1.23676,208.765,0.155154
267.3000,0.131968,208.747,0.154895
267.2000,0.0993384,208.743,0.154831
267.1000,0.65339,208.605,0.152855
267.0000,0.0380887,208.639,0.153341
266.9000,-0.513193,208.602,0.152823
266.8000,-0.101081,208.5,0.151366
266.7000,1.54225,208.435,0.150426
266.6000,0.328681,208.533,0.151835
266.5000,-0.284694,208.854,0.156416
266.4000,1.80459,208.131,0.146081
266.3000,0.480545,208.634,0.153276
266.2000,0.198653,209.128,0.160329
266.1000,-0.19493,209.355,0.16356
266.0000,0.404398,209.58,0.166771
265.9000,2.70453,209.262,0.162235
265.8000,-0.738823,208.977,0.158179
265.7000,1.28236,208.727,0.154604
265.6000,1.20763,208.216,0.147297
265.5000,1.30194,208.057,0.145026
265.4000,1.22698,208.99,0.158357
265.3000,1.22126,209.236,0.161864
265.2000,-0.727875,208.378,0.149615
265.1000,0.800131,209.391,0.164076
265.0000,1.37406,209.675,0.168126
264.9000,0.485459,208.566,0.152305
264.8000,0.584597,209.85,0.170608
264.7000,1.88971,209.019,0.158777
264.6000,1.5361,209.548,0.166319
264.5000,0.3211,209.68,0.16819
264.4000,0.355319,209.222,0.16167
264.3000,-0.735434,208.997,0.158454
264.2000,1.2393,209.172,0.160959
264.1000,-0.372145,208.657,0.1536
264.0000,-0.690466,208.598,0.152758
263.9000,1.76911,209.594,0.166965
263.8000,-0.417721,208.586,0.152596
263.7000,-0.136158,209.384,0.163979
263.6000,-0.406146,210.049,0.173443
263.5000,0.790963,209.414,0.164399
263.4000,2.92114,209.165,0.160862
263.3000,0.294862,209.721,0.168771
263.2000,0.946286,209.548,0.166319
263.1000,1.39164,209.356,0.163576
263.0000,-1.26063,208.933,0.157548
262.9000,0.0608271,208.693,0.154118
262.8000,1.07709,210.337,0.17753
262.7000,1.26259,209.75,0.16919
262.6000,-1.99442,209.613,0.167239
262.5000,1.55781,208.904,0.157128
262.4000,0.94226,209.874,0.170946
262.3000,-0.994282,210.491,0.179717
262.2000,0.397051,209.596,0.166997
262.1000,-0.697246,210.216,0.175809
262.0000,1.49138,209.874,0.170946
261.9000,1.93359,210.027,0.173121
261.8000,1.00784,208.948,0.157759
261.7000,2.45183,209.499,0.165609
261.6000,1.03367,209.06,0.159359
261.5000,1.38604,209.715,0.16869
261.4000,1.51769,210.219,0.175857
261.3000,0.396705,209.509,0.165755
261.2000,0.8906,210.472,0.179444
261.1000,1.43823,209.597,0.167013
261.0000,-2.1926,209.352,0.163527
260.9000,0.551372,209.946,0.171977
260.8000,0.355898,210.634,0.181742
260.7000,0.459443,209.551,0.166351
260.6000,1.81991,210.667,0.182208
260.5000,0.511202,210.013,0.172928
260.4000,0.379008,210.721,0.182979
260.3000,1.21651,210.167,0.175117
260.2000,-0.55119,209.675,0.168126
260.1000,1.04091,210.157,0.174972
260.0000,-0.444993,210.003,0.172783
259.9000,0.266364,210.655,0.182047
259.8000,0.553694,210.101,0.174183
259.7000,1.61317,209.659,0.1679
259.6000,0.0993205,209.238,0.161896
259.5000,0.382082,209.713,0.168658
259.4000,2.17196,210.173,0.175198
259.3000,1.57212,210.362,0.177884
259.2000,0.84751,210.826,0.184472
259.1000,0.558247,210.523,0.180167
259.0000,0.104933,210.051,0.173475
258.9000,1.22009,210.433,0.178897
258.8000,0.727079,210.838,0.184632
258.7000,-0.446608,210.998,0.186895
258.6000,2.03764,210.713,0.182866
258.5000,1.90134,211.708,0.196939
258.4000,0.734891,211.189,0.189605
258.3000,-0.103347,210.908,0.185627
258.2000,0.694414,211.165,0.189268
258.1000,-1.19649,210.511,0.180006
258.0000,-0.229472,210.826,0.184472
257.9000,1.34085,211.292,0.191063
257.8000,0.164231,211.07,0.187921
257.7000,-0.432896,211.038,0.187472
257.6000,-0.326968,211.869,0.19921
257.5000,0.095606,211.86,0.199082
257.4000,1.22102,211.348,0.191848
257.3000,2.01043,211.7,0.196827
257.2000,-0.219347,210.89,0.185371
257.1000,0.128853,211.676,0.196491
257.0000,0.58669,211.774,0.197867
256.9000,1.0612,211.965,0.200569
256.8000,0.220544,211.248,0.190438
256.7000,1.16225,212.008,0.201176
256.6000,0.362125,212.027,0.201447
256.5000,0.19445,211.557,0.194811
256.4000,2.50193,211.054,0.187697
256.3000,-0.0758721,212.383,0.206461
256.2000,-0.00909814,211.352,0.191912
256.1000,-1.28808,210.952,0.186253
256.0000,0.977535,211.405,0.192665
255.9000,0.656569,211.051,0.187649
255.8000,1.04925,212.579,0.20922
255.7000,2.0879,212.217,0.204115
255.6000,-1.43882,211.878,0.199338
255.5000,1.64764,212.05,0.201767
255.4000,-1.02887,211.582,0.195163
255.3000,0.789683,211.417,0.192826
255.2000,-0.665818,212.486,0.207913
255.1000,-0.0204513,212.755,0.211691
255.0000,-0.213561,212.332,0.205743
254.9000,0.837364,212.501,0.20812
254.8000,1.72247,212.059,0.201895
254.7000,0.644368,211.673,0.196443
254.6000,1.91233,212.524,0.208439
254.5000,1.13266,212.34,0.205855
254.4000,0.485105,212.569,0.209077
254.3000,0.703564,211.915,0.199866
254.2000,1.54199,211.677,0.196507
254.1000,1.07715,212.309,0.205408
254.0000,0.338728,213.489,0.222
253.9000,0.749452,213.274,0.21898
253.8000,1.05864,212.995,0.215067
253.7000,0.560497,210.864,0.185001
253.6000,-0.331021,212.708,0.211037
253.5000,2.32362,212.595,0.209444
253.4000,0.655733,213.03,0.21556
253.3000,0.0585069,212.494,0.208024
253.2000,0.304897,212.878,0.213427
253.1000,0.263887,213.148,0.217215
253.0000,-0.84413,212.494,0.208024
252.9000,1.97829,212.637,0.210033
252.8000,-0.708931,212.989,0.214987
252.7000,1.15466,212.834,0.212806
252.6000,1.24733,212.852,0.213061
252.5000,0.534819,212.982,0.214876
252.4000,0.0927612,213.59,0.223414
252.3000,-0.650329,213.503,0.222191
252.2000,0.689993,212.974,0.214764
252.1000,2.92529,213.263,0.218821
252.0000,0.377502,213.012,0.215305
251.9000,2.22683,213.391,0.220618
251.8000,0.630428,213.618,0.223811
251.7000,1.05991,212.937,0.214255
251.6000,1.3665,212.909,0.213857
251.5000,1.12899,212.689,0.210766
251.4000,-0.64309,213.116,0.21677
251.3000,1.43941,213.018,0.215385
251.2000,0.0376508,212.634,0.209985
251.1000,-2.5641,213.749,0.225637
251.0000,0.460742,213.321,0.219648
250.9000,1.29698,213.292,0.219235
250.8000,0.70902,213.221,0.218233
250.7000,2.37775,213.675,0.224605
250.6000,-0.246587,213.573,0.223176
250.5000,-0.201531,213.542,0.222747
250.4000,-0.0839479,213.913,0.227937
250.3000,1.43785,214.238,0.232487
250.2000,0.206247,213.334,0.219823
250.1000,0.672685,213.972,0.228762
250.0000,0.382619,213.81,0.226494
249.9000,1.54732,213.571,0.223144
249.8000,2.88784,213.91,0.22789
249.7000,-0.0228917,213.757,0.225748
249.6000,0.614099,213.188,0.217772
249.5000,0.631064,213.667,0.224494
249.4000,1.92533,213.549,0.222842
249.3000,1.36165,214.091,0.230427
249.2000,2.46017,214.16,0.231394
249.1000,0.764795,213.522,0.222461
249.0000,0.844043,214.376,0.234419
248.9000,0.394787,213.512,0.222318
248.8000,0.359904,213.597,0.223509
248.7000,0.108718,213.354,0.220109
248.6000,-1.22608,214.236,0.232455
248.5000,-1.01426,214.447,0.2354
248.4000,1.03714,213.964,0.228651
248.3000,1.70941,214.24,0.232518
248.2000,1.89827,214.467,0.235685
248.1000,-0.102214,213.633,0.224018
248.0000,2.9765,213.82,0.226637
247.9000,1.79888,214.662,0.238407
247.8000,0.799606,213.677,0.224637
247.7000,1.69424,214.227,0.232328
247.6000,0.0432281,214.631,0.23798
247.5000,-0.39451,214.487,0.23597
247.4000,1.15347,214.77,0.239909
247.3000,2.33547,214.873,0.241347
247.2000,2.63341,214.041,0.229729
247.1000,2.5539,215.068,0.244064
247.0000,1.27663,214.273,0.232978
246.9000,0.755963,214.536,0.236651
246.8000,-0.706147,214.321,0.233643
246.7000,-1.45364,215.597,0.251431
246.6000,1.99589,214.936,0.242232
246.5000,0.404412,214.617,0.237774
246.4000,-1.65187,214.644,0.238154
246.3000,1.48791,215.766,0.253779
246.2000,-1.5992,214.87,0.241316
246.1000,0.405626,214.448,0.235416
246.0000,0.749116,215.285,0.247095
245.9000,0.333161,214.568,0.237094
245.8000,0.211306,215.023,0.243448
245.7000,1.44944,215.413,0.248878
245.6000,-0.00613195,215.103,0.244554
245.5000,0.80182,215.368,0.248247
245.4000,0.319283,214.3,0.233358
245.3000,2.13447,215.117,0.244759
245.2000,-1.4244,215.405,0.248767
245.1000,0.899225,215.942,0.256235
245.0000,0.532784,215.095,0.244443
244.9000,-0.494847,215.69,0.252724
244.8000,0.734613,216.236,0.260309
244.7000,-0.286767,215.832,0.254708
244.6000,-2.21492,215.223,0.246227
244.5000,-0.174721,215.316,0.247521
244.4000,1.31005,215.644,0.252093
244.3000,0.094487,215.864,0.255149
244.2000,2.97587,216.448,0.263248
244.1000,-0.0247585,215.65,0.252172
244.0000,-0.0230748,215.826,0.254614
243.9000,0.2477,215.481,0.249824
243.8000,-0.204849,216.589,0.265211
243.7000,1.10857,215.814,0.254456
243.6000,0.967501,216.333,0.261661
243.5000,-1.5808,215.738,0.253401
243.4000,0.46436,216.015,0.257242
243.3000,0.550088,216.654,0.266106
243.2000,1.44858,216.022,0.257336
243.1000,-0.185791,216.461,0.263436
243.0000,0.574382,215.94,0.256204
242.9000,-1.45809,216.286,0.261001
242.8000,-0.27907,216.266,0.260734
242.7000,0.683177,216.485,0.263766
242.6000,-0.476235,216.282,0.260953
242.5000,0.436859,215.625,0.251825
242.4000,-1.22848,215.436,0.249193
242.3000,-1.73109,216.454,0.263342
242.2000,-0.544369,216.776,0.2678
242.1000,1.02644,216.774,0.267769
242.0000,0.334006,216.681,0.266482
241.9000,0.0217157,217.493,0.277718
241.8000,-0.509726,216.977,0.270576
241.7000,1.35004,216.774,0.267769
241.6000,0.536069,216.811,0.268287
241.5000,-0.864589,217.489,0.277655
241.4000,1.0726,217.529,0.278203
241.3000,1.18054,217.446,0.277061
241.2000,-0.571523,216.929,0.269918
241.1000,-1.01797,217.289,0.2749
241.0000,-0.192773,217.531,0.278234
240.9000,2.8069,217.609,0.279313
240.8000,0.934901,217.303,0.275088
240.7000,1.23253,217.96,0.284158
240.6000,-0.0242212,218.244,0.288061
240.5000,-1.31548,218.072,0.285704
240.4000,0.640186,217.699,0.280549
240.3000,-0.329973,217.973,0.28433
240.2000,0.122058,218.505,0.291663
240.1000,0.203421,218.56,0.292411
240.0000,-0.125154,217.961,0.284174
239.9000,-1.29208,218.629,0.293362
239.8000,0.624607,218.903,0.29713
239.7000,2.15407,218.274,0.288482
239.6000,-0.743279,218.519,0.29185
239.5000,-0.458795,218.647,0.293611
239.4000,1.75165,218.055,0.28547
239.3000,1.10949,218.613,0.293144
239.2000,-0.81125,218.608,0.293081
239.1000,1.22436,219.66,0.307511
239.0000,0.151723,219.431,0.304375
238.9000,-4.20921,219.003,0.298499
238.8000,0.904947,219.373,0.303583
238.7000,-0.00741968,219.472,0.304934
238.6000,0.273114,219.522,0.305617
238.5000,0.521083,219.839,0.309962
238.4000,-1.54622,219.452,0.30467
238.3000,0.0519379,218.762,0.295199
238.2000,3.02521,219.818,0.309683
238.1000,0.219884,219.127,0.30021
238.0000,1.37689,219.636,0.307185
237.9000,1.40191,219.685,0.307853
237.8000,-1.97046,220.206,0.314984
237.7000,-0.485343,219.914,0.310986
237.6000,0.0560769,219.845,0.31004
237.5000,-0.14958,219.969,0.311745
237.4000,1.3849,220.385,0.31743
237.3000,-2.59099,220.019,0.312427
237.2000,0.59496,220.209,0.31503
237.1000,-1.18158,221.139,0.327707
237.0000,-1.87786,220.714,0.321915
236.9000,2.14396,220.469,0.318575
236.8000,-0.0410066,220.22,0.315169
236.7000,-2.271,220.521,0.319287
236.6000,-0.0619999,220.37,0.317229
236.5000,-0.435111,220.94,0.325006
236.4000,-0.428029,221.149,0.327846
236.3000,-0.666189,221.212,0.32871
236.2000,0.284956,221.425,0.33161
236.1000,-2.04231,220.75,0.32241
236.0000,0.251357,221.617,0.334214
235.9000,-2.97755,221.378,0.330962
235.8000,-2.97993,221.366,0.330808
235.7000,0.238926,221.694,0.335262
235.6000,-1.38299,221.57,0.333583
235.5000,-1.87848,221.648,0.334646
235.4000,-1.55234,221.491,0.332504
235.3000,-0.478367,221.383,0.331039
235.2000,-0.94382,222.358,0.344276
235.1000,0.487453,222.482,0.345966
235.0000,-1.7793,222.454,0.345582
234.9000,-1.96297,222.151,0.341479
234.8000,-0.712719,222.396,0.344798
234.7000,-0.247029,222.494,0.346119
234.6000,-0.801682,222.83,0.350677
234.5000,-0.818758,222.675,0.348575
234.4000,-1.73795,223.072,0.353942
234.3000,-1.9894,222.563,0.347056
234.2000,-2.55139,224.03,0.366882
234.1000,-1.00288,222.505,0.346273
234.0000,-0.348172,223.551,0.360418
233.9000,-0.797184,223.29,0.356898
233.8000,-0.807245,222.708,0.34902
233.7000,-3.32624,222.954,0.352348
233.6000,0.807974,223.561,0.360556
233.5000,-2.46115,223.299,0.357021
233.4000,-2.26184,222.999,0.352961
233.3000,-1.55724,224.257,0.369935
233.2000,-1.31994,223.93,0.365538
233.1000,-2.2257,224.61,0.374692
233.0000,-0.991164,224.031,0.366898
232.9000,-0.21133,223.7,0.362436
232.8000,-0.938849,224.571,0.374158
232.7000,1.15016,224.52,0.373472
232.6000,-0.198149,224.372,0.371491
232.5000,-1.24516,224.087,0.367646
232.4000,-3.39032,225.315,0.384156
232.3000,-2.12911,224.588,0.374387
232.2000,-2.75788,224.591,0.374433
232.1000,-0.586129,225.496,0.386587
232.0000,-3.49357,225.012,0.380096
231.9000,-3.34769,225.395,0.385235
231.8000,-3.16137,224.866,0.378134
231.7000,-0.000503974,225.457,0.386056
231.6000,-1.43364,225.309,0.38408
231.5000,-2.07533,225.395,0.385235
231.4000,-2.00717,225.683,0.389092
231.3000,-0.948995,225.304,0.384004
231.2000,-2.32367,225.065,0.380796
231.1000,-2.75273,225.428,0.385676
231.0000,-1.38002,225.357,0.384719
230.9000,-3.5877,226.156,0.395415
230.8000,-1.69179,225.854,0.391383
230.7000,-1.69803,226.744,0.40327
230.6000,-3.43446,226.031,0.393748
230.5000,-1.33852,225.749,0.389972
230.4000,-1.17197,226.352,0.398035
230.3000,-2.39744,226.814,0.404207
230.2000,-0.703648,226.102,0.394703
230.1000,-1.23552,226.081,0.394415
230.0000,0.00406995,225.952,0.392687
229.9000,-1.71087,226.259,0.396793
229.8000,-1.81997,225.652,0.388667
229.7000,-2.05985,225.974,0.39299
229.6000,-0.739057,226.432,0.39911
229.5000,-3.40528,226.475,0.399685
229.4000,-1.30821,226.959,0.406141
229.3000,-4.27857,226.734,0.403134
229.2000,-1.42481,226.459,0.399473
229.1000,-1.92119,226.762,0.403512
229.0000,-2.09327,227.336,0.411168
228.9000,-2.79489,227.353,0.411394
228.8000,-4.04534,227.13,0.408421
228.7000,-3.39025,227.333,0.411123
228.6000,-2.82576,228.094,0.421246
228.5000,-3.22217,227.628,0.415043
228.4000,-1.64035,227.756,0.416745
228.3000,-3.2831,228.626,0.428295
228.2000,-2.68925,228.047,0.420614
228.1000,-1.53678,228.064,0.42084
228.0000,-1.25383,229.241,0.436439
227.9000,-3.21178,228.184,0.422434
227.8000,-3.34547,228.585,0.427754
227.7000,-5.0149,228.575,0.427619
227.6000,-2.82445,228.676,0.428956
227.5000,-2.0286,228.983,0.433022
227.4000,-3.56946,228.577,0.427649
227.3000,-4.49211,229.779,0.443549
227.2000,-2.57768,229.75,0.44316
227.1000,-3.03558,229.53,0.440258
227.0000,-3.96583,229.591,0.441066
226.9000,-2.15445,230.375,0.451405
226.8000,-5.29733,229.482,0.439629
226.7000,-3.77663,229.711,0.442651
226.6000,-4.69617,230.058,0.447225
226.5000,-4.32345,230.144,0.44836
226.4000,-2.73153,229.873,0.444789
226.3000,-4.42622,229.464,0.439389
226.2000,-2.52608,230.042,0.447016
226.1000,-3.89896,230.697,0.455641
226.0000,-2.47176,231.102,0.460957
225.9000,-3.57937,231.856,0.470855
225.8000,-2.02177,230.878,0.458024
225.7000,-1.14414,231.15,0.461597
225.6000,-3.45627,231.465,0.465731
225.5000,-2.7423,231.244,0.462832
225.4000,-4.51202,230.756,0.456415
225.3000,-2.99141,231.749,0.469445
225.2000,-2.22236,231.253,0.462951
225.1000,-2.98733,232.391,0.477854
225.0000,-3.62077,231.837,0.470603
224.9000,-6.50451,232.098,0.474016
224.8000,-2.61475,232.394,0.477899
224.7000,-1.96632,232.332,0.477084
224.6000,-2.74322,232.229,0.475735
224.5000,-3.87772,232.468,0.478861
224.4000,-2.68128,231.938,0.471924
224.3000,-3.22797,232.268,0.476239
224.2000,-1.41035,232.292,0.476565
224.1000,-1.12757,232.781,0.482947
224.0000,-2.32957,233.229,0.4888
223.9000,-3.31387,232.728,0.482251
223.8000,-5.19135,233.24,0.488933
223.7000,-1.86071,233.906,0.497607
223.6000,-1.77004,233.836,0.496694
223.5000,-3.29274,233.738,0.495426
223.4000,-5.6073,233.009,0.485919
223.3000,-0.0563654,233.58,0.493362
223.2000,-4.93941,234.262,0.502231
223.1000,-3.01686,233.729,0.495308
223.0000,-4.39849,234.085,0.499935
222.9000,-2.59715,233.701,0.49494
222.8000,-2.51043,233.837,0.496709
222.7000,-2.6363,233.224,0.488727
222.6000,-3.7742,234.482,0.505085
222.5000,-4.93044,234.133,0.500553
222.4000,-2.61905,235.353,0.516376
222.3000,-5.71651,234.919,0.510757
222.2000,-4.4697,235.109,0.513223
222.1000,-3.75235,235.34,0.516214
222.0000,-3.16228,235.322,0.51598
221.9000,-5.59503,234.757,0.508657
221.8000,-5.69041,235.934,0.523889
221.7000,-3.33784,235.578,0.519292
221.6000,-4.35986,235.668,0.520449
221.5000,-3.62851,235.59,0.519438
221.4000,-3.1225,235.557,0.519014
221.3000,-7.12422,235.747,0.521474
221.2000,-5.48677,236.124,0.526346
221.1000,-4.74763,236.067,0.5256
221.0000,-3.13933,236.446,0.530495
220.9000,-2.35895,237.032,0.538038
220.8000,-3.25254,236.169,0.526916
220.7000,-2.21515,236.699,0.53375
220.6000,-3.63565,237.19,0.540063
220.5000,-4.136,237.44,0.543281
220.4000,-5.4137,237.234,0.540631
220.3000,-3.69242,237.069,0.538519
220.2000,-4.06805,237.698,0.546597
220.1000,-3.66632,237.829,0.548269
220.0000,-6.14758,238.12,0.552002
219.9000,-2.73191,237.769,0.547499
219.8000,-3.8656,238.131,0.552147
219.7000,-5.2461,238.64,0.55866
219.6000,-6.74311,238.695,0.559371
219.5000,-3.98236,237.891,0.549068
219.4000,-3.7183,237.701,0.546626
219.3000,-3.5626,238.311,0.554455
219.2000,-5.80235,238.354,0.555006
219.1000,-4.6508,238.784,0.5605
219.0000,-4.82425,239.486,0.569471
218.9000,-4.86266,239.57,0.57054
218.8000,-2.49682,239.106,0.564612
218.7000,-4.30196,238.883,0.561775
218.6000,-1.87887,238.596,0.558095
218.5000,-3.57639,239.464,0.569182
218.4000,-1.90147,237.667,0.54619
218.3000,-5.37982,239.091,0.564424
218.2000,-4.33419,239.092,0.564439
218.1000,-4.74427,240.506,0.582453
218.0000,-1.45645,240.479,0.582107
217.9000,-4.50256,238.979,0.562991
217.8000,-4.05887,240.281,0.579586
217.7000,-1.72007,239.93,0.575131
217.6000,-1.52854,239.389,0.568228
217.5000,-1.32035,239.971,0.57565
217.4000,-5.43213,240.926,0.587791
217.3000,-3.15795,240.555,0.583072
217.2000,-4.76367,240.912,0.587605
217.1000,-4.61895,240.58,0.583389
217.0000,-2.17088,240.922,0.587734
216.9000,-3.60246,241.553,0.595734
216.8000,-3.81793,241.427,0.594141
216.7000,-2.66283,242.113,0.602816
216.6000,-1.39274,242.232,0.604319
216.5000,-2.07218,241.905,0.600194
216.4000,-1.18593,243.361,0.618563
216.3000,-3.25587,241.657,0.597054
216.2000,-0.654771,241.57,0.59595
216.1000,-4.55184,242.692,0.610126
216.0000,-2.70889,242.116,0.602858
215.9000,-4.44918,242.297,0.605149
215.8000,-4.78938,242.02,0.601641
215.7000,-3.26961,242.061,0.602157
215.6000,-4.67392,242.699,0.610212
215.5000,-4.20653,242.054,0.602071
215.4000,-3.16749,242.804,0.611541
215.3000,-0.394329,242.782,0.611269
215.2000,-4.03064,243.613,0.621728
215.1000,-3.05522,243.773,0.623736
215.0000,-2.29037,243.809,0.624191
214.9000,-4.33551,243.318,0.618021
214.8000,-1.45778,243.769,0.623693
214.7000,-1.32021,243.665,0.622383
214.6000,-3.95905,243.138,0.615753
214.5000,-5.15141,243.392,0.618948
214.4000,-4.69828,243.648,0.622169
214.3000,-4.00374,243.921,0.625601
214.2000,-3.50718,244.174,0.628773
214.1000,-1.16548,244.063,0.627379
214.0000,-2.10197,243.961,0.626099
213.9000,-4.5265,244.95,0.638502
213.8000,-6.92884,244.676,0.635068
213.7000,-2.42513,244.196,0.629058
213.6000,-3.38852,244.68,0.635124
213.5000,-4.12234,245.109,0.640487
213.4000,-2.32855,245.329,0.64325
213.3000,-4.32876,245.403,0.644171
213.2000,-1.7922,244.85,0.637253
213.1000,-3.66273,245.149,0.640997
213.0000,-1.45316,244.656,0.634826
212.9000,-2.24729,245.472,0.645034
212.8000,-6.88682,245.71,0.648006
212.7000,-6.0886,245.098,0.640359
212.6000,-2.96571,246.331,0.655751
212.5000,-5.6113,245.97,0.651245
212.4000,-2.49239,246.619,0.659335
212.3000,-3.91458,246.714,0.660519
212.2000,-4.26649,247.36,0.668547
212.1000,-3.43148,246.678,0.660068
212.0000,-4.13511,247.505,0.670348
211.9000,-3.70211,246.909,0.662943
211.8000,-3.40889,247.106,0.665394
211.7000,-2.74282,247.474,0.669968
211.6000,-5.31181,247.077,0.665028
211.5000,-3.84473,247.698,0.672737
211.4000,-5.85527,247.381,0.668814
211.3000,-0.581062,248.022,0.676754
211.2000,-3.94692,248.623,0.684201
211.1000,-3.0818,248.309,0.680318
211.0000,-3.37715,248.024,0.676782
210.9000,-4.588,248.823,0.686665
210.8000,-3.85259,249.173,0.690989
210.7000,-3.3039,248.721,0.685405
210.6000,-5.38012,249.445,0.694344
210.5000,-2.34603,248.383,0.681229
210.4000,-2.30442,249.91,0.700081
210.3000,-3.0107,248.805,0.686441
210.2000,-6.53805,250.024,0.701476
210.1000,-3.59253,249.734,0.697905
210.0000,-2.13553,250.218,0.70386
209.9000,-3.15651,249.385,0.693603
209.8000,-0.647499,250.559,0.708052
209.7000,-6.01628,250.47,0.706966
209.6000,-3.33453,251.04,0.713963
209.5000,-2.77433,250.616,0.708762
209.4000,-1.20308,250.24,0.704138
209.3000,-1.76025,250.56,0.708066
209.2000,-5.47168,251.994,0.725647
209.1000,-3.6345,251.933,0.724899
209.0000,-4.88789,251.586,0.720656
208.9000,-6.22673,252.111,0.727074
208.8000,-2.3986,251.572,0.720475
208.7000,-4.62178,252.471,0.731475
208.6000,-3.93825,251.666,0.721627
208.5000,-5.11037,252.592,0.732955
208.4000,-6.241,253.205,0.740427
208.3000,-3.91098,252.94,0.737197
208.2000,-1.95075,253.828,0.747996
208.1000,-4.55509,253.055,0.738592
208.0000,-3.30196,254.224,0.752812
207.9000,-7.82684,254.07,0.750941
207.8000,-2.59849,254.016,0.750281
207.7000,-0.235128,253.859,0.748381
207.6000,-6.05537,255.89,0.772975
207.5000,-6.46054,253.979,0.74984
207.4000,-2.9356,255.895,0.773044
207.3000,-4.54785,255.095,0.763373
207.2000,-4.1203,255.816,0.772086
207.1000,-2.69518,255.11,0.763552
207.0000,-4.96778,256.005,0.77437
206.9000,-3.65912,254.077,0.751024
206.8000,-2.45653,255.029,0.762564
206.7000,-1.88167,255.362,0.766595
206.6000,-4.75838,254.913,0.761165
206.5000,-4.24776,256.7,0.782743
206.4000,-2.7346,256.121,0.775764
206.3000,-2.52096,255.894,0.77303
206.2000,-3.10252,257.725,0.79507
206.1000,-3.54012,257.056,0.787024
206.0000,-2.52529,256.785,0.783766
205.9000,-3.51459,257.524,0.792648
205.8000,-1.73256,259.197,0.812692
205.7000,-3.497,258.721,0.807003
205.6000,-1.47175,259.513,0.816466
205.5000,-2.1037,258.387,0.803002
205.4000,0.545991,259.171,0.812381
205.3000,-2.01644,258.83,0.808305
205.2000,0.0921553,259.299,0.81391
205.1000,-0.625737,259.744,0.819223
205.0000,-4.19871,259.554,0.816953
204.9000,-4.12106,260.883,0.832777
204.8000,-5.02348,259.881,0.820858
204.7000,-2.6518,259.612,0.817643
204.6000,-0.197992,260.83,0.832144
204.5000,-1.10334,261.019,0.834392
204.4000,-1.13486,261.54,0.840577
204.3000,-0.677867,261.267,0.837338
204.2000,-1.14028,261.785,0.843477
204.1000,-3.12875,261.051,0.834769
204.0000,-0.848708,261.847,0.844215
203.9000,-3.09516,262.075,0.846912
203.8000,-0.200042,262.438,0.851201
203.7000,-0.791194,263.115,0.859203
203.6000,-2.67385,262.96,0.857371
203.5000,0.740715,262.928,0.856997
203.4000,-1.55403,263.496,0.863691
203.3000,2.78829,262.949,0.857238
203.2000,2.99498,264.231,0.872346
203.1000,1.65921,263.919,0.868668
203.0000,-1.75103,264.167,0.871587
202.9000,-2.10428,264.694,0.877777
202.8000,0.127888,265.117,0.882748
202.7000,-1.78895,265.361,0.885603
202.6000,4.28027,266.343,0.897093
202.5000,1.60609,266.137,0.894684
202.4000,0.735696,265.845,0.891266
202.3000,-0.273037,266.152,0.894856
202.2000,2.37375,267.045,0.905275
202.1000,0.316633,267.577,0.911475
202.0000,0.05523,267.54,0.91104
201.9000,-1.16399,267.607,0.911818
201.8000,-0.175374,268.374,0.92073
201.7000,1.0293,268.262,0.919428
201.6000,-0.0839242,268.74,0.924975
201.5000,-1.34968,269.111,0.929281
201.4000,-0.00900061,268.756,0.925159
201.3000,2.11177,269.226,0.930606
201.2000,1.44122,269.83,0.937589
201.1000,5.634,269.971,0.939225
201.0000,4.49051,270.668,0.947263
200.9000,3.10977,270.292,0.942926
200.8000,3.52396,270.498,0.945304
200.7000,3.50121,270.353,0.943632
200.6000,1.20016,271.135,0.952639
200.5000,2.46973,271.589,0.957864
200.4000,1.97368,271.737,0.959556
200.3000,3.0369,272.668,0.970238
200.2000,6.33493,272.668,0.970238
200.1000,7.92611,272.95,0.973468
200.0000,-1.33743,272.592,0.969368
199.9000,4.57811,272.735,0.971003
199.8000,4.62714,273.909,0.984421
199.7000,6.18463,273.816,0.983361
199.6000,2.92136,275.361,1.00096
199.5000,3.3659,274.095,0.98654
199.4000,8.87641,274.135,0.987006
199.3000,9.56415,274.826,0.994865
199.2000,3.38914,274.675,0.99315
199.1000,5.01588,275.017,0.997043
199.0000,8.86433,276.362,1.01231
198.9000,7.91261,273.842,0.983658
198.8000,5.72081,275.841,1.0064
198.7000,8.33061,274.955,0.996335
198.6000,6.05543,274.645,0.992815
198.5000,7.41977,278.179,1.03283
198.4000,1.1973,276.274,1.01131
198.3000,6.32126,276.431,1.01309
198.2000,9.20881,277.467,1.0248
198.1000,8.17181,277.808,1.02865
198.0000,5.84527,278.024,1.03109
197.9000,7.47637,277.832,1.02891
197.8000,8.86977,279.737,1.05034
197.7000,3.80294,277.93,1.03003
197.6000,10.1663,278.375,1.03504
197.5000,7.73874,279.098,1.04317
197.4000,6.83418,279.207,1.04439
197.3000,7.45541,279.233,1.04469
197.2000,7.61032,280.576,1.05973
197.1000,9.05824,278.409,1.03542
197.0000,7.77988,278.959,1.0416
196.9000,11.9684,279.569,1.04845
196.8000,5.24846,280.286,1.05649
196.7000,9.54683,281.626,1.07146
196.6000,4.63478,280.647,1.06053
196.5000,12.8329,280.666,1.06075
196.4000,10.1551,281.692,1.07219
196.3000,4.90311,281.354,1.06843
196.2000,5.70978,282.721,1.08364
196.1000,6.67281,281.328,1.06814
196.0000,7.62898,281.128,1.0659
195.9000,9.31828,281.631,1.07151
195.8000,5.62068,282.596,1.08226
195.7000,10.4658,282.604,1.08235
195.6000,9.34622,282.015,1.07579
195.5000,11.902,283.317,1.09026
195.4000,14.4029,284.195,1.09999
195.3000,11.794,284.648,1.105
195.2000,8.68401,284.597,1.10444
195.1000,11.9165,284.535,1.10375
195.0000,10.0732,283.246,1.08948
194.9000,8.82415,283.334,1.09045
194.8000,9.30358,284.838,1.10711
194.7000,4.38776,283.786,1.09546
194.6000,7.18948,283.394,1.09112
194.5000,9.79573,284.109,1.09904
194.4000,6.17241,283.355,1.09069
194.3000,8.94953,284.511,1.10349
194.2000,14.0622,284.571,1.10415
194.1000,5.44066,284.908,1.10787
194.0000,8.7416,283.85,1.09618
193.9000,13.0606,285.688,1.11648
193.8000,10.687,285.332,1.11256
193.7000,10.7406,285.7,1.11661
193.6000,10.991,284.743,1.10606
193.5000,11.5038,284.999,1.10888
193.4000,13.442,285.914,1.11896
193.3000,10.7166,286.434,1.12469
193.2000,6.68048,285.312,1.11233
193.1000,13.2945,285.864,1.11841
193.0000,7.09963,285.511,1.11453
192.9000,9.51219,285.423,1.11356
192.8000,11.813,285.887,1.11866
192.7000,10.6062,286.75,1.12816
192.6000,13.7774,286.681,1.1274
192.5000,12.6425,286.538,1.12583
192.4000,10.1247,286.839,1.12914
192.3000,10.0496,286.439,1.12475
192.2000,12.846,286.501,1.12542
192.1000,12.1205,286.809,1.12881
192.0000,10.513,287.072,1.13169
191.9000,6.96523,287.609,1.13758
191.8000,13.4491,286.918,1.13
191.7000,10.0724,286.452,1.12488
191.6000,9.01958,286.365,1.12393
191.5000,10.304,287.952,1.14134
191.4000,10.7851,287.25,1.13364
191.3000,8.60148,287.251,1.13366
191.2000,9.43059,287.89,1.14066
191.1000,8.14079,287.373,1.135
191.0000,11.6261,287.495,1.13634
190.9000,10.2349,287.933,1.14113
190.8000,16.5058,288.219,1.14427
190.7000,7.50836,288.379,1.14601
190.6000,11.9287,288.263,1.14474
190.5000,13.9057,288.774,1.15032
190.4000,13.7702,288.179,1.14382
190.3000,11.22,288.575,1.14816
190.2000,9.34074,288.548,1.14786
190.1000,6.04313,288.869,1.15136
190.0000,15.3146,288.574,1.14814

##### Extended Information
[Comments]
Sample name,JN_ADProteinandAdditive
Comment,Protein and Additive
User,Jocelyn_Andrew
Division
Company,Saint Mary's College

[Detailed Information]
Creation date,9/29/2022 4:24 PM

Data array type,Linear data array * 3
Horizontal axis,Wavelength [nm]
Vertical axis(1),CD [mdeg]
Vertical axis(2),HT [V]
Vertical axis(3),Abs
Start,320 nm
End,190 nm
Data interval,0.1 nm
Data points,1301    

[Measurement Information]
Instrument name,J-1500
Model name,J-1500
Serial No.,B051061638

Detector,PM-539
Detector S/N,B051061638
  Lock-in amp.,X mode
  HT volt,Auto

Accessory,PTC-517
Accessory S/N,B026561646
  Temperature,21.41 C
  Control sensor,Holder
  Monitor sensor,Holder

Measurement date,9/29/2022 4:24 PM

CD Overload detect,1277
Photometric mode,CD, HT, Abs
Measure range,320 - 190 nm
Data pitch,0.1 nm
CD scale,20 mdeg/0.05 dOD
FL scale,20 mdeg/0.05 dOD
D.I.T.,8 msec
Bandwidth,2.00 nm
Start mode,Immediately
Scanning mode,Continuous
Scanning speed,200 nm/min
Baseline correction,None
Shutter control,Auto
No. of cycle,1/1
N2 Flowmeter,Manual

Solvent,NaPO4 buffer

