TITLE,JN_ADBuffer
DATA TYPE,
ORIGIN,JASCO
OWNER,
DATE,22/09/29
TIME,17:15:01
SPECTROMETER/DATA SYSTEM,
LOCALE,1033
RESOLUTION,
DELTAX,-0.1
XUNITS,NANOMETERS
YUNITS,CD [mdeg]
Y2UNITS,HT [V]
Y3UNITS,ABSORBANCE
FIRSTX,  320.0000
LASTX,  190.0000
NPOINTS,    1301
FIRSTY,     2.76339
MAXY,     7.74211
MINY,    -3.18272
XYDATA
320.0000,2.76339,209.502,0.165658
319.9000,2.72593,208.026,0.144571
319.8000,0.465975,209.207,0.16146
319.7000,2.78336,208.275,0.14814
319.6000,1.37966,209.432,0.164657
319.5000,1.38657,208.701,0.154232
319.4000,1.55345,209.436,0.164722
319.3000,0.929355,209.319,0.163059
319.2000,1.18397,208.952,0.157824
319.1000,2.64324,209.317,0.163027
319.0000,2.20775,209.467,0.165157
318.9000,2.63668,208.666,0.15373
318.8000,2.718,208.5,0.151366
318.7000,0.665999,208.77,0.155219
318.6000,2.43518,210.598,0.181228
318.5000,1.04803,209.261,0.162219
318.4000,2.09531,208.87,0.156643
318.3000,2.86591,209.33,0.163204
318.2000,3.10075,208.547,0.15203
318.1000,0.793826,208.905,0.157144
318.0000,0.267693,208.891,0.15695
317.9000,0.326759,208.767,0.15517
317.8000,1.86159,208.832,0.156109
317.7000,0.18832,208.589,0.152629
317.6000,1.56986,208.824,0.155996
317.5000,1.39472,206.609,0.124227
317.4000,2.94292,208.585,0.15258
317.3000,2.77221,209.23,0.161783
317.2000,0.761342,207.708,0.140024
317.1000,1.80143,208.965,0.158001
317.0000,0.864711,209.838,0.170447
316.9000,2.0228,209.104,0.159989
316.8000,2.39621,208.5,0.151366
316.7000,0.200315,208.592,0.152677
316.6000,1.13443,207.621,0.138773
316.5000,1.71608,208.163,0.146535
316.4000,1.1302,208.813,0.155834
316.3000,1.28368,208.711,0.154377
316.2000,0.649868,209.054,0.159279
316.1000,0.818729,208.601,0.152807
316.0000,2.22301,207.51,0.137179
315.9000,1.61489,208.997,0.158454
315.8000,1.59087,208.942,0.157678
315.7000,1.20095,208.716,0.154442
315.6000,2.74089,209.714,0.168674
315.5000,2.09361,208.525,0.151722
315.4000,1.74536,209.003,0.158551
315.3000,2.84514,209.577,0.166723
315.2000,2.2802,210.204,0.175648
315.1000,1.32019,208.974,0.15813
315.0000,1.96133,208.663,0.153698
314.9000,2.06074,207.745,0.140544
314.8000,2.64173,210.293,0.176903
314.7000,2.2434,208.585,0.15258
314.6000,2.38658,208.859,0.156497
314.5000,1.15665,208.462,0.150815
314.4000,2.62702,209.495,0.165561
314.3000,1.46973,208.121,0.145935
314.2000,2.58003,208.367,0.149453
314.1000,1.72976,208.786,0.155445
314.0000,1.8374,208.046,0.144864
313.9000,0.282555,208.623,0.153114
313.8000,2.18259,208.296,0.148448
313.7000,1.34767,209.019,0.158777
313.6000,1.3521,207.096,0.131238
313.5000,1.6499,208.175,0.146713
313.4000,0.297208,207.567,0.137992
313.3000,0.689068,208.903,0.157112
313.2000,2.00658,208.695,0.154151
313.1000,1.52168,207.524,0.137374
313.0000,1.89262,208.452,0.150669
312.9000,0.59985,208.012,0.144377
312.8000,2.02044,208.215,0.147281
312.7000,1.11005,208.742,0.154814
312.6000,2.01997,209.085,0.159715
312.5000,1.5209,207.964,0.143695
312.4000,1.42355,208.184,0.146843
312.3000,1.25611,208.555,0.152143
312.2000,3.29739,207.738,0.140447
312.1000,1.59381,208.22,0.147362
312.0000,1.63293,208.657,0.1536
311.9000,1.09384,208.677,0.153892
311.8000,0.715241,208.338,0.149048
311.7000,2.33815,207.55,0.137748
311.6000,2.1463,209.229,0.161767
311.5000,1.40031,208.157,0.146454
311.4000,1.34189,208.186,0.146875
311.3000,0.959173,208.932,0.157532
311.2000,1.92358,208.375,0.149567
311.1000,1.24603,208.779,0.155348
311.0000,2.42174,208.971,0.158082
310.9000,-0.00965238,208.844,0.156271
310.8000,0.176661,208.761,0.15509
310.7000,2.11784,208.822,0.155963
310.6000,1.34638,209.061,0.159376
310.5000,3.14066,208.539,0.151916
310.4000,1.98807,209.011,0.158664
310.3000,2.24396,208.543,0.151981
310.2000,1.18929,209.309,0.162914
310.1000,0.697922,207.773,0.14095
310.0000,2.20238,209.059,0.159343
309.9000,3.44281,208.525,0.151722
309.8000,2.11772,208.427,0.150312
309.7000,0.42232,208.466,0.15088
309.6000,-0.169691,208.526,0.151738
309.5000,0.550604,209.061,0.159376
309.4000,2.48836,207.973,0.143825
309.3000,2.35244,207.645,0.139114
309.2000,1.77831,208.701,0.154232
309.1000,2.11203,209.404,0.16427
309.0000,1.72086,210.432,0.178881
308.9000,1.01903,208.713,0.15441
308.8000,1.49793,209.372,0.163802
308.7000,1.31735,208.292,0.148384
308.6000,2.56341,207.863,0.14225
308.5000,1.53888,208.651,0.153519
308.4000,1.45403,209.864,0.170818
308.3000,0.647279,208.55,0.152078
308.2000,1.38628,209.284,0.162558
308.1000,2.63287,208.05,0.144928
308.0000,1.38866,208.71,0.154361
307.9000,0.987719,209.514,0.165835
307.8000,2.8236,207.969,0.14376
307.7000,1.56302,208.249,0.147767
307.6000,1.13175,208.411,0.150085
307.5000,0.723911,208.444,0.150555
307.4000,-0.405014,208.202,0.147102
307.3000,1.3972,208.248,0.147751
307.2000,0.997544,209.091,0.159796
307.1000,-0.296478,208.339,0.149064
307.0000,1.67318,208.449,0.150636
306.9000,3.20945,208.564,0.152273
306.8000,1.55263,208.677,0.153892
306.7000,-0.303432,208.321,0.148805
306.6000,0.900773,208.481,0.15109
306.5000,1.21363,208.768,0.155187
306.4000,0.236454,208.557,0.152175
306.3000,1.21988,209.133,0.160393
306.2000,1.75595,209.112,0.160103
306.1000,2.78964,207.896,0.142721
306.0000,1.87624,208.901,0.157096
305.9000,0.571294,207.678,0.139586
305.8000,2.47002,208.472,0.150961
305.7000,1.20467,208.935,0.157581
305.6000,2.68861,208.337,0.149032
305.5000,1.05444,207.964,0.143695
305.4000,2.42291,208.106,0.145724
305.3000,1.10687,209.008,0.158616
305.2000,1.80953,207.882,0.14251
305.1000,2.53729,208.676,0.153876
305.0000,0.346863,208.482,0.151106
304.9000,1.32574,208.712,0.154393
304.8000,1.83885,209.248,0.162042
304.7000,0.634473,208.088,0.145464
304.6000,0.973219,208.445,0.150572
304.5000,1.90018,208.492,0.151252
304.4000,3.48142,208.574,0.152418
304.3000,0.756366,208.233,0.14754
304.2000,-0.125932,208.015,0.144425
304.1000,1.26113,208.796,0.155591
304.0000,1.32451,208.796,0.155591
303.9000,3.14948,208.687,0.154037
303.8000,3.38988,209.906,0.171414
303.7000,0.704958,208.199,0.147054
303.6000,1.30154,209.093,0.159828
303.5000,1.44811,208.987,0.158325
303.4000,-0.217519,208.929,0.157484
303.3000,0.681106,208.012,0.144377
303.2000,1.72444,208.131,0.146081
303.1000,1.58044,208.691,0.154086
303.0000,4.44162,208.36,0.149356
302.9000,0.921816,207.415,0.135813
302.8000,0.4138,207.732,0.140365
302.7000,-0.127916,208.163,0.146535
302.6000,1.61307,207.999,0.144198
302.5000,1.36034,208.616,0.153017
302.4000,1.97853,208.294,0.148416
302.3000,0.926703,207.857,0.142152
302.2000,1.79803,208.313,0.148692
302.1000,0.560174,207.879,0.142477
302.0000,0.637474,208.589,0.152629
301.9000,2.48181,208.151,0.146372
301.8000,3.2727,208.363,0.149405
301.7000,1.00223,207.332,0.134625
301.6000,2.23468,208.387,0.149745
301.5000,1.42501,207.978,0.14389
301.4000,-0.327584,208.267,0.148027
301.3000,0.321353,207.288,0.13399
301.2000,2.93997,208.513,0.151544
301.1000,2.06446,209.461,0.165077
301.0000,1.81627,208.044,0.144831
300.9000,2.61218,208.066,0.145156
300.8000,-0.127922,208.286,0.148302
300.7000,0.862723,208.12,0.145918
300.6000,1.70647,208.056,0.14501
300.5000,1.29353,207.905,0.142851
300.4000,1.88964,208.328,0.148902
300.3000,0.327798,207.866,0.142282
300.2000,1.6547,208.491,0.151236
300.1000,3.53733,208.42,0.150215
300.0000,3.06561,209.049,0.159198
299.9000,1.45325,208.286,0.148302
299.8000,2.59619,207.9,0.14277
299.7000,3.13235,208.314,0.148708
299.6000,1.17348,208.705,0.154296
299.5000,0.775387,208.36,0.149356
299.4000,0.447177,208.207,0.147167
299.3000,2.7683,208.428,0.150329
299.2000,1.71873,207.808,0.141454
299.1000,1.66626,207.73,0.140333
299.0000,1.14493,207.971,0.143792
298.9000,0.864011,208.437,0.150458
298.8000,0.33101,207.994,0.144117
298.7000,2.40024,208.291,0.148367
298.6000,1.5434,207.977,0.143873
298.5000,2.81737,208.331,0.148951
298.4000,0.327344,207.729,0.140317
298.3000,1.89034,207.992,0.144085
298.2000,1.87808,208.09,0.145496
298.1000,1.05958,207.373,0.135211
298.0000,1.36147,208.492,0.151252
297.9000,2.38866,207.512,0.137212
297.8000,1.0302,207.834,0.141827
297.7000,1.28691,206.902,0.128436
297.6000,1.54822,207.595,0.138399
297.5000,2.43741,208.292,0.148384
297.4000,1.53942,207.938,0.143322
297.3000,0.705835,207.899,0.142753
297.2000,1.73254,208.1,0.145642
297.1000,2.2368,208.003,0.144247
297.0000,0.946724,207.918,0.143029
296.9000,1.9503,207.662,0.139358
296.8000,0.647351,208.081,0.145367
296.7000,3.1207,208.114,0.145837
296.6000,1.75311,208.055,0.144993
296.5000,3.15111,208.353,0.149259
296.4000,1.72667,207.512,0.137212
296.3000,2.08666,207.331,0.134609
296.2000,1.34107,208.103,0.145675
296.1000,1.56525,207.877,0.142445
296.0000,-0.457057,207.687,0.139715
295.9000,-0.829166,208.021,0.144506
295.8000,1.48132,207.572,0.138074
295.7000,0.68795,207.973,0.143825
295.6000,1.29588,207.058,0.130684
295.5000,2.13397,207.109,0.131417
295.4000,2.06036,207.407,0.135699
295.3000,1.48563,207.53,0.137472
295.2000,1.09846,207.996,0.14415
295.1000,2.56056,207.687,0.139715
295.0000,3.63305,208.356,0.149307
294.9000,0.699203,207.507,0.13713
294.8000,3.2553,207.943,0.143386
294.7000,2.79458,207.547,0.137716
294.6000,0.803458,207.445,0.136252
294.5000,2.51395,207.705,0.139975
294.4000,2.15054,208.192,0.146956
294.3000,1.28415,207.82,0.141633
294.2000,1.95999,207.662,0.139358
294.1000,3.25511,207.921,0.143078
294.0000,-0.0935569,207.664,0.13939
293.9000,1.76255,206.986,0.129658
293.8000,1.62629,207.586,0.138269
293.7000,2.28647,207.686,0.139699
293.6000,2.21773,208.083,0.145399
293.5000,1.317,208.406,0.150021
293.4000,1.51658,207.121,0.131597
293.3000,1.14464,207.992,0.144085
293.2000,2.65546,208.029,0.14462
293.1000,2.36227,207.555,0.13783
293.0000,2.81074,207.269,0.133713
292.9000,3.42132,207.205,0.132802
292.8000,2.89984,207.36,0.135032
292.7000,2.72177,207.27,0.13373
292.6000,0.988333,207.278,0.133844
292.5000,0.122424,207.46,0.136464
292.4000,3.03881,207.218,0.132981
292.3000,2.98512,206.464,0.122137
292.2000,1.67065,207.015,0.130065
292.1000,1.29321,206.628,0.124504
292.0000,1.2905,207.38,0.135309
291.9000,1.99481,207.136,0.131808
291.8000,0.138405,207.047,0.130521
291.7000,2.66321,206.628,0.124504
291.6000,2.56355,207.053,0.130619
291.5000,2.52237,207.051,0.130587
291.4000,1.65326,207.473,0.136642
291.3000,0.740307,207.091,0.131157
291.2000,3.16149,207.042,0.130456
291.1000,1.16599,206.485,0.122431
291.0000,1.32575,206.577,0.12377
290.9000,1.04137,206.806,0.127066
290.8000,0.438149,207.436,0.136122
290.7000,1.08068,206.421,0.121517
290.6000,0.933522,206.998,0.129821
290.5000,0.739808,207.079,0.130994
290.4000,2.02049,207.13,0.131727
290.3000,2.02984,207.203,0.132769
290.2000,2.0087,206.32,0.120063
290.1000,2.44411,207.086,0.131092
290.0000,2.63527,207.22,0.133014
289.9000,0.205074,207.181,0.13246
289.8000,2.31901,207.414,0.135797
289.7000,0.95312,206.853,0.127734
289.6000,0.548218,206.81,0.127115
289.5000,1.16667,207.044,0.130489
289.4000,1.79719,207.435,0.136106
289.3000,1.47311,207.488,0.13687
289.2000,-0.212297,207.55,0.137748
289.1000,1.98695,207.006,0.129935
289.0000,3.31946,206.763,0.126446
288.9000,3.4528,207.18,0.132444
288.8000,2.66331,207.289,0.134007
288.7000,1.13131,207.11,0.131434
288.6000,1.16058,207.369,0.135162
288.5000,1.80862,208.094,0.145545
288.4000,1.93356,206.823,0.12731
288.3000,1.13962,206.84,0.127555
288.2000,2.38527,206.685,0.12532
288.1000,1.86897,208.078,0.145318
288.0000,0.888787,206.521,0.122953
287.9000,1.15097,207.334,0.134658
287.8000,4.99982,207.402,0.135634
287.7000,1.46118,207.354,0.134934
287.6000,2.92761,207.766,0.140853
287.5000,1.95581,207.722,0.140219
287.4000,1.12077,206.972,0.129446
287.3000,2.28554,206.651,0.124831
287.2000,1.19235,206.964,0.129332
287.1000,2.02217,207.197,0.132688
287.0000,2.59437,206.979,0.129544
286.9000,1.28685,207.116,0.131515
286.8000,2.24506,207.231,0.133176
286.7000,3.30081,207.212,0.132899
286.6000,1.59178,207.125,0.131646
286.5000,2.09235,207.786,0.141145
286.4000,0.644269,207.209,0.132851
286.3000,1.20258,207.427,0.135992
286.2000,1.46273,208.084,0.145415
286.1000,0.897938,206.705,0.125614
286.0000,1.91433,207.228,0.133127
285.9000,1.56391,207.287,0.133974
285.8000,2.48078,206.868,0.127946
285.7000,1.49357,206.903,0.128452
285.6000,1.38223,207.728,0.1403
285.5000,1.82142,206.957,0.129234
285.4000,0.726482,207.269,0.133713
285.3000,0.450996,207.133,0.131759
285.2000,1.98342,207.255,0.133518
285.1000,2.666,207.343,0.134788
285.0000,0.659663,207.673,0.13952
284.9000,0.977775,207.278,0.133844
284.8000,1.35482,207.017,0.130098
284.7000,1.89909,208.285,0.148286
284.6000,1.09567,207.595,0.138399
284.5000,2.58931,206.852,0.127718
284.4000,1.05061,207.505,0.137114
284.3000,2.29222,206.831,0.127424
284.2000,2.54039,207.183,0.132476
284.1000,1.44968,206.631,0.124537
284.0000,2.483,207.917,0.143013
283.9000,1.99273,207.2,0.13272
283.8000,1.433,207.02,0.130147
283.7000,2.22362,207.971,0.143792
283.6000,2.20209,207.648,0.139163
283.5000,1.1768,206.125,0.117251
283.4000,2.3067,206.354,0.120553
283.3000,0.704742,207.084,0.131059
283.2000,1.46868,206.667,0.125059
283.1000,1.49452,206.889,0.128256
283.0000,1.78985,207.173,0.132346
282.9000,0.389879,206.607,0.124194
282.8000,0.990342,207.807,0.141438
282.7000,2.44323,206.72,0.125826
282.6000,2.06874,207.135,0.131792
282.5000,1.47065,207.294,0.134072
282.4000,0.00642047,207.596,0.138415
282.3000,0.478627,206.943,0.129039
282.2000,0.907883,207.101,0.131304
282.1000,1.12696,206.354,0.120553
282.0000,0.121712,206.126,0.117267
281.9000,2.24828,207.25,0.133453
281.8000,1.45562,207.167,0.132248
281.7000,1.77707,207.403,0.13565
281.6000,0.821586,207.041,0.13044
281.5000,2.42432,207.214,0.132932
281.4000,0.880192,207.511,0.137195
281.3000,1.5057,207.709,0.14004
281.2000,2.26767,207.4,0.135602
281.1000,1.77873,206.61,0.124243
281.0000,0.936445,207.326,0.134544
280.9000,2.51078,207.125,0.131646
280.8000,3.35246,207.252,0.133469
280.7000,1.35349,206.437,0.121745
280.6000,0.169544,206.662,0.124994
280.5000,2.58446,205.425,0.107131
280.4000,3.59329,206.911,0.128566
280.3000,1.99641,207.328,0.13456
280.2000,1.41041,208.013,0.144393
280.1000,1.2183,207.567,0.137992
280.0000,0.471142,207.435,0.136106
279.9000,0.438406,207.476,0.136691
279.8000,1.93458,208.137,0.146162
279.7000,0.886947,209.214,0.161557
279.6000,0.0645133,206.692,0.125418
279.5000,1.1029,206.35,0.120487
279.4000,0.695074,208.021,0.144506
279.3000,2.58177,207.34,0.134739
279.2000,1.77041,207.155,0.132085
279.1000,1.71672,207.677,0.139569
279.0000,1.65724,207.221,0.13303
278.9000,1.04723,206.931,0.128859
278.8000,0.275084,207.383,0.135357
278.7000,-0.440943,208.191,0.14694
278.6000,2.43364,206.829,0.127392
278.5000,0.16876,206.616,0.124325
278.4000,1.54623,207.366,0.135113
278.3000,-0.233274,208.122,0.145951
278.2000,2.00595,207.554,0.137814
278.1000,0.867991,206.92,0.128696
278.0000,1.47145,207.903,0.142818
277.9000,1.55771,207.572,0.138074
277.8000,1.01505,208.095,0.145561
277.7000,0.823089,207.023,0.130179
277.6000,2.44096,207.462,0.136496
277.5000,2.25127,206.56,0.123525
277.4000,2.31649,208.233,0.14754
277.3000,1.80044,205.671,0.110687
277.2000,2.6978,208.079,0.145334
277.1000,1.72572,207.453,0.136366
277.0000,2.58059,207.092,0.131173
276.9000,1.92027,207.409,0.135731
276.8000,1.04714,205.828,0.112964
276.7000,1.99593,208.063,0.145107
276.6000,1.56406,207.595,0.138399
276.5000,1.72427,205.448,0.107459
276.4000,1.03596,206.679,0.125239
276.3000,1.12252,207.745,0.140544
276.2000,2.86724,207.206,0.132818
276.1000,2.6547,207.36,0.135032
276.0000,0.743478,207.053,0.130619
275.9000,0.269474,206.79,0.126837
275.8000,2.3079,206.623,0.124423
275.7000,1.80851,207.649,0.139179
275.6000,0.99874,207.01,0.13
275.5000,1.12504,207.173,0.132346
275.4000,1.03158,207.618,0.138724
275.3000,0.986087,206.508,0.122774
275.2000,1.83135,205.715,0.111326
275.1000,2.85312,206.887,0.128223
275.0000,1.41475,207.437,0.136138
274.9000,1.5147,207.616,0.138708
274.8000,1.44337,206.702,0.125565
274.7000,-0.258187,207.944,0.143403
274.6000,1.09839,207.427,0.135992
274.5000,3.07903,207.406,0.135683
274.4000,1.91965,206.524,0.123003
274.3000,0.687781,207.558,0.137862
274.2000,1.69157,207.569,0.138025
274.1000,0.261522,207.492,0.136919
274.0000,0.307834,207.236,0.133242
273.9000,0.282429,206.616,0.124325
273.8000,1.88281,207.616,0.138708
273.7000,0.972351,206.81,0.127115
273.6000,1.60958,207.969,0.14376
273.5000,1.54712,207.435,0.136106
273.4000,1.58987,207.091,0.131157
273.3000,2.17571,207.962,0.143663
273.2000,1.25762,206.972,0.129446
273.1000,1.61257,207.824,0.141681
273.0000,1.48065,208.248,0.147751
272.9000,1.03529,208.334,0.148983
272.8000,1.98281,207.478,0.136724
272.7000,2.30414,206.933,0.128892
272.6000,1.51686,207.326,0.134544
272.5000,0.53822,206.614,0.124292
272.4000,2.41761,207.462,0.136496
272.3000,2.62661,206.703,0.125581
272.2000,-0.904663,207.312,0.134332
272.1000,2.19353,207.292,0.134056
272.0000,0.742016,207.754,0.140674
271.9000,2.74419,207.56,0.137895
271.8000,-0.243309,207.051,0.130587
271.7000,1.75873,206.439,0.121778
271.6000,2.13834,207.127,0.131678
271.5000,0.907816,207.572,0.138074
271.4000,2.3594,209.39,0.16406
271.3000,0.620187,207.806,0.141421
271.2000,1.55081,209.112,0.160103
271.1000,1.29547,207.877,0.142445
271.0000,1.04486,208.659,0.153633
270.9000,-1.01388,207.774,0.140967
270.8000,1.57833,207.526,0.137407
270.7000,1.50483,207.364,0.135081
270.6000,-0.173747,208.026,0.144571
270.5000,0.785136,207.737,0.14043
270.4000,0.253608,208.097,0.145594
270.3000,0.113647,207.314,0.134365
270.2000,0.512295,209.025,0.158858
270.1000,2.7025,207.782,0.14108
270.0000,2.64478,207.905,0.142851
269.9000,1.61406,207.401,0.135618
269.8000,-0.0820552,208.182,0.146811
269.7000,2.12935,207.84,0.141909
269.6000,0.73853,207.505,0.137114
269.5000,2.67225,207.534,0.137521
269.4000,0.881031,209.077,0.159602
269.3000,2.60285,208.645,0.153438
269.2000,0.625088,208.183,0.146827
269.1000,0.642147,207.973,0.143825
269.0000,3.42482,208.49,0.15122
268.9000,-0.748726,208.689,0.15407
268.8000,2.66146,207.631,0.138919
268.7000,0.169496,208.521,0.151657
268.6000,1.94752,208.295,0.148432
268.5000,0.871181,208.063,0.145107
268.4000,1.49431,209.707,0.168577
268.3000,1.70994,207.797,0.141292
268.2000,0.232326,209.692,0.168367
268.1000,0.810913,208.529,0.151771
268.0000,2.1057,209.562,0.166513
267.9000,1.09595,209.668,0.168029
267.8000,0.607579,208.898,0.157047
267.7000,1.84486,208.184,0.146843
267.6000,1.08695,208.457,0.15075
267.5000,0.217098,209.251,0.16209
267.4000,0.529025,208.499,0.151349
267.3000,1.74346,207.715,0.140122
267.2000,1.9663,208.343,0.149113
267.1000,1.23383,209.54,0.166206
267.0000,2.46197,208.776,0.1553
266.9000,-0.00616136,208.25,0.147784
266.8000,1.01933,208.6,0.152791
266.7000,2.12872,209.326,0.163156
266.6000,0.282258,208.163,0.146535
266.5000,1.20169,208.943,0.157694
266.4000,1.62784,208.866,0.156594
266.3000,0.568539,208.508,0.151479
266.2000,1.63608,209.704,0.168529
266.1000,0.646793,209.231,0.161799
266.0000,0.416206,208.327,0.148886
265.9000,1.9829,207.278,0.133844
265.8000,1.90075,208.364,0.149421
265.7000,0.416851,209.13,0.160361
265.6000,0.771441,209.642,0.167658
265.5000,2.34583,209.182,0.161105
265.4000,0.119455,207.674,0.139537
265.3000,0.877613,209.797,0.169851
265.2000,0.206243,208.814,0.15585
265.1000,0.585119,208.848,0.156335
265.0000,1.07339,209.083,0.159683
264.9000,1.29679,209.564,0.166545
264.8000,1.13725,210.684,0.182448
264.7000,2.13143,208.456,0.150734
264.6000,1.76439,209.342,0.163382
264.5000,-0.565856,209.826,0.17027
264.4000,1.48073,208.748,0.154912
264.3000,1.16346,209.474,0.165254
264.2000,0.677588,209.453,0.164964
264.1000,0.98652,209.427,0.164592
264.0000,0.250624,211.827,0.198618
263.9000,0.359593,210.082,0.17391
263.8000,1.22453,208.557,0.152175
263.7000,0.948823,211.097,0.188306
263.6000,1.08146,209.494,0.165545
263.5000,0.620884,208.865,0.156578
263.4000,1.50295,209.896,0.171269
263.3000,1.3472,209.633,0.167529
263.2000,0.901102,209.743,0.169093
263.1000,2.07641,209.88,0.171043
263.0000,1.01887,209.79,0.169754
262.9000,0.973389,208.42,0.150215
262.8000,2.75453,209.161,0.160797
262.7000,2.40624,210.216,0.175809
262.6000,2.67504,209.289,0.162623
262.5000,1.09116,209.368,0.163753
262.4000,2.32074,209.426,0.164576
262.3000,1.73848,210.088,0.17399
262.2000,0.839004,209.696,0.168416
262.1000,1.6172,210.596,0.181212
262.0000,1.64666,209.549,0.166335
261.9000,2.55889,210.37,0.177997
261.8000,1.87146,209.615,0.167271
261.7000,0.19409,209.589,0.1669
261.6000,-0.324776,210.117,0.174409
261.5000,2.13506,210.352,0.17774
261.4000,0.721846,210.668,0.182224
261.3000,0.346715,209.646,0.167706
261.2000,1.86546,209.928,0.17172
261.1000,0.789507,209.484,0.165399
261.0000,2.2164,210.07,0.173733
260.9000,0.919224,210.439,0.178978
260.8000,1.13436,210.379,0.178125
260.7000,1.81743,210.788,0.183926
260.6000,0.346131,209.792,0.169786
260.5000,-0.340023,209.365,0.163705
260.4000,0.636222,209.539,0.16619
260.3000,0.778849,211.52,0.194283
260.2000,2.7498,209.71,0.168625
260.1000,-0.0683462,210.076,0.173829
260.0000,0.873643,210.654,0.182031
259.9000,0.532485,210.131,0.174602
259.8000,1.49367,210.705,0.182754
259.7000,0.783496,210.426,0.178801
259.6000,1.16571,210.553,0.180601
259.5000,-0.364757,211.094,0.188258
259.4000,2.08312,211.127,0.188723
259.3000,1.44244,210.667,0.182208
259.2000,2.04405,211.237,0.190278
259.1000,2.19169,210.593,0.181163
259.0000,-0.429156,210.769,0.183653
258.9000,-0.51829,210.626,0.181629
258.8000,-1.02994,211.527,0.194379
258.7000,0.645645,210.722,0.182995
258.6000,-0.168453,211.052,0.187665
258.5000,1.48074,210.491,0.179717
258.4000,0.809314,210.575,0.180906
258.3000,-0.876237,210.667,0.182208
258.2000,1.83134,210.672,0.182288
258.1000,4.0037,211.045,0.187569
258.0000,0.383633,211.503,0.194042
257.9000,0.389254,210.594,0.181179
257.8000,0.998701,211.788,0.198075
257.7000,1.35498,210.717,0.182914
257.6000,1.54514,211.098,0.188322
257.5000,1.25639,211.633,0.195883
257.4000,0.761719,210.817,0.184343
257.3000,1.24377,211.229,0.190166
257.2000,2.5231,211.038,0.187472
257.1000,3.27546,212.216,0.204099
257.0000,1.04731,212.201,0.203891
256.9000,2.43258,211.545,0.194635
256.8000,3.0859,211.811,0.198394
256.7000,1.57321,211.996,0.201
256.6000,2.02802,210.982,0.18667
256.5000,-0.721631,211.182,0.189509
256.4000,2.16461,211.351,0.191896
256.3000,1.69555,211.033,0.187392
256.2000,0.738803,211.105,0.188419
256.1000,0.566441,211.645,0.196043
256.0000,1.46405,211.053,0.187681
255.9000,-0.765087,211.932,0.200105
255.8000,0.998834,210.965,0.18643
255.7000,1.38302,212.762,0.211786
255.6000,1.44908,211.757,0.197627
255.5000,-0.297056,211.561,0.194859
255.4000,1.80279,211.936,0.200153
255.3000,1.15189,211.692,0.196715
255.2000,0.0405514,212.034,0.201544
255.1000,0.273941,212.344,0.205902
255.0000,1.06225,212.178,0.203572
254.9000,2.14341,212.691,0.210798
254.8000,0.87139,212.252,0.20461
254.7000,0.164602,212.512,0.208279
254.6000,2.24232,212.398,0.206668
254.5000,1.8396,212.295,0.205216
254.4000,2.13188,212.209,0.204003
254.3000,1.38558,212.574,0.209141
254.2000,0.250028,212.62,0.209794
254.1000,0.887048,212.844,0.212949
254.0000,0.939263,211.839,0.198794
253.9000,2.53424,212.729,0.211324
253.8000,2.23886,213.217,0.218185
253.7000,-0.13717,213.63,0.22397
253.6000,0.657262,211.928,0.200041
253.5000,2.46277,212.626,0.209874
253.4000,0.951737,212.931,0.214159
253.3000,2.28536,213.402,0.220777
253.2000,1.82041,213.133,0.217008
253.1000,0.557018,212.508,0.208216
253.0000,1.35842,212.578,0.209204
252.9000,1.01143,213.425,0.221095
252.8000,1.7192,212.861,0.213188
252.7000,1.90072,212.729,0.211324
252.6000,2.10374,212.662,0.210384
252.5000,1.79462,212.228,0.204275
252.4000,1.06891,213.725,0.225303
252.3000,2.87501,212.71,0.211053
252.2000,2.18338,213.074,0.216181
252.1000,1.09503,212.954,0.214494
252.0000,0.165983,212.924,0.214064
251.9000,2.14851,213.395,0.220681
251.8000,1.10104,213.452,0.221476
251.7000,2.5765,212.861,0.213188
251.6000,2.08169,213.365,0.220252
251.5000,1.8302,213.019,0.215401
251.4000,-0.856762,213.188,0.217772
251.3000,0.412287,213.19,0.217804
251.2000,2.07742,213.675,0.224605
251.1000,2.53781,213.171,0.217533
251.0000,1.96422,213.644,0.224176
250.9000,2.00412,213.186,0.21774
250.8000,0.629439,213.353,0.220093
250.7000,1.09446,213.172,0.217549
250.6000,-0.241547,214.271,0.232946
250.5000,1.84004,213.002,0.215162
250.4000,0.836387,213.504,0.222207
250.3000,2.09822,213.889,0.227604
250.2000,2.84168,213.401,0.220761
250.1000,0.323799,213.893,0.227652
250.0000,1.40835,213.708,0.225065
249.9000,0.858328,214.083,0.230316
249.8000,1.92277,214.221,0.232249
249.7000,2.85862,213.498,0.222127
249.6000,1.16188,214.179,0.231663
249.5000,-0.34776,213.457,0.221556
249.4000,-1.25244,214.172,0.231568
249.3000,0.757419,213.781,0.226097
249.2000,2.34199,213.646,0.224192
249.1000,2.29759,214.138,0.231092
249.0000,3.32669,214.503,0.236192
248.9000,0.073825,214.04,0.229714
248.8000,0.485514,213.843,0.226954
248.7000,1.48966,215.036,0.243622
248.6000,0.335831,213.717,0.225192
248.5000,0.677795,214.347,0.234007
248.4000,0.580572,214.172,0.231568
248.3000,2.01886,213.343,0.21995
248.2000,1.99775,213.498,0.222127
248.1000,2.31397,214.427,0.235131
248.0000,1.34515,213.487,0.221969
247.9000,1.35467,213.757,0.225748
247.8000,1.16312,214.26,0.232788
247.7000,0.452948,215.098,0.244491
247.6000,0.254525,213.784,0.226129
247.5000,0.928452,214.477,0.235828
247.4000,2.07113,215.072,0.244128
247.3000,0.977962,215.096,0.244459
247.2000,-0.335674,214.856,0.24111
247.1000,2.16829,215.245,0.246543
247.0000,2.24784,213.978,0.228841
246.9000,3.44074,214.758,0.239751
246.8000,0.420245,214.313,0.233532
246.7000,1.4598,214.39,0.234609
246.6000,1.48526,214.494,0.236065
246.5000,2.67338,215.211,0.246069
246.4000,0.305464,215.146,0.245154
246.3000,0.307287,214.792,0.240225
246.2000,3.62358,215.543,0.250691
246.1000,0.365236,215.318,0.247553
246.0000,1.09539,214.399,0.234736
245.9000,2.12139,215.642,0.252062
245.8000,1.08107,215.087,0.244333
245.7000,-0.409779,214.762,0.239798
245.6000,-0.660271,214.859,0.241158
245.5000,1.18848,216.909,0.269635
245.4000,3.09216,215.105,0.244586
245.3000,2.08382,214.884,0.241505
245.2000,-0.699742,214.988,0.242959
245.1000,1.24035,215.08,0.244238
245.0000,1.22728,215.166,0.245438
244.9000,2.49744,215.38,0.24842
244.8000,2.4249,216.077,0.258107
244.7000,0.70246,215.744,0.25348
244.6000,0.839808,215.942,0.256235
244.5000,0.879677,215.787,0.254078
244.4000,-0.756124,215.688,0.252708
244.3000,0.916263,216.397,0.262541
244.2000,0.581284,216.181,0.259555
244.1000,1.83028,215.24,0.246464
244.0000,1.00551,215.634,0.251952
243.9000,0.669579,215.449,0.249382
243.8000,1.65822,215.82,0.254535
243.7000,1.5139,215.632,0.25192
243.6000,1.28058,215.651,0.252188
243.5000,2.308,216.337,0.261708
243.4000,0.874076,215.452,0.249414
243.3000,-0.510198,216.503,0.264017
243.2000,1.68495,216.436,0.263091
243.1000,2.40234,216.138,0.258957
243.0000,4.26552,216.82,0.268412
242.9000,-0.639405,215.637,0.251999
242.8000,1.37144,216.224,0.260152
242.7000,1.73911,216.213,0.259995
242.6000,-0.840554,216.981,0.270639
242.5000,2.57663,217.365,0.275949
242.4000,2.1418,216.364,0.262085
242.3000,-0.232718,216.555,0.26474
242.2000,1.02964,216.562,0.264834
242.1000,3.21728,216.509,0.264096
242.0000,1.47617,216.513,0.264159
241.9000,1.74878,217.301,0.275057
241.8000,0.666795,216.527,0.264347
241.7000,1.71032,216.175,0.25946
241.6000,2.11169,216.589,0.265211
241.5000,2.23032,217.101,0.2723
241.4000,1.26511,216.129,0.258831
241.3000,1.91639,216.507,0.264064
241.2000,2.07121,217.771,0.281549
241.1000,-0.517669,217.381,0.276168
241.0000,0.206789,217.029,0.271297
240.9000,0.450013,215.976,0.256707
240.8000,1.28301,216.707,0.266843
240.7000,1.44078,217.069,0.271846
240.6000,0.716352,218.202,0.287483
240.5000,3.19986,217.489,0.277655
240.4000,0.965723,218.123,0.286407
240.3000,1.21957,217.597,0.279141
240.2000,-0.269759,219.059,0.299277
240.1000,0.821133,217.05,0.271595
240.0000,2.18414,217.267,0.274587
239.9000,1.51664,219.374,0.303598
239.8000,1.20952,217.98,0.284424
239.7000,2.07027,218.577,0.292645
239.6000,-0.806841,217.847,0.282596
239.5000,1.76531,218.65,0.293657
239.4000,-0.0349168,218.057,0.285486
239.3000,2.01596,219.139,0.300366
239.2000,1.43427,218.451,0.290915
239.1000,3.96135,218.427,0.290587
239.0000,2.02716,218.495,0.291523
238.9000,-0.700258,219.578,0.306394
238.8000,3.71378,218.46,0.29104
238.7000,1.12125,218.527,0.291959
238.6000,1.22936,219.217,0.301438
238.5000,1.2682,219.324,0.302915
238.4000,1.53857,219.053,0.299183
238.3000,2.36195,219.436,0.304437
238.2000,0.744568,218.793,0.29562
238.1000,2.3343,219.942,0.311373
238.0000,1.15155,220.059,0.31297
237.9000,2.61376,219.724,0.308396
237.8000,1.57835,220.291,0.316145
237.7000,3.47558,219.635,0.30717
237.6000,-0.162067,220.302,0.3163
237.5000,1.60257,221.094,0.327105
237.4000,1.04765,221.459,0.332072
237.3000,1.7919,220.323,0.316579
237.2000,2.58929,219.761,0.308892
237.1000,2.14026,219.21,0.301345
237.0000,-0.317926,220.104,0.313589
236.9000,2.62381,220.313,0.316439
236.8000,0.620381,219.483,0.305089
236.7000,1.58633,220.149,0.314209
236.6000,2.53087,220.88,0.324187
236.5000,2.4987,220.527,0.319364
236.4000,2.07788,220.532,0.319441
236.3000,1.21638,220.488,0.318838
236.2000,1.01634,221.223,0.328865
236.1000,0.623886,220.757,0.322503
236.0000,0.593601,221.01,0.325963
235.9000,-0.583283,221.094,0.327105
235.8000,2.60166,221.439,0.331795
235.7000,0.88676,221.039,0.326349
235.6000,-0.889874,221.247,0.329189
235.5000,2.05258,221.153,0.327908
235.4000,2.50502,221.71,0.335477
235.3000,2.36343,221.424,0.331594
235.2000,1.03827,221.704,0.3354
235.1000,2.52222,221.542,0.333197
235.0000,0.22447,221.842,0.337279
234.9000,1.17728,222.153,0.341494
234.8000,1.85374,221.881,0.337802
234.7000,1.28566,221.589,0.333845
234.6000,2.11278,221.682,0.335108
234.5000,1.51929,221.254,0.329281
234.4000,2.20287,222.359,0.344291
234.3000,0.842943,222.583,0.347332
234.2000,2.28588,222.506,0.346288
234.1000,1.76556,223.136,0.354815
234.0000,-0.205032,220.558,0.319797
233.9000,2.43989,221.804,0.336755
233.8000,3.28296,222.616,0.347777
233.7000,1.09003,222.379,0.344568
233.6000,2.50428,222.713,0.349097
233.5000,0.571056,221.633,0.33443
233.4000,2.08479,223.458,0.359163
233.3000,1.19174,223.918,0.36537
233.2000,0.560147,223.792,0.363674
233.1000,3.2468,223.299,0.357021
233.0000,1.29384,224.193,0.36908
232.9000,1.45864,225.194,0.38253
232.8000,2.58444,224.26,0.369981
232.7000,3.01421,223.609,0.361198
232.6000,2.51278,222.709,0.349036
232.5000,1.34543,223.001,0.352992
232.4000,2.19637,223.746,0.363048
232.3000,1.5509,223.571,0.360693
232.2000,3.34086,222.78,0.350002
232.1000,1.26888,223.513,0.359913
232.0000,3.81338,223.645,0.361687
231.9000,1.26772,224.533,0.373655
231.8000,1.4752,224.02,0.366745
231.7000,1.56962,224.171,0.368775
231.6000,1.32664,224.859,0.378042
231.5000,1.63087,224.623,0.374859
231.4000,1.00307,225.016,0.380142
231.3000,1.04278,224.582,0.374311
231.2000,-0.912367,224.771,0.376855
231.1000,2.97025,224.496,0.373152
231.0000,2.36863,224.567,0.374113
230.9000,1.57149,224.968,0.379503
230.8000,1.76562,225.133,0.381709
230.7000,1.80873,224.455,0.372604
230.6000,2.60647,224.584,0.374341
230.5000,0.630081,225.242,0.383184
230.4000,2.4214,224.85,0.37792
230.3000,2.13266,224.903,0.37862
230.2000,1.92726,224.444,0.372451
230.1000,2.526,224.971,0.379534
230.0000,0.823117,225.086,0.381085
229.9000,-1.03653,225.469,0.386223
229.8000,-1.55324,225.303,0.383989
229.7000,0.500509,225.114,0.381465
229.6000,2.33594,224.866,0.378134
229.5000,1.92162,225.806,0.390731
229.4000,1.52787,225.804,0.390716
229.3000,0.164516,225.232,0.383047
229.2000,1.29911,225.463,0.386147
229.1000,1.28137,226.507,0.400109
229.0000,1.37807,226.547,0.400638
228.9000,1.83566,226.039,0.393854
228.8000,0.694815,226.304,0.397399
228.7000,3.70828,227.052,0.407379
228.6000,1.42768,226.516,0.40023
228.5000,2.75508,226.322,0.397642
228.4000,0.551133,226.685,0.402484
228.3000,2.4121,227.02,0.406957
228.2000,4.52074,226.051,0.394021
228.1000,0.343725,226.863,0.404857
228.0000,3.31243,226.931,0.405763
227.9000,2.04686,227.722,0.416293
227.8000,3.19445,227.226,0.409704
227.7000,2.31808,227.639,0.415193
227.6000,2.5005,228.039,0.420509
227.5000,0.421171,227.274,0.410338
227.4000,-0.374481,229.311,0.437368
227.3000,-1.37169,228.45,0.425967
227.2000,4.72696,228.409,0.425426
227.1000,2.36742,228.513,0.426793
227.0000,1.11483,227.951,0.419335
226.9000,2.29306,228.905,0.431987
226.8000,1.88768,229.465,0.439404
226.7000,1.69914,228.769,0.430186
226.6000,2.78173,228.083,0.421096
226.5000,0.853236,229.208,0.436005
226.4000,0.429257,228.608,0.428055
226.3000,1.63408,229.224,0.436215
226.2000,0.842136,228.253,0.423352
226.1000,1.05236,229.493,0.439764
226.0000,0.519486,229.224,0.436215
225.9000,1.38423,228.994,0.433172
225.8000,2.21044,229.145,0.435166
225.7000,1.37011,229.259,0.436679
225.6000,2.60533,228.715,0.429481
225.5000,3.10322,227.9,0.418658
225.4000,1.74984,230.84,0.457518
225.3000,1.91834,229.998,0.446433
225.2000,3.54421,230.66,0.455149
225.1000,1.23546,230.188,0.448943
225.0000,0.854479,230.177,0.448793
224.9000,3.13298,232.264,0.476195
224.8000,3.73138,229.573,0.440826
224.7000,1.94094,230.593,0.454269
224.6000,2.54226,230.557,0.453792
224.5000,0.830643,230.698,0.455655
224.4000,3.434,230.628,0.454731
224.3000,2.30885,230.92,0.458575
224.2000,2.2155,231.4,0.464869
224.1000,3.33948,230.849,0.457637
224.0000,4.01606,231.5,0.466192
223.9000,2.04162,231.604,0.467544
223.8000,4.44513,231.691,0.468688
223.7000,1.31458,231.581,0.467247
223.6000,1.68791,230.868,0.45789
223.5000,1.35867,231.057,0.460377
223.4000,3.45859,231.227,0.462609
223.3000,1.70957,230.652,0.455044
223.2000,1.93102,232.056,0.473467
223.1000,3.82549,233.51,0.492461
223.0000,3.10366,232.554,0.479987
222.9000,3.20235,232.505,0.47935
222.8000,3.01312,232,0.47274
222.7000,1.7455,232.061,0.473541
222.6000,1.20503,232.451,0.478639
222.5000,1.66032,232.908,0.484603
222.4000,3.80739,232.972,0.485446
222.3000,2.04103,233.401,0.49103
222.2000,2.89262,233.875,0.49721
222.1000,1.17021,233.324,0.490026
222.0000,1.48168,234.229,0.501804
221.9000,1.5831,233.542,0.492875
221.8000,-1.1726,232.891,0.484382
221.7000,2.36258,233.567,0.493199
221.6000,1.40292,233.949,0.498167
221.5000,0.727016,234.688,0.50776
221.4000,3.31052,233.585,0.493435
221.3000,1.61886,234.539,0.505835
221.2000,4.38097,234.516,0.505526
221.1000,2.87413,234.167,0.500995
221.0000,4.8722,234.24,0.501952
220.9000,3.11167,234.605,0.506688
220.8000,1.21837,234.375,0.503703
220.7000,1.01223,234.001,0.498845
220.6000,0.841496,235.139,0.513604
220.5000,2.51421,234.497,0.505291
220.4000,1.56954,235.428,0.517343
220.3000,2.31917,235.432,0.517402
220.2000,3.32587,235.345,0.516273
220.1000,2.58719,235.825,0.522484
220.0000,2.3281,234.842,0.509758
219.9000,2.69465,235.654,0.520273
219.8000,3.88268,235.611,0.519717
219.7000,0.954333,236.152,0.526697
219.6000,2.48569,236.1,0.526024
219.5000,4.40205,235.923,0.523742
219.4000,1.30612,235.854,0.52285
219.3000,-0.920828,235.552,0.518955
219.2000,2.33169,236.047,0.525351
219.1000,0.769403,235.87,0.523055
219.0000,2.11572,236.6,0.532481
218.9000,1.22877,236.22,0.527574
218.8000,-1.03766,236.247,0.527924
218.7000,3.88755,236.743,0.53432
218.6000,0.342565,236.444,0.530466
218.5000,0.17267,236.279,0.528333
218.4000,1.53045,236.498,0.531167
218.3000,1.15011,236.947,0.536945
218.2000,0.0659281,237.011,0.537761
218.1000,3.9331,237.238,0.540689
218.0000,2.30965,237.551,0.544707
217.9000,3.3613,236.492,0.53108
217.8000,2.04501,237.094,0.538839
217.7000,0.819655,238.906,0.562065
217.6000,3.03212,237.48,0.54379
217.5000,2.58855,237.09,0.538781
217.4000,1.34387,237.856,0.548618
217.3000,2.32685,239.104,0.564598
217.2000,0.926256,238.374,0.555253
217.1000,2.71341,238.329,0.554687
217.0000,0.244336,238.817,0.560921
216.9000,-0.849642,237.667,0.54619
216.8000,1.05789,239.091,0.564424
216.7000,0.68302,241.104,0.590048
216.6000,2.0468,238.902,0.562007
216.5000,1.03419,237.775,0.547586
216.4000,2.75864,239.508,0.569745
216.3000,1.64981,240.685,0.584727
216.2000,0.73507,240.886,0.587274
216.1000,2.12234,240.964,0.588266
216.0000,2.25864,239.642,0.57145
215.9000,1.2673,239.282,0.566869
215.8000,3.45046,239.692,0.5721
215.7000,0.518748,239.8,0.573471
215.6000,4.57674,240.159,0.578044
215.5000,2.90969,239.686,0.572013
215.4000,2.58408,239.916,0.574943
215.3000,2.01662,240.494,0.582295
215.2000,1.92388,240,0.576011
215.1000,1.39307,239.932,0.575145
215.0000,2.01839,240.478,0.582093
214.9000,2.90745,240.884,0.587259
214.8000,1.03955,241.16,0.590752
214.7000,3.2625,240.898,0.587432
214.6000,3.16939,241.125,0.590307
214.5000,1.97089,241.334,0.592964
214.4000,1.31538,241.351,0.593179
214.3000,0.746476,240.925,0.587777
214.2000,-2.13427,240.896,0.587403
214.1000,1.6416,241.469,0.594672
214.0000,1.93659,241.792,0.59876
213.9000,2.32105,240.84,0.586698
213.8000,0.0966714,241.151,0.590637
213.7000,2.85874,241.109,0.590106
213.6000,0.31634,241.141,0.590508
213.5000,-0.473155,241.612,0.59648
213.4000,1.04247,241.933,0.600538
213.3000,1.21921,241.896,0.600079
213.2000,1.98215,242.768,0.611083
213.1000,0.930053,242.218,0.604147
213.0000,0.976236,242.471,0.607338
212.9000,1.55222,242.268,0.604777
212.8000,0.342307,243.114,0.615453
212.7000,2.41272,242.379,0.606179
212.6000,1.99474,242.508,0.60781
212.5000,-0.233358,243.77,0.623707
212.4000,3.36733,242.838,0.611969
212.3000,4.74915,243.46,0.619804
212.2000,2.51303,242.919,0.612998
212.1000,2.39712,243.86,0.624832
212.0000,0.302379,242.827,0.611826
211.9000,3.50161,244.241,0.629612
211.8000,-0.59439,243.726,0.623152
211.7000,1.35467,243.876,0.625031
211.6000,2.01004,243.9,0.62533
211.5000,2.02635,244.226,0.629427
211.4000,4.58253,244.201,0.629114
211.3000,2.13451,244.249,0.629712
211.2000,2.19318,244.586,0.633946
211.1000,-0.70936,244.575,0.633804
211.0000,3.10566,244.933,0.638289
210.9000,1.38751,244.73,0.635749
210.8000,3.01458,245.129,0.640742
210.7000,-0.122105,244.638,0.634599
210.6000,2.3375,245.011,0.639267
210.5000,0.0851565,245.919,0.650608
210.4000,3.98396,245.34,0.643377
210.3000,3.73633,245.476,0.645077
210.2000,-0.0929335,245.462,0.644907
210.1000,2.03462,245.076,0.640076
210.0000,2.52114,246.161,0.653632
209.9000,2.45776,246.041,0.652135
209.8000,3.28488,245.851,0.64976
209.7000,3.15876,246.647,0.659687
209.6000,3.04242,246.986,0.663901
209.5000,6.1099,246.569,0.658714
209.4000,3.49226,245.403,0.644171
209.3000,3.42182,247.908,0.67535
209.2000,0.229715,247.8,0.674002
209.1000,-3.18272,246.614,0.659278
209.0000,4.5949,247.359,0.668533
208.9000,-1.96847,247.751,0.673398
208.8000,4.25963,247.15,0.665943
208.7000,2.09413,247.606,0.671599
208.6000,4.62688,247.766,0.67358
208.5000,5.77969,248.05,0.677105
208.4000,3.07548,247.702,0.672793
208.3000,4.24111,248.466,0.682253
208.2000,2.85847,248.237,0.67942
208.1000,5.51568,249.467,0.694623
208.0000,0.725768,248.741,0.685657
207.9000,3.50791,249.504,0.69507
207.8000,4.86828,249.407,0.693882
207.7000,3.30688,249.134,0.690513
207.6000,3.02479,249.269,0.692177
207.5000,3.06573,249.45,0.694413
207.4000,1.79619,249.171,0.690961
207.3000,1.1052,249.477,0.694735
207.2000,0.522376,250.588,0.708414
207.1000,1.50102,250.205,0.703706
207.0000,3.97508,249.92,0.700193
206.9000,-0.246164,250.669,0.709402
206.8000,-1.84258,251.238,0.716395
206.7000,1.28929,250.632,0.708957
206.6000,2.0553,250.615,0.708748
206.5000,-0.742503,251.47,0.719227
206.4000,1.1588,250.926,0.712559
206.3000,3.39065,251.603,0.720864
206.2000,-0.840184,251.286,0.716978
206.1000,1.13563,251.59,0.720698
206.0000,3.11716,251.563,0.720365
205.9000,1.9573,252.389,0.730465
205.8000,1.727,251.976,0.725425
205.7000,3.46849,252.27,0.729012
205.6000,0.31487,251.951,0.72512
205.5000,0.250895,252.439,0.731088
205.4000,1.03078,251.96,0.725231
205.3000,3.74202,253.648,0.745819
205.2000,1.70248,253.229,0.740717
205.1000,3.13012,252.697,0.734226
205.0000,2.23967,253.579,0.744978
204.9000,-0.482771,253.256,0.741048
204.8000,3.32373,253.999,0.750074
204.7000,1.12905,254.419,0.755177
204.6000,-1.28845,254.002,0.750116
204.5000,0.384585,254.959,0.761727
204.4000,-0.136415,254.514,0.756332
204.3000,-1.21781,254.686,0.758419
204.2000,1.3391,254.203,0.752551
204.1000,1.12527,254.359,0.754448
204.0000,2.61401,255.055,0.76288
203.9000,1.1169,255.773,0.771566
203.8000,4.8233,255.768,0.771511
203.7000,3.03116,255.566,0.769061
203.6000,1.70179,255.61,0.769595
203.5000,1.00537,256.154,0.776161
203.4000,2.46093,256.634,0.781951
203.3000,2.49361,256.01,0.774425
203.2000,3.29668,256.839,0.78442
203.1000,1.52842,256.278,0.777664
203.0000,2.84085,257.108,0.787651
202.9000,2.87229,256.532,0.780723
202.8000,1.23583,257.183,0.78855
202.7000,2.62202,257.237,0.789204
202.6000,-1.22627,257.751,0.795382
202.5000,5.49801,258.398,0.803138
202.4000,3.05086,256.851,0.784557
202.3000,1.31633,258.277,0.801686
202.2000,2.86016,258.359,0.802663
202.1000,4.72161,258.567,0.805159
202.0000,3.08709,259.338,0.81437
201.9000,-0.243153,259.307,0.814005
201.8000,-0.0782601,259.57,0.817142
201.7000,1.66064,259.178,0.812462
201.6000,4.42091,259.521,0.816561
201.5000,5.05159,260.089,0.823328
201.4000,2.77258,260.585,0.829235
201.3000,2.96809,260.085,0.823288
201.2000,0.851717,260.141,0.823949
201.1000,1.59041,260.718,0.830811
201.0000,3.09578,261.468,0.839717
200.9000,1.29222,261.675,0.842175
200.8000,0.473637,260.876,0.832696
200.7000,0.977591,261.336,0.838158
200.6000,1.81024,261.104,0.835401
200.5000,2.85907,261.294,0.837661
200.4000,3.26336,261.311,0.837862
200.3000,0.70204,262.858,0.856167
200.2000,1.98508,262.418,0.850973
200.1000,1.96499,263.025,0.858133
200.0000,1.52406,262.894,0.856595
199.9000,0.3002,263.384,0.862369
199.8000,0.65833,264.362,0.873878
199.7000,2.15947,263.955,0.869095
199.6000,6.41928,263.533,0.864132
199.5000,5.04441,263.102,0.859043
199.4000,1.07484,263.659,0.865614
199.3000,3.00731,263.894,0.868375
199.2000,0.500245,263.751,0.866694
199.1000,0.358356,263.912,0.868588
199.0000,-1.42005,264.11,0.870921
198.9000,1.59318,263.436,0.862984
198.8000,0.192612,264.638,0.877125
198.7000,0.252249,265.336,0.885311
198.6000,2.49261,264.818,0.87924
198.5000,1.64323,265.245,0.884249
198.4000,2.37694,264.585,0.8765
198.3000,1.61306,265.732,0.889941
198.2000,0.578725,265.497,0.887195
198.1000,4.25783,265.63,0.888747
198.0000,4.87102,265.406,0.886134
197.9000,2.72655,265.535,0.887646
197.8000,-0.940529,266.628,0.900413
197.7000,4.40359,266.151,0.894843
197.6000,-0.88136,266.013,0.893227
197.5000,1.31243,266.929,0.903928
197.4000,-1.47679,266.361,0.897305
197.3000,3.1691,266.869,0.903228
197.2000,2.87512,266.989,0.904628
197.1000,4.15394,266.638,0.900532
197.0000,-0.832722,267.004,0.904799
196.9000,3.47522,267.396,0.909366
196.8000,4.43859,267.388,0.909273
196.7000,2.22549,267.106,0.905988
196.6000,2.97333,267.561,0.911291
196.5000,3.29956,267.439,0.909867
196.4000,-0.665188,267.35,0.908825
196.3000,1.45325,267.74,0.913373
196.2000,3.07201,267.479,0.910328
196.1000,1.59859,268.028,0.916718
196.0000,2.88457,268.233,0.919099
195.9000,0.101764,268.183,0.918521
195.8000,4.32292,268.131,0.917915
195.7000,2.4731,268.498,0.922176
195.6000,3.60947,268.818,0.925881
195.5000,3.9303,268.109,0.917652
195.4000,-0.519476,269.031,0.928349
195.3000,7.74211,268.378,0.920783
195.2000,1.10287,268.486,0.922032
195.1000,1.30765,269.026,0.928297
195.0000,2.38731,269.25,0.930881
194.9000,6.30241,268.989,0.927864
194.8000,2.12491,268.325,0.920165
194.7000,-0.183411,268.552,0.922794
194.6000,-1.17351,270.12,0.940939
194.5000,3.06008,269.217,0.930501
194.4000,1.81275,268.781,0.925448
194.3000,5.67037,268.972,0.927667
194.2000,5.91239,269.787,0.937092
194.1000,0.386012,269.083,0.928953
194.0000,1.46702,269.71,0.936201
193.9000,3.54481,269.669,0.93573
193.8000,4.58118,270.318,0.943227
193.7000,2.41995,268.995,0.927929
193.6000,2.49092,270.578,0.946219
193.5000,-1.5143,270.506,0.945396
193.4000,0.845692,270.453,0.944782
193.3000,2.95127,269.575,0.934643
193.2000,1.4431,269.864,0.937982
193.1000,1.30121,270.774,0.948478
193.0000,2.41866,269.892,0.938309
192.9000,-1.43149,269.85,0.937825
192.8000,-1.13616,270.028,0.939879
192.7000,2.74687,270.578,0.946219
192.6000,2.26307,269.949,0.938963
192.5000,3.40482,271.172,0.953069
192.4000,2.256,270.549,0.945892
192.3000,3.83391,270.894,0.949861
192.2000,2.43596,271.23,0.953734
192.1000,7.48986,271.049,0.951648
192.0000,2.63447,271.379,0.955441
191.9000,2.85277,270.41,0.944286
191.8000,4.40201,271.245,0.953903
191.7000,3.85573,271.072,0.951909
191.6000,5.41618,271.563,0.957564
191.5000,5.1745,271.798,0.960258
191.4000,2.12566,271.562,0.957551
191.3000,1.50092,271.97,0.962236
191.2000,5.27861,271.699,0.959126
191.1000,3.50434,270.889,0.949809
191.0000,0.0300106,271.855,0.960909
190.9000,5.24191,272.244,0.965381
190.8000,3.61461,272.146,0.964251
190.7000,-1.13073,272.622,0.969706
190.6000,-1.21108,272.874,0.972599
190.5000,4.828,272.01,0.962691
190.4000,0.782836,272.806,0.971821
190.3000,-0.438439,272.406,0.967239
190.2000,6.45407,273.546,0.980282
190.1000,-1.15335,272.602,0.969485
190.0000,0.440957,272.582,0.969251

##### Extended Information
[Comments]
Sample name,JN_ADBuffer
Comment,Buffer
User,Jocelyn_Andrew
Division
Company,Saint Mary's College

[Detailed Information]
Creation date,9/29/2022 4:15 PM

Data array type,Linear data array * 3
Horizontal axis,Wavelength [nm]
Vertical axis(1),CD [mdeg]
Vertical axis(2),HT [V]
Vertical axis(3),Abs
Start,320 nm
End,190 nm
Data interval,0.1 nm
Data points,1301    

[Measurement Information]
Instrument name,J-1500
Model name,J-1500
Serial No.,B051061638

Detector,PM-539
Detector S/N,B051061638
  Lock-in amp.,X mode
  HT volt,Auto

Accessory,PTC-517
Accessory S/N,B026561646
  Temperature,21.45 C
  Control sensor,Holder
  Monitor sensor,Holder

Measurement date,9/29/2022 4:14 PM

Photometric mode,CD, HT, Abs
Measure range,320 - 190 nm
Data pitch,0.1 nm
CD scale,20 mdeg/0.05 dOD
FL scale,20 mdeg/0.05 dOD
D.I.T.,8 msec
Bandwidth,2.00 nm
Start mode,Immediately
Scanning mode,Continuous
Scanning speed,200 nm/min
Baseline correction,None
Shutter control,Auto
No. of cycle,1/1
N2 Flowmeter,Manual

Solvent,NaPO4 buffer

