TITLE,class
DATA TYPE,
ORIGIN,JASCO
OWNER,
DATE,21/09/30
TIME,15:35:27
SPECTROMETER/DATA SYSTEM,
LOCALE,1033
RESOLUTION,
DELTAX,-0.1
XUNITS,NANOMETERS
YUNITS,CD [mdeg]
Y2UNITS,HT [V]
Y3UNITS,ABSORBANCE
FIRSTX,  290.0000
LASTX,  190.0000
NPOINTS,    1001
FIRSTY,     1.23943
MAXY,     4.05626
MINY,    -0.51145
XYDATA
290.0000,1.23943,254.259,0.753236
289.9000,0.96951,254.108,0.751398
289.8000,0.94736,254.108,0.751408
289.7000,1.63043,254.321,0.753984
289.6000,1.3527,254.144,0.751836
289.5000,1.42221,254.213,0.752672
289.4000,1.33467,253.964,0.74965
289.3000,1.50021,254.35,0.754343
289.2000,1.51516,254.172,0.75218
289.1000,0.81558,254.137,0.751758
289.0000,1.08175,254.521,0.756419
288.9000,0.820056,254.043,0.750615
288.8000,2.18018,254.282,0.753514
288.7000,1.36156,254.241,0.753017
288.6000,1.4918,254.42,0.755192
288.5000,0.917173,254.101,0.751315
288.4000,1.48852,254.115,0.751485
288.3000,1.60575,254.187,0.752365
288.2000,1.97767,254.063,0.750855
288.1000,1.69737,254.094,0.751235
288.0000,0.800478,254.101,0.751317
287.9000,1.56254,254.332,0.754126
287.8000,1.66981,253.955,0.749544
287.7000,1.64729,253.836,0.748103
287.6000,0.943665,254.267,0.753331
287.5000,1.29574,254.061,0.750834
287.4000,1.90465,254.103,0.751342
287.3000,1.62706,254.028,0.750437
287.2000,1.69911,253.895,0.748817
287.1000,0.9703,253.772,0.747322
287.0000,1.68114,253.938,0.749343
286.9000,2.04317,254.076,0.751012
286.8000,1.32187,253.774,0.74735
286.7000,1.02214,254.08,0.751067
286.6000,1.75955,253.959,0.749596
286.5000,2.20431,253.994,0.750013
286.4000,1.44848,253.877,0.748594
286.3000,1.64281,253.689,0.746309
286.2000,1.0811,253.752,0.747078
286.1000,1.36247,253.903,0.748911
286.0000,1.36406,253.974,0.749777
285.9000,1.23452,254.016,0.750289
285.8000,1.08486,254.009,0.750206
285.7000,1.86961,254.024,0.750378
285.6000,1.91347,253.753,0.747092
285.5000,1.08721,253.785,0.747482
285.4000,2.41547,253.841,0.748155
285.3000,1.49693,253.989,0.749961
285.2000,2.26137,253.922,0.749138
285.1000,0.740921,253.901,0.748883
285.0000,1.23366,253.914,0.749047
284.9000,1.03773,253.871,0.748524
284.8000,2.19943,253.964,0.749655
284.7000,1.07385,253.787,0.747506
284.6000,1.78514,253.684,0.746253
284.5000,1.64739,253.689,0.746314
284.4000,1.2783,253.706,0.746517
284.3000,1.8394,253.84,0.748153
284.2000,1.07539,253.708,0.746539
284.1000,1.32758,253.791,0.747553
284.0000,1.49654,253.831,0.748034
283.9000,1.21656,253.738,0.746911
283.8000,1.45848,253.734,0.74686
283.7000,1.68266,253.596,0.745178
283.6000,1.54395,253.727,0.746769
283.5000,1.57289,253.799,0.747648
283.4000,1.31622,253.493,0.743928
283.3000,1.7247,253.453,0.743443
283.2000,2.08937,253.765,0.747238
283.1000,1.54534,253.75,0.747048
283.0000,1.40281,253.638,0.745697
282.9000,0.628239,253.858,0.748365
282.8000,1.5601,253.631,0.745611
282.7000,1.33679,253.632,0.745621
282.6000,2.45631,253.261,0.741106
282.5000,1.35505,253.336,0.742011
282.4000,1.04056,253.594,0.745151
282.3000,1.29433,253.584,0.745038
282.2000,1.42012,253.61,0.745345
282.1000,1.78576,253.506,0.744084
282.0000,1.37599,253.579,0.744968
281.9000,1.44722,253.36,0.742306
281.8000,1.89364,253.238,0.740819
281.7000,1.91762,253.365,0.742374
281.6000,0.912171,253.293,0.741494
281.5000,0.757055,253.61,0.745347
281.4000,1.18003,253.356,0.742266
281.3000,0.776289,253.457,0.74349
281.2000,1.08065,253.535,0.744433
281.1000,1.63831,253.209,0.740467
281.0000,1.88838,253.146,0.739699
280.9000,0.403642,253.635,0.745651
280.8000,1.31185,253.446,0.743356
280.7000,1.28794,253.29,0.74146
280.6000,1.29197,253.25,0.740969
280.5000,1.0857,253.133,0.739548
280.4000,1.0388,252.983,0.737714
280.3000,0.918557,253.208,0.740464
280.2000,0.743016,253.191,0.740249
280.1000,1.23705,253.287,0.741425
280.0000,1.91949,253.249,0.740962
279.9000,0.877704,253.279,0.741323
279.8000,0.968643,253.326,0.741899
279.7000,0.282682,253.178,0.740092
279.6000,1.82391,253.001,0.737939
279.5000,1.40898,253.239,0.740836
279.4000,1.15841,253.031,0.738306
279.3000,0.64265,253.156,0.739826
279.2000,1.89508,253.02,0.738165
279.1000,0.903009,253.201,0.74037
279.0000,1.51155,252.942,0.737222
278.9000,0.506012,253.163,0.739912
278.8000,1.29543,253.323,0.741856
278.7000,1.67571,253.163,0.739909
278.6000,0.561,253.276,0.741287
278.5000,1.00295,253.292,0.741479
278.4000,1.61553,253.234,0.74077
278.3000,1.47956,253.098,0.739123
278.2000,0.700743,253.25,0.740969
278.1000,0.488062,253.136,0.739577
278.0000,1.11873,253.209,0.740469
277.9000,1.45339,253.054,0.738583
277.8000,1.2079,253.146,0.739708
277.7000,1.63658,253.275,0.741276
277.6000,0.963896,253.276,0.741291
277.5000,1.13226,253.361,0.74232
277.4000,0.369695,252.937,0.737157
277.3000,1.44827,253.163,0.739912
277.2000,1.10917,253.136,0.739582
277.1000,0.595078,253.122,0.739414
277.0000,0.831211,253.08,0.738904
276.9000,0.989301,253.072,0.738798
276.8000,0.929192,253.072,0.738802
276.7000,0.930111,253.144,0.739674
276.6000,1.00322,253.058,0.738633
276.5000,0.639121,252.859,0.736209
276.4000,0.0899089,253.044,0.738456
276.3000,0.936181,253.171,0.740006
276.2000,1.14532,252.923,0.736983
276.1000,0.808442,253.061,0.738665
276.0000,0.664401,252.878,0.736438
275.9000,0.746179,252.867,0.736302
275.8000,1.52862,252.798,0.735456
275.7000,0.732624,253.095,0.739087
275.6000,1.52689,252.857,0.736183
275.5000,1.12661,253.039,0.738405
275.4000,1.55174,252.983,0.737713
275.3000,0.505831,252.635,0.733468
275.2000,1.25501,253.096,0.739097
275.1000,1.16622,252.818,0.735709
275.0000,1.074,252.916,0.736905
274.9000,0.765444,253.1,0.739139
274.8000,1.70007,253.056,0.738604
274.7000,0.814523,252.843,0.736005
274.6000,1.60028,252.965,0.737495
274.5000,1.02019,253.025,0.738223
274.4000,1.02003,252.886,0.736532
274.3000,1.33956,252.852,0.736126
274.2000,0.922302,252.766,0.735066
274.1000,2.13239,252.79,0.735366
274.0000,0.862722,252.569,0.732672
273.9000,0.446132,252.829,0.735843
273.8000,0.899741,252.778,0.735215
273.7000,1.25312,252.429,0.730959
273.6000,0.679495,252.469,0.731446
273.5000,1.40921,252.48,0.731584
273.4000,1.20623,252.867,0.736307
273.3000,0.717945,252.492,0.731724
273.2000,1.29812,252.286,0.729217
273.1000,0.597742,252.548,0.732411
273.0000,1.13359,252.805,0.735541
272.9000,0.764889,252.618,0.73327
272.8000,1.20527,252.864,0.73627
272.7000,0.570265,252.85,0.73609
272.6000,0.700744,252.959,0.737422
272.5000,1.48849,252.67,0.733905
272.4000,1.29384,252.641,0.733545
272.3000,1.304,252.85,0.736102
272.2000,0.472445,252.586,0.732877
272.1000,1.70399,252.332,0.729779
272.0000,0.51009,252.857,0.736184
271.9000,0.705643,252.744,0.734806
271.8000,0.756138,252.692,0.734174
271.7000,1.31661,252.79,0.735361
271.6000,0.910934,253.067,0.738736
271.5000,1.1936,252.551,0.732447
271.4000,1.02593,252.579,0.732789
271.3000,0.956907,252.735,0.734691
271.2000,1.52567,252.635,0.733469
271.1000,1.0023,252.482,0.731604
271.0000,0.774141,252.366,0.730195
270.9000,0.726404,252.485,0.731643
270.8000,0.641978,252.675,0.733965
270.7000,0.55824,252.664,0.733829
270.6000,0.766856,252.957,0.737405
270.5000,0.227061,252.598,0.733028
270.4000,0.671521,252.778,0.735223
270.3000,0.638532,252.732,0.734657
270.2000,1.0605,252.773,0.735154
270.1000,1.06501,252.941,0.737208
270.0000,0.880964,252.698,0.734242
269.9000,0.800559,252.578,0.732779
269.8000,1.595,252.765,0.735063
269.7000,1.23968,252.601,0.733055
269.6000,1.23852,252.81,0.735611
269.5000,1.45933,252.863,0.736258
269.4000,1.10157,252.727,0.734601
269.3000,0.982049,252.842,0.735999
269.2000,0.969672,252.81,0.735606
269.1000,0.467861,252.882,0.736487
269.0000,0.809238,252.648,0.733635
268.9000,0.434624,252.727,0.734598
268.8000,1.12735,252.932,0.737099
268.7000,0.996231,252.861,0.73623
268.6000,0.803207,252.784,0.73529
268.5000,0.706721,252.652,0.733682
268.4000,0.958262,252.466,0.731413
268.3000,0.376462,252.621,0.733304
268.2000,0.744684,252.816,0.735676
268.1000,1.09576,252.614,0.733217
268.0000,0.630931,252.72,0.734513
267.9000,1.08833,252.927,0.737032
267.8000,1.13294,253.211,0.740492
267.7000,0.847862,252.561,0.732574
267.6000,1.36271,252.922,0.73697
267.5000,0.679925,253.059,0.738641
267.4000,0.233948,252.866,0.736288
267.3000,1.15694,252.873,0.736375
267.2000,0.812165,252.799,0.73547
267.1000,0.722585,252.99,0.737808
267.0000,1.38629,252.778,0.735218
266.9000,1.18466,252.955,0.737374
266.8000,0.0471856,252.95,0.73731
266.7000,0.946893,252.98,0.737686
266.6000,0.931381,253.137,0.739599
266.5000,0.814325,253.087,0.738982
266.4000,1.0142,252.872,0.736369
266.3000,0.759403,253.077,0.738866
266.2000,0.69405,252.979,0.737665
266.1000,1.37438,252.9,0.736707
266.0000,0.675302,253.233,0.740768
265.9000,0.557416,253.166,0.739943
265.8000,1.10522,252.97,0.737559
265.7000,1.05691,252.963,0.737474
265.6000,0.693901,253.174,0.740043
265.5000,1.02806,253.159,0.739857
265.4000,0.530366,253.193,0.740272
265.3000,0.781948,253.129,0.739498
265.2000,0.968459,253.092,0.739048
265.1000,0.957116,253.091,0.739032
265.0000,1.53335,253.171,0.740009
264.9000,0.594991,253.23,0.740728
264.8000,0.305668,253.271,0.741225
264.7000,1.05412,253.23,0.740729
264.6000,0.797458,253.436,0.743236
264.5000,-0.145774,253.407,0.742876
264.4000,1.00939,253.352,0.742214
264.3000,0.0611311,253.332,0.741966
264.2000,0.828343,253.339,0.742053
264.1000,0.54982,253.472,0.743668
264.0000,0.41506,253.345,0.742126
263.9000,0.100192,253.285,0.741399
263.8000,1.24656,253.334,0.741994
263.7000,1.32988,253.307,0.741668
263.6000,0.725738,253.425,0.743102
263.5000,0.749621,253.246,0.740917
263.4000,1.17911,253.566,0.744818
263.3000,1.28484,253.174,0.740046
263.2000,0.529085,253.565,0.7448
263.1000,0.587655,253.378,0.742531
263.0000,0.438269,253.473,0.743688
262.9000,0.925725,253.449,0.74339
262.8000,0.8372,253.821,0.747915
262.7000,1.26154,253.432,0.74318
262.6000,0.901731,253.751,0.747063
262.5000,1.31563,253.708,0.746541
262.4000,0.614664,253.64,0.745718
262.3000,0.623903,253.804,0.747712
262.2000,0.530343,253.789,0.747527
262.1000,0.0456752,253.759,0.747163
262.0000,1.38848,253.687,0.746291
261.9000,0.55061,253.822,0.747926
261.8000,1.02895,253.581,0.745003
261.7000,0.634923,253.587,0.745065
261.6000,0.68632,253.792,0.747562
261.5000,0.840403,253.795,0.7476
261.4000,0.866554,253.674,0.746124
261.3000,0.519042,253.832,0.748051
261.2000,0.714738,253.922,0.74915
261.1000,1.03992,253.829,0.748014
261.0000,0.371508,253.949,0.749477
260.9000,1.0403,253.946,0.749434
260.8000,0.759287,253.971,0.749735
260.7000,0.672455,253.744,0.746981
260.6000,0.430116,253.948,0.749456
260.5000,0.418989,253.907,0.748959
260.4000,0.871258,254.073,0.750976
260.3000,0.705964,253.75,0.747055
260.2000,1.06448,254.127,0.75163
260.1000,1.59931,254.109,0.751418
260.0000,0.497815,254.454,0.755605
259.9000,1.27034,254.299,0.753719
259.8000,0.454755,254.339,0.754212
259.7000,1.25693,254.271,0.753379
259.6000,1.14733,254.271,0.753382
259.5000,0.960204,254.137,0.751754
259.4000,0.652378,254.266,0.75332
259.3000,0.137447,254.509,0.756268
259.2000,1.10437,254.246,0.753073
259.1000,0.368202,254.181,0.752295
259.0000,1.07224,254.613,0.757532
258.9000,0.764516,254.606,0.757439
258.8000,0.823877,254.312,0.753882
258.7000,0.728088,254.671,0.758229
258.6000,1.43779,254.943,0.761524
258.5000,0.685722,254.823,0.760071
258.4000,1.12281,254.583,0.757165
258.3000,1.07063,254.533,0.756555
258.2000,1.17458,254.386,0.754772
258.1000,0.519799,254.899,0.76099
258.0000,1.16657,254.795,0.759734
257.9000,0.380484,254.485,0.755973
257.8000,0.927394,255.022,0.762487
257.7000,1.12624,254.765,0.759368
257.6000,0.0318615,254.983,0.762016
257.5000,1.31249,255.06,0.762945
257.4000,0.538914,255.132,0.763817
257.3000,1.56727,255.068,0.763046
257.2000,0.868621,254.979,0.761959
257.1000,1.50529,255.066,0.763024
257.0000,0.899492,255.003,0.762251
256.9000,0.678763,254.966,0.761813
256.8000,0.620627,255.08,0.763188
256.7000,0.427259,254.867,0.760606
256.6000,1.58451,255.14,0.76391
256.5000,1.20039,255.22,0.764881
256.4000,0.460608,255.398,0.767037
256.3000,0.140618,255.031,0.762597
256.2000,0.609337,254.874,0.760698
256.1000,1.11517,255.086,0.763261
256.0000,1.20942,255.34,0.76633
255.9000,0.62809,255.14,0.763915
255.8000,0.346411,255.293,0.765761
255.7000,0.519258,255.451,0.767672
255.6000,0.271502,255.281,0.765621
255.5000,0.247774,255.386,0.766892
255.4000,1.43789,255.341,0.766342
255.3000,1.45843,255.503,0.768303
255.2000,0.196289,255.256,0.765313
255.1000,1.17566,255.461,0.767792
255.0000,0.350858,255.679,0.770436
254.9000,0.232141,255.609,0.769582
254.8000,0.298758,255.554,0.768921
254.7000,0.833932,255.303,0.765881
254.6000,1.15016,255.282,0.765637
254.5000,0.843,255.433,0.767457
254.4000,1.22316,255.55,0.768873
254.3000,0.999135,255.269,0.765478
254.2000,0.767529,255.55,0.768872
254.1000,0.219681,255.633,0.769877
254.0000,0.853967,255.479,0.768012
253.9000,1.46412,255.548,0.76885
253.8000,1.28677,255.973,0.773979
253.7000,0.929,256.013,0.774466
253.6000,-0.127917,255.74,0.77117
253.5000,0.810022,255.712,0.770826
253.4000,1.29515,256.066,0.775098
253.3000,1.22002,255.539,0.768741
253.2000,-0.0203561,255.849,0.772482
253.1000,-0.401101,255.915,0.773281
253.0000,-0.0384569,255.809,0.771999
252.9000,0.951074,255.746,0.771245
252.8000,1.11318,255.953,0.773739
252.7000,0.658728,256.042,0.774818
252.6000,0.880088,256.098,0.775495
252.5000,0.92544,256.146,0.776064
252.4000,0.630902,256.332,0.778314
252.3000,0.876403,256.088,0.775364
252.2000,0.271734,256.154,0.776169
252.1000,0.756366,256.398,0.779107
252.0000,1.199,256.194,0.776644
251.9000,0.701066,256.203,0.77675
251.8000,1.44331,256.174,0.776405
251.7000,0.93018,256.039,0.774773
251.6000,1.4496,256.173,0.776399
251.5000,1.48774,256.284,0.777728
251.4000,0.355848,256.225,0.777016
251.3000,0.575166,256.196,0.776672
251.2000,0.786298,256.087,0.775351
251.1000,0.549282,256.185,0.776537
251.0000,1.02863,256.251,0.777339
250.9000,0.835045,256.39,0.77901
250.8000,1.24748,256.177,0.776441
250.7000,1.812,256.74,0.783227
250.6000,1.13649,256.146,0.776063
250.5000,0.46104,256.406,0.779202
250.4000,1.53019,256.256,0.777399
250.3000,1.86822,256.246,0.777269
250.2000,1.84015,256.219,0.776943
250.1000,0.793791,256.081,0.775282
250.0000,1.32202,256.244,0.777246
249.9000,1.21127,256.222,0.776982
249.8000,1.09788,256.114,0.775684
249.7000,1.42456,256.436,0.779568
249.6000,1.25568,256.457,0.779812
249.5000,1.07749,256.574,0.781224
249.4000,1.07781,256.331,0.778301
249.3000,1.06148,256.557,0.781024
249.2000,0.657011,256.398,0.779112
249.1000,0.474985,256.308,0.778022
249.0000,0.889379,256.339,0.77839
248.9000,0.769789,256.387,0.778979
248.8000,0.976526,256.235,0.777139
248.7000,1.12587,256.315,0.778108
248.6000,0.403078,256.387,0.778971
248.5000,0.624294,256.515,0.780513
248.4000,0.681293,256.126,0.775824
248.3000,0.0146354,256.143,0.77603
248.2000,1.07025,256.332,0.778307
248.1000,0.351574,256.326,0.778239
248.0000,0.605478,256.268,0.777543
247.9000,0.0187753,256.19,0.776596
247.8000,0.971485,255.969,0.773932
247.7000,1.50198,255.919,0.77333
247.6000,0.755064,256.45,0.779729
247.5000,1.05396,256.149,0.776104
247.4000,0.356042,256.442,0.779639
247.3000,0.189582,256.486,0.780166
247.2000,0.643921,256.463,0.779894
247.1000,0.982291,256.685,0.782561
247.0000,1.39227,256.379,0.778882
246.9000,0.529256,256.412,0.779281
246.8000,0.614909,256.65,0.782148
246.7000,1.8019,256.719,0.782979
246.6000,1.16745,256.56,0.781063
246.5000,1.09719,256.684,0.782555
246.4000,0.255365,256.637,0.781981
246.3000,1.13138,256.53,0.780703
246.2000,1.76724,256.453,0.779764
246.1000,1.40186,256.691,0.782633
246.0000,0.463841,256.886,0.784983
245.9000,1.17808,256.598,0.78152
245.8000,1.27816,256.792,0.783852
245.7000,1.72096,256.421,0.779378
245.6000,0.888845,256.791,0.783842
245.5000,1.20052,256.735,0.783163
245.4000,1.31144,256.389,0.778995
245.3000,0.167514,256.827,0.784277
245.2000,0.723431,256.731,0.783123
245.1000,0.852828,256.488,0.78019
245.0000,0.997246,256.412,0.779281
244.9000,1.02363,256.945,0.785692
244.8000,0.638242,256.81,0.78407
244.7000,0.672797,257.026,0.786674
244.6000,1.27976,256.805,0.784003
244.5000,1.08382,256.992,0.786262
244.4000,1.39495,257.126,0.787867
244.3000,1.42049,256.834,0.784359
244.2000,-0.231112,257.052,0.786977
244.1000,0.820857,257.021,0.786608
244.0000,0.121638,256.978,0.786094
243.9000,0.568962,257.076,0.787264
243.8000,0.71404,256.466,0.779928
243.7000,0.362853,257,0.786354
243.6000,1.04308,256.794,0.783871
243.5000,0.806966,257.067,0.787165
243.4000,1.11181,257.058,0.787054
243.3000,1.08644,256.943,0.785665
243.2000,1.70495,257.408,0.791256
243.1000,0.401492,257.297,0.789925
243.0000,0.850715,256.819,0.784179
242.9000,1.02808,256.707,0.782833
242.8000,0.812329,256.825,0.784253
242.7000,1.87558,257.22,0.789006
242.6000,1.071,257.072,0.787216
242.5000,0.761073,257.31,0.790078
242.4000,0.652887,257.341,0.790461
242.3000,0.609198,257.064,0.78713
242.2000,0.891648,257.002,0.786383
242.1000,0.675256,257.042,0.786859
242.0000,0.559937,257.399,0.791152
241.9000,0.861496,257.555,0.793027
241.8000,1.06698,257.754,0.795413
241.7000,0.98911,257.409,0.791268
241.6000,1.33542,257.109,0.787662
241.5000,1.21061,257.5,0.792367
241.4000,0.888245,257.626,0.793883
241.3000,1.38566,257.576,0.793282
241.2000,0.699134,257.307,0.790051
241.1000,1.50425,257.704,0.794812
241.0000,1.34466,257.688,0.794626
240.9000,0.0999628,257.709,0.79488
240.8000,1.12669,258.004,0.798408
240.7000,0.871627,257.836,0.796402
240.6000,0.70638,257.578,0.793298
240.5000,0.162597,257.528,0.792699
240.4000,0.991368,257.731,0.795135
240.3000,0.72984,257.669,0.794397
240.2000,0.719257,258.156,0.800231
240.1000,1.06847,257.87,0.796812
240.0000,1.72631,257.981,0.798134
239.9000,0.586024,258.048,0.798942
239.8000,0.983086,258.206,0.80083
239.7000,0.975198,257.828,0.796306
239.6000,0.331486,258.047,0.798932
239.5000,0.649012,258.318,0.802181
239.4000,1.00781,258.245,0.801306
239.3000,0.687537,258.235,0.801183
239.2000,0.454136,258.455,0.803813
239.1000,0.927149,258.224,0.801053
239.0000,1.37775,258.656,0.806226
238.9000,0.586855,258.451,0.803774
238.8000,0.78858,258.457,0.803843
238.7000,0.738693,258.538,0.804814
238.6000,1.29703,258.608,0.805654
238.5000,0.513091,258.406,0.803229
238.4000,1.38983,258.851,0.808558
238.3000,0.387143,258.965,0.809922
238.2000,1.33018,258.897,0.80911
238.1000,0.670464,258.956,0.809812
238.0000,0.65739,258.978,0.810071
237.9000,1.40325,259.01,0.810458
237.8000,0.826284,259.122,0.811796
237.7000,0.199718,259.203,0.81276
237.6000,1.24122,258.863,0.808697
237.5000,1.23499,259.016,0.810525
237.4000,1.09296,259.579,0.817245
237.3000,1.25907,259.257,0.813401
237.2000,1.82935,259.289,0.813791
237.1000,1.29122,259.493,0.81623
237.0000,1.36116,259.555,0.816962
236.9000,0.27402,259.436,0.815542
236.8000,1.48492,259.392,0.81502
236.7000,0.94888,259.55,0.8169
236.6000,1.6292,260.15,0.824051
236.5000,0.711224,259.78,0.819645
236.4000,0.594469,259.784,0.8197
236.3000,1.27254,259.636,0.817926
236.2000,0.310933,259.776,0.819603
236.1000,0.818433,259.684,0.818499
236.0000,0.473722,259.694,0.818621
235.9000,1.50712,259.586,0.817336
235.8000,1.74903,259.851,0.82049
235.7000,0.435177,260.279,0.825594
235.6000,1.77284,260.254,0.8253
235.5000,1.11919,260.495,0.828161
235.4000,1.61925,260.102,0.823489
235.3000,1.20242,260.316,0.826033
235.2000,1.6215,260.555,0.828876
235.1000,1.34063,260.451,0.827636
235.0000,1.71592,260.534,0.82863
234.9000,1.17721,260.233,0.825049
234.8000,1.11612,260.954,0.833623
234.7000,0.930943,260.639,0.829879
234.6000,1.39147,260.22,0.824885
234.5000,1.1959,261.043,0.834671
234.4000,1.50985,260.712,0.830741
234.3000,0.991688,261.017,0.834362
234.2000,0.641924,261.184,0.836346
234.1000,1.21904,260.918,0.833188
234.0000,0.445234,261.089,0.835221
233.9000,1.3431,261.379,0.838666
233.8000,0.992294,261.579,0.841039
233.7000,0.613703,261.719,0.842698
233.6000,1.49182,261.483,0.839897
233.5000,0.521771,261.568,0.840905
233.4000,1.08105,261.513,0.840258
233.3000,0.932387,261.731,0.842842
233.2000,0.701666,261.49,0.839985
233.1000,0.0982289,261.246,0.837086
233.0000,0.981062,261.809,0.843766
232.9000,1.47683,261.932,0.845219
232.8000,1.92301,262.195,0.848332
232.7000,1.7628,262.288,0.849431
232.6000,1.72756,262.106,0.847275
232.5000,0.338588,262.248,0.848958
232.4000,0.155434,262.231,0.848752
232.3000,1.37899,262.166,0.847983
232.2000,1.47188,262.568,0.852747
232.1000,0.712767,262.716,0.854484
232.0000,0.43655,262.485,0.851761
231.9000,0.645817,262.469,0.851575
231.8000,1.49139,262.552,0.85255
231.7000,1.00355,262.927,0.856984
231.6000,1.72273,262.773,0.855165
231.5000,1.08845,263.011,0.857971
231.4000,0.866896,262.966,0.857445
231.3000,1.87835,263.105,0.859085
231.2000,0.615097,263.276,0.861099
231.1000,1.68426,262.809,0.855584
231.0000,1.14082,263.442,0.863052
230.9000,0.529974,263.161,0.859743
230.8000,1.29647,263.268,0.861005
230.7000,1.9919,263.351,0.861984
230.6000,0.578405,263.059,0.858544
230.5000,1.05899,263.119,0.85925
230.4000,1.82391,262.914,0.856823
230.3000,1.52951,263.113,0.859176
230.2000,0.906385,263.212,0.860349
230.1000,1.00262,262.96,0.857371
230.0000,1.70249,263.296,0.861336
229.9000,1.31852,263.015,0.858025
229.8000,1.42823,263.104,0.859067
229.7000,2.00489,262.502,0.851963
229.6000,0.811492,263.198,0.860182
229.5000,1.15408,263.301,0.861392
229.4000,1.61019,262.835,0.855891
229.3000,1.45282,263.35,0.861976
229.2000,0.921634,263.532,0.864118
229.1000,0.519225,263.662,0.865643
229.0000,1.69859,263.964,0.869202
228.9000,1.19589,263.928,0.868774
228.8000,1.32378,263.946,0.868988
228.7000,0.550085,264.087,0.870652
228.6000,2.14353,264.418,0.874538
228.5000,2.00908,264.699,0.877835
228.4000,1.47999,264.947,0.880749
228.3000,1.30827,264.638,0.877121
228.2000,1.7013,265.005,0.881431
228.1000,0.83436,264.638,0.877128
228.0000,1.92191,264.898,0.880177
227.9000,1.82482,265.021,0.881614
227.8000,1.37657,265.102,0.882564
227.7000,1.51093,265.196,0.883671
227.6000,1.48732,265.368,0.885679
227.5000,1.42049,265.526,0.887532
227.4000,1.07726,265.521,0.887481
227.3000,0.984021,265.506,0.887302
227.2000,0.789842,265.414,0.886225
227.1000,0.838747,265.725,0.889866
227.0000,0.908673,266.019,0.893306
226.9000,1.73185,265.792,0.890643
226.8000,1.095,265.945,0.892442
226.7000,0.512024,265.803,0.890776
226.6000,1.89297,266.117,0.894444
226.5000,1.00067,266.255,0.896062
226.4000,1.78339,265.982,0.892871
226.3000,2.26614,266.36,0.897285
226.2000,2.082,266.324,0.896863
226.1000,0.86657,266.306,0.896652
226.0000,2.00386,266.569,0.899727
225.9000,1.60876,266.32,0.896814
225.8000,1.72344,266.659,0.900778
225.7000,1.9107,266.656,0.900738
225.6000,1.36672,266.677,0.900983
225.5000,0.899587,266.856,0.90308
225.4000,2.07105,267.057,0.90542
225.3000,1.09878,266.997,0.904718
225.2000,1.96555,267.161,0.906634
225.1000,1.41282,267.571,0.911406
225.0000,1.36058,267.596,0.911696
224.9000,0.279048,267.11,0.906031
224.8000,1.45708,267.605,0.911799
224.7000,1.495,267.633,0.912129
224.6000,0.632109,267.446,0.909945
224.5000,1.25808,267.577,0.911476
224.4000,1.83474,267.905,0.915285
224.3000,1.4608,267.75,0.91348
224.2000,0.74345,267.42,0.909641
224.1000,1.93375,268.067,0.917166
224.0000,0.199471,268.108,0.917642
223.9000,0.972633,268.24,0.919173
223.8000,1.30791,268.325,0.920161
223.7000,1.614,268.258,0.919381
223.6000,1.17916,268.116,0.917742
223.5000,1.1301,268.192,0.918624
223.4000,1.62541,268.329,0.920213
223.3000,0.967122,268.412,0.921173
223.2000,1.13235,268.548,0.922752
223.1000,2.48134,268.671,0.92418
223.0000,1.52859,268.975,0.927705
222.9000,0.750503,268.857,0.926328
222.8000,1.09057,268.989,0.927867
222.7000,1.80493,268.81,0.925786
222.6000,1.36643,269.011,0.92812
222.5000,1.06619,268.962,0.927554
222.4000,0.583658,269.052,0.928596
222.3000,1.77397,269.247,0.930849
222.2000,1.88743,269.265,0.931062
222.1000,1.99266,269.251,0.930898
222.0000,1.42109,269.658,0.935603
221.9000,1.64945,269.693,0.936014
221.8000,2.2942,269.635,0.935341
221.7000,0.899023,269.534,0.93417
221.6000,0.629167,269.424,0.932894
221.5000,1.73429,269.591,0.934828
221.4000,1.76644,269.658,0.9356
221.3000,1.7035,269.752,0.936686
221.2000,1.26808,270.015,0.939732
221.1000,1.40388,270.014,0.939719
221.0000,1.96415,270.004,0.939603
220.9000,1.43892,270.629,0.946807
220.8000,2.03943,269.923,0.938666
220.7000,2.64602,270.39,0.944058
220.6000,1.27,270.331,0.943372
220.5000,1.9821,270.271,0.942684
220.4000,1.93641,270.357,0.943674
220.3000,1.95631,270.381,0.943947
220.2000,1.50195,269.837,0.937671
220.1000,0.641077,270.285,0.94284
220.0000,1.76546,270.522,0.945575
219.9000,1.18822,270.445,0.944693
219.8000,1.85679,270.849,0.949349
219.7000,2.32475,271.023,0.951349
219.6000,2.41364,270.717,0.94783
219.5000,2.82844,270.799,0.948774
219.4000,1.55209,271.137,0.952658
219.3000,1.24435,271.192,0.95329
219.2000,0.610391,270.95,0.95051
219.1000,3.1254,271.002,0.951112
219.0000,1.82795,271.022,0.951334
218.9000,1.8583,271.367,0.955307
218.8000,1.39394,271.369,0.95533
218.7000,0.781401,271.249,0.953953
218.6000,0.862403,271.195,0.953331
218.5000,1.36637,271.201,0.9534
218.4000,2.63574,271.466,0.956447
218.3000,1.74812,271.822,0.960533
218.2000,1.46535,271.424,0.955964
218.1000,2.05677,271.443,0.956176
218.0000,1.42111,271.67,0.958784
217.9000,2.2234,271.774,0.959986
217.8000,1.27405,271.688,0.958993
217.7000,1.87826,271.716,0.959316
217.6000,0.95312,271.973,0.962271
217.5000,1.83214,272.061,0.963273
217.4000,1.00759,272.217,0.965065
217.3000,1.77156,272.087,0.963576
217.2000,1.7717,272.348,0.966564
217.1000,1.61091,272.277,0.965753
217.0000,1.8564,272.385,0.966998
216.9000,1.71119,272.75,0.971171
216.8000,1.87167,272.492,0.968221
216.7000,2.25204,272.51,0.968429
216.6000,1.54453,272.661,0.970161
216.5000,2.23666,272.561,0.969011
216.4000,2.21139,272.59,0.969348
216.3000,1.38646,272.341,0.966494
216.2000,1.89781,272.706,0.970669
216.1000,2.31176,273.09,0.975061
216.0000,1.62378,273.016,0.974223
215.9000,1.64911,272.625,0.969739
215.8000,1.93081,272.797,0.971711
215.7000,1.89477,273.369,0.978262
215.6000,1.85202,273.056,0.974674
215.5000,1.09926,273.009,0.974144
215.4000,1.53771,273.429,0.978942
215.3000,2.28673,273.322,0.977714
215.2000,1.38242,273.65,0.981467
215.1000,1.78374,273.51,0.97987
215.0000,1.60154,273.469,0.979401
214.9000,1.23045,273.538,0.980187
214.8000,1.92707,273.587,0.980741
214.7000,1.63687,273.555,0.980378
214.6000,1.58906,273.88,0.984092
214.5000,2.04794,274.001,0.985469
214.4000,2.29426,273.835,0.983583
214.3000,1.37441,273.898,0.984299
214.2000,2.01248,274.038,0.985892
214.1000,1.43333,273.715,0.982213
214.0000,2.32206,274.074,0.9863
213.9000,2.87246,274.044,0.985963
213.8000,2.26117,273.951,0.984905
213.7000,2.58447,274.373,0.989711
213.6000,2.72337,274.363,0.989601
213.5000,1.26771,274.409,0.990121
213.4000,0.641082,274.125,0.986881
213.3000,1.17956,274.246,0.988262
213.2000,2.06043,274.376,0.989751
213.1000,2.19251,274.25,0.988314
213.0000,2.03783,274.619,0.992511
212.9000,2.1154,274.663,0.99301
212.8000,2.25408,274.361,0.989574
212.7000,2.00447,274.586,0.992142
212.6000,1.42861,274.564,0.991887
212.5000,1.46376,274.58,0.992072
212.4000,2.83685,274.742,0.993916
212.3000,1.99191,275.23,0.999468
212.2000,2.05603,274.935,0.996112
212.1000,1.59247,275.163,0.998702
212.0000,2.08558,275.317,1.00046
211.9000,0.463337,275.251,0.999705
211.8000,1.14596,275.519,1.00275
211.7000,1.32086,275.472,1.00221
211.6000,1.62265,275.606,1.00373
211.5000,1.49056,275.705,1.00485
211.4000,2.1986,275.744,1.0053
211.3000,2.50486,275.692,1.00471
211.2000,1.7299,275.704,1.00485
211.1000,1.82505,275.782,1.00573
211.0000,1.494,275.773,1.00563
210.9000,2.52104,275.852,1.00653
210.8000,2.08763,276.146,1.00986
210.7000,2.08367,276.093,1.00925
210.6000,2.37448,275.925,1.00735
210.5000,1.31055,276.102,1.00937
210.4000,2.0352,276.423,1.013
210.3000,2.35042,276.189,1.01035
210.2000,1.63965,276.491,1.01377
210.1000,1.72653,276.581,1.01478
210.0000,2.48028,276.649,1.01555
209.9000,2.07978,276.69,1.01602
209.8000,1.98681,276.892,1.0183
209.7000,1.29041,276.856,1.0179
209.6000,0.707534,277.194,1.02172
209.5000,2.39805,277.089,1.02053
209.4000,2.64288,277.408,1.02414
209.3000,2.80066,277.613,1.02645
209.2000,2.36582,277.553,1.02578
209.1000,1.79904,277.447,1.02458
209.0000,1.07155,277.476,1.0249
208.9000,1.77669,277.735,1.02782
208.8000,1.89616,277.888,1.02956
208.7000,2.15371,277.941,1.03015
208.6000,1.42497,277.853,1.02916
208.5000,1.59889,278.046,1.03134
208.4000,2.22255,277.76,1.0281
208.3000,0.943648,278.205,1.03312
208.2000,1.74209,278.133,1.03231
208.1000,2.40778,278.225,1.03334
208.0000,1.51532,278.551,1.03702
207.9000,1.78641,278.454,1.03593
207.8000,2.60154,278.649,1.03812
207.7000,1.18684,278.734,1.03907
207.6000,1.92195,278.784,1.03963
207.5000,1.90747,278.774,1.03953
207.4000,1.31181,279.03,1.04241
207.3000,1.72066,279.233,1.04469
207.2000,3.15424,278.891,1.04085
207.1000,1.38619,279.253,1.04491
207.0000,1.40111,279.327,1.04574
206.9000,2.04491,279.248,1.04486
206.8000,2.43804,279.417,1.04675
206.7000,2.44632,279.574,1.04851
206.6000,2.24495,279.567,1.04843
206.5000,2.31686,279.849,1.0516
206.4000,1.91599,280.012,1.05342
206.3000,2.28371,279.851,1.05162
206.2000,2.22929,280.178,1.05528
206.1000,0.732499,280.245,1.05603
206.0000,1.7786,280.398,1.05774
205.9000,1.5286,280.563,1.05958
205.8000,1.40454,280.594,1.05994
205.7000,1.86099,280.635,1.06039
205.6000,2.34919,280.651,1.06057
205.5000,2.91821,280.893,1.06328
205.4000,1.83371,280.903,1.06339
205.3000,1.53025,281.142,1.06606
205.2000,2.96225,281.307,1.0679
205.1000,1.69167,281.383,1.06874
205.0000,1.85866,281.517,1.07024
204.9000,1.44421,281.677,1.07203
204.8000,2.28145,281.834,1.07377
204.7000,2.44976,281.949,1.07506
204.6000,2.10701,281.974,1.07534
204.5000,2.08539,282.348,1.0795
204.4000,1.24413,282.48,1.08097
204.3000,1.9875,282.56,1.08186
204.2000,3.06579,282.482,1.081
204.1000,2.27937,282.907,1.08571
204.0000,1.86772,282.685,1.08324
203.9000,1.23523,283.095,1.0878
203.8000,2.30038,283.463,1.09188
203.7000,2.07456,283.276,1.08981
203.6000,1.27162,283.366,1.0908
203.5000,2.98985,283.583,1.09322
203.4000,3.34308,283.864,1.09633
203.3000,2.49764,283.988,1.0977
203.2000,2.14215,283.989,1.09771
203.1000,3.51966,284.105,1.099
203.0000,2.25902,284.266,1.10078
202.9000,1.96055,284.385,1.1021
202.8000,3.05691,284.571,1.10415
202.7000,1.13673,284.613,1.10462
202.6000,2.54702,284.827,1.10698
202.5000,2.12412,284.942,1.10825
202.4000,1.98853,285.118,1.1102
202.3000,2.43956,285.278,1.11196
202.2000,1.41466,285.345,1.1127
202.1000,1.49689,285.597,1.11547
202.0000,2.24111,285.728,1.11692
201.9000,1.91965,285.99,1.11981
201.8000,1.55583,286.354,1.12381
201.7000,2.0385,286.374,1.12403
201.6000,1.14018,286.644,1.127
201.5000,2.26512,286.562,1.1261
201.4000,0.828785,286.772,1.1284
201.3000,2.39801,286.953,1.13039
201.2000,1.82294,287.333,1.13456
201.1000,2.41683,287.601,1.13749
201.0000,3.08003,287.673,1.13828
200.9000,1.49386,287.813,1.13982
200.8000,2.74249,287.972,1.14156
200.7000,2.15889,288.055,1.14247
200.6000,1.97315,288.253,1.14464
200.5000,2.33441,288.275,1.14487
200.4000,1.25534,288.396,1.14619
200.3000,-0.511452,288.678,1.14928
200.2000,2.24989,289.056,1.15341
200.1000,2.30195,289.15,1.15443
200.0000,1.69334,289.266,1.15569
199.9000,2.39226,289.413,1.1573
199.8000,2.06323,289.649,1.15986
199.7000,3.21606,289.676,1.16016
199.6000,2.93699,290.005,1.16375
199.5000,2.15645,289.908,1.16268
199.4000,2.41255,290.129,1.1651
199.3000,2.57155,290.436,1.16843
199.2000,1.93616,290.309,1.16705
199.1000,1.98404,290.417,1.16822
199.0000,3.21499,290.484,1.16895
198.9000,2.22874,290.73,1.17162
198.8000,1.46028,291.107,1.17571
198.7000,0.36626,291.113,1.17578
198.6000,1.0755,291.269,1.17747
198.5000,1.42101,291.476,1.17971
198.4000,3.23695,291.563,1.18066
198.3000,1.22412,291.527,1.18027
198.2000,4.05626,292.116,1.18664
198.1000,2.59008,292.088,1.18634
198.0000,1.7885,292.115,1.18663
197.9000,1.72111,292.329,1.18894
197.8000,2.48232,291.942,1.18476
197.7000,2.1485,292.507,1.19087
197.6000,1.9216,292.664,1.19256
197.5000,1.7906,292.693,1.19288
197.4000,3.11787,292.913,1.19525
197.3000,2.64187,293.293,1.19935
197.2000,0.677846,293.379,1.20028
197.1000,2.25493,293.781,1.20461
197.0000,1.24483,293.912,1.20602
196.9000,1.1721,294.106,1.2081
196.8000,3.43389,294.262,1.20978
196.7000,2.14701,294.217,1.2093
196.6000,2.05335,294.709,1.21459
196.5000,2.39096,294.923,1.21688
196.4000,1.46767,295.132,1.21912
196.3000,1.78676,295.56,1.22371
196.2000,1.80688,295.691,1.22511
196.1000,2.43847,295.875,1.22709
196.0000,2.4825,296.242,1.23101
195.9000,1.72621,296.496,1.23372
195.8000,1.37713,296.646,1.23532
195.7000,1.31011,296.918,1.23823
195.6000,2.16777,297.074,1.23989
195.5000,3.38914,297.49,1.24433
195.4000,1.745,297.833,1.24797
195.3000,0.679993,297.834,1.24799
195.2000,1.78533,298.225,1.25215
195.1000,2.56441,298.366,1.25364
195.0000,2.28085,298.876,1.25906
194.9000,1.91244,299.018,1.26057
194.8000,2.13022,299.28,1.26335
194.7000,1.82444,299.547,1.26617
194.6000,2.512,299.983,1.27078
194.5000,2.74284,300.164,1.2727
194.4000,1.80967,300.777,1.27918
194.3000,1.75505,301.082,1.28239
194.2000,0.282612,301.524,1.28705
194.1000,1.92205,301.9,1.29101
194.0000,1.57426,302.517,1.2975
193.9000,1.84067,303.036,1.30294
193.8000,0.916457,303.592,1.30878
193.7000,0.969529,304.219,1.31534
193.6000,1.22081,304.923,1.32269
193.5000,1.01288,305.34,1.32704
193.4000,0.997735,305.609,1.32985
193.3000,1.42469,305.993,1.33384
193.2000,1.34603,306.478,1.33888
193.1000,1.44267,306.896,1.34323
193.0000,1.45021,307.613,1.35066
192.9000,2.30332,308.221,1.35696
192.8000,2.1544,308.577,1.36063
192.7000,0.558808,309.453,1.36967
192.6000,1.85625,310.338,1.37878
192.5000,2.2415,311.167,1.38729
192.4000,-0.240843,312.052,1.39637
192.3000,0.492049,312.577,1.40174
192.2000,1.39589,313.276,1.40887
192.1000,1.50694,314.03,1.41656
192.0000,-0.0305925,314.607,1.42244
191.9000,1.1698,315.686,1.43338
191.8000,0.544593,316.369,1.44031
191.7000,1.40639,317.291,1.44963
191.6000,1.62334,317.951,1.45628
191.5000,2.84567,318.787,1.46469
191.4000,1.10672,319.853,1.4754
191.3000,2.74113,320.993,1.48682
191.2000,2.40061,321.955,1.49642
191.1000,1.32249,323.026,1.50708
191.0000,1.90835,324.637,1.52308
190.9000,2.47777,326.084,1.53738
190.8000,3.4714,327.584,1.55214
190.7000,1.7626,328.809,1.56417
190.6000,2.11144,329.92,1.57504
190.5000,2.33754,331.258,1.58809
190.4000,2.68735,332.894,1.60399
190.3000,3.8623,333.428,1.60917
190.2000,1.01547,335.196,1.62625
190.1000,1.45411,336.392,1.63777
190.0000,0.0235979,337.566,1.64904

##### Extended Information
[Comments]
Sample name,class
Comment
User
Division
Company,Saint Mary's College

[Detailed Information]
Creation date,9/30/2021 2:35 PM

Data array type,Linear data array * 3
Horizontal axis,Wavelength [nm]
Vertical axis(1),CD [mdeg]
Vertical axis(2),HT [V]
Vertical axis(3),Abs
Start,290 nm
End,190 nm
Data interval,0.1 nm
Data points,1001    

[Measurement Information]
Instrument name,J-1500
Model name,J-1500
Serial No.,B051061638

Detector,PM-539
Detector S/N,B051061638
  Lock-in amp.,X mode
  HT volt,Auto

Accessory,PTC-517
Accessory S/N,B026561646
  Temperature,22.53 C
  Control sensor,Holder
  Monitor sensor,Holder

Measurement date,9/30/2021 2:35 PM

CD Overload detect,779
Photometric mode,CD, HT, Abs
Measure range,290 - 190 nm
Data pitch,0.1 nm
CD scale,20 mdeg/0.05 dOD
FL scale,20 mdeg/0.05 dOD
D.I.T.,0.125 sec
Bandwidth,1.00 nm
Start mode,Immediately
Scanning mode,Continuous
Scanning speed,50 nm/min
Baseline correction,None
Shutter control,Auto
No. of cycle,1/1
N2 Flowmeter,Manual


