TITLE,class
DATA TYPE,
ORIGIN,JASCO
OWNER,
DATE,21/09/30
TIME,16:02:49
SPECTROMETER/DATA SYSTEM,
LOCALE,1033
RESOLUTION,
DELTAX,-0.1
XUNITS,NANOMETERS
YUNITS,CD [mdeg]
Y2UNITS,HT [V]
Y3UNITS,ABSORBANCE
FIRSTX,  290.0000
LASTX,  190.0000
NPOINTS,    1001
FIRSTY,     2.34867
MAXY,    12.04256
MINY,    -2.83217
XYDATA
290.0000,2.34867,254.289,0.753596
289.9000,2.40209,253.851,0.748283
289.8000,2.41612,253.778,0.747398
289.7000,1.10638,254.051,0.750707
289.6000,2.15744,254.358,0.754436
289.5000,2.05487,254.181,0.752293
289.4000,1.34479,254.286,0.753564
289.3000,2.62867,254.165,0.752098
289.2000,2.34896,254.437,0.755394
289.1000,2.09396,254.119,0.751542
289.0000,1.58075,253.853,0.748308
288.9000,1.80417,254.011,0.750221
288.8000,1.85075,254.025,0.750398
288.7000,1.93827,254.098,0.751276
288.6000,1.802,254.131,0.751684
288.5000,1.88334,254.329,0.754086
288.4000,1.6405,254.363,0.754504
288.3000,2.09952,253.692,0.746346
288.2000,1.86345,254.17,0.752157
288.1000,2.54723,253.963,0.749644
288.0000,1.95951,254.177,0.752243
287.9000,2.25797,254.1,0.751302
287.8000,2.95243,253.914,0.749041
287.7000,2.28193,254.004,0.750139
287.6000,2.12652,254,0.750093
287.5000,1.7426,254.017,0.750303
287.4000,2.33283,253.708,0.746549
287.3000,1.80602,253.905,0.748938
287.2000,2.17814,253.868,0.748493
287.1000,2.30523,253.773,0.747335
287.0000,2.30803,253.863,0.748427
286.9000,1.12801,254.123,0.75159
286.8000,2.35522,254.021,0.750349
286.7000,1.78629,253.711,0.746583
286.6000,2.24226,253.918,0.74909
286.5000,2.23552,254.11,0.751427
286.4000,2.53183,254.165,0.752098
286.3000,2.91934,253.552,0.744643
286.2000,2.16608,253.889,0.748744
286.1000,1.38006,253.61,0.745345
286.0000,1.12608,253.639,0.745704
285.9000,1.99483,253.886,0.748703
285.8000,2.43968,253.705,0.746505
285.7000,1.50351,253.813,0.747825
285.6000,2.53898,253.883,0.748675
285.5000,2.0773,253.622,0.745496
285.4000,3.29197,253.456,0.743476
285.3000,1.76197,253.73,0.746807
285.2000,1.62743,253.801,0.747674
285.1000,2.40431,254.008,0.750187
285.0000,2.41451,253.509,0.744128
284.9000,2.692,253.651,0.745846
284.8000,2.2128,253.864,0.748439
284.7000,2.30288,254.016,0.750291
284.6000,2.54498,253.746,0.747003
284.5000,1.95105,253.53,0.744373
284.4000,2.37493,253.457,0.743495
284.3000,1.12697,253.747,0.747022
284.2000,2.05258,253.684,0.746253
284.1000,2.03509,253.726,0.746758
284.0000,1.28914,253.649,0.745826
283.9000,1.97936,253.625,0.745537
283.8000,2.09554,253.624,0.745525
283.7000,3.06187,253.809,0.74777
283.6000,2.63908,253.669,0.746072
283.5000,1.47671,253.276,0.741291
283.4000,1.68362,253.342,0.742085
283.3000,2.13589,253.534,0.744428
283.2000,2.08482,253.771,0.74731
283.1000,1.18929,253.536,0.744451
283.0000,2.20087,253.666,0.746027
282.9000,1.58591,254.098,0.751278
282.8000,2.02726,253.442,0.743303
282.7000,2.64215,253.871,0.748521
282.6000,2.1716,253.39,0.742675
282.5000,2.2427,253.81,0.747787
282.4000,1.6588,253.504,0.744057
282.3000,2.13522,253.552,0.744641
282.2000,2.46489,253.491,0.743907
282.1000,1.98472,253.445,0.743341
282.0000,1.81562,253.847,0.748233
281.9000,2.30936,253.541,0.744513
281.8000,2.48164,253.412,0.742946
281.7000,2.53576,253.598,0.745201
281.6000,1.8635,253.402,0.742821
281.5000,1.51278,253.241,0.740864
281.4000,1.41206,253.644,0.745765
281.3000,2.17043,253.268,0.741195
281.2000,1.61489,253.324,0.74187
281.1000,1.72806,253.381,0.742566
281.0000,1.93041,253.311,0.741709
280.9000,2.17253,253.407,0.742887
280.8000,2.60771,253.207,0.740443
280.7000,1.51186,253.473,0.743685
280.6000,1.7741,253.161,0.739884
280.5000,2.19329,252.981,0.737696
280.4000,2.28574,253.223,0.740644
280.3000,2.51673,253.532,0.744399
280.2000,3.07433,253.081,0.738913
280.1000,1.48863,252.736,0.734705
280.0000,2.22791,253.293,0.741498
279.9000,2.62946,253.441,0.743297
279.8000,2.09096,253.361,0.742326
279.7000,1.52401,253.372,0.742459
279.6000,1.38648,253.502,0.744034
279.5000,2.163,253.218,0.740575
279.4000,1.87209,252.87,0.736336
279.3000,2.22468,253.036,0.738364
279.2000,1.15408,253.294,0.741509
279.1000,2.07704,252.815,0.735665
279.0000,2.73551,253.16,0.739878
278.9000,2.08829,253.005,0.737985
278.8000,1.59505,253.103,0.739178
278.7000,1.89284,253.332,0.741963
278.6000,1.83987,253.029,0.738278
278.5000,2.23354,253.157,0.739834
278.4000,2.03332,253.083,0.738938
278.3000,1.82163,253.041,0.738425
278.2000,1.89828,252.92,0.73695
278.1000,1.73407,253.081,0.738909
278.0000,1.77619,252.946,0.737262
277.9000,1.1667,252.99,0.737803
277.8000,1.80444,252.88,0.736461
277.7000,1.65248,253.12,0.739384
277.6000,2.92616,253.016,0.738125
277.5000,2.56062,252.84,0.735976
277.4000,2.25576,252.927,0.737034
277.3000,1.14281,252.849,0.736085
277.2000,2.59944,252.918,0.73692
277.1000,1.60355,252.69,0.734145
277.0000,2.40396,252.854,0.736145
276.9000,2.08003,253.555,0.744688
276.8000,1.68575,253.233,0.740765
276.7000,1.64788,252.582,0.732829
276.6000,1.69472,253.087,0.738983
276.5000,2.387,252.587,0.732894
276.4000,1.23074,253.023,0.73821
276.3000,2.07994,252.883,0.736494
276.2000,1.75712,252.747,0.734842
276.1000,2.55768,252.938,0.737168
276.0000,1.93657,252.644,0.733585
275.9000,1.23723,252.461,0.731345
275.8000,2.22043,252.915,0.736885
275.7000,1.42742,252.779,0.735232
275.6000,1.7889,252.835,0.735907
275.5000,2.00171,252.702,0.734291
275.4000,1.37669,252.829,0.735837
275.3000,2.66934,252.85,0.736091
275.2000,1.43071,252.555,0.732497
275.1000,1.79522,252.616,0.733247
275.0000,1.78698,253.098,0.739121
274.9000,2.06296,252.638,0.733509
274.8000,2.32262,252.74,0.734752
274.7000,1.70154,252.706,0.734341
274.6000,2.02854,252.838,0.735951
274.5000,0.746547,252.605,0.733104
274.4000,2.12579,252.625,0.733353
274.3000,2.23929,252.476,0.731529
274.2000,1.32168,252.753,0.734913
274.1000,2.10939,252.494,0.731752
274.0000,1.83416,252.721,0.734523
273.9000,1.24709,252.375,0.730306
273.8000,2.63124,252.672,0.733921
273.7000,1.46616,252.296,0.729329
273.6000,1.20458,252.596,0.732993
273.5000,1.18485,252.622,0.733321
273.4000,1.59122,252.753,0.734913
273.3000,1.63283,252.601,0.733055
273.2000,1.68065,252.907,0.73679
273.1000,2.51902,252.68,0.734024
273.0000,1.93622,252.832,0.735874
272.9000,2.05645,252.766,0.735071
272.8000,1.69253,252.546,0.732393
272.7000,1.37127,252.78,0.735239
272.6000,1.41117,252.595,0.732984
272.5000,1.37663,252.45,0.731215
272.4000,1.34724,252.734,0.734682
272.3000,1.29764,252.813,0.735646
272.2000,0.948854,252.593,0.732967
272.1000,1.70587,252.24,0.728648
272.0000,1.09725,252.711,0.734399
271.9000,1.07366,252.561,0.732567
271.8000,1.35961,252.526,0.732148
271.7000,0.795588,252.776,0.735199
271.6000,1.03055,252.653,0.733695
271.5000,0.667925,252.589,0.732907
271.4000,0.53678,252.575,0.73274
271.3000,1.55393,252.478,0.731557
271.2000,1.12459,252.617,0.733256
271.1000,2.51106,252.774,0.735164
271.0000,1.9286,252.599,0.733032
270.9000,2.44301,252.452,0.731242
270.8000,1.94143,253.018,0.738145
270.7000,1.69551,252.703,0.734299
270.6000,1.5437,252.437,0.731056
270.5000,2.07637,252.542,0.732343
270.4000,0.815587,252.142,0.72745
270.3000,1.78008,252.658,0.733756
270.2000,1.4405,252.528,0.732166
270.1000,1.24972,252.718,0.734486
270.0000,1.84079,252.599,0.733036
269.9000,1.40172,252.542,0.732336
269.8000,1.83658,252.568,0.732651
269.7000,1.32298,252.867,0.736308
269.6000,0.959048,252.898,0.736683
269.5000,2.08465,252.606,0.733125
269.4000,1.96343,252.752,0.734896
269.3000,1.26623,253.155,0.739813
269.2000,1.04026,252.995,0.737861
269.1000,1.35526,252.804,0.735537
269.0000,1.31894,252.504,0.731878
268.9000,1.28477,252.654,0.733706
268.8000,1.57781,252.651,0.733667
268.7000,1.15801,252.643,0.733573
268.6000,1.77555,252.595,0.732984
268.5000,1.26734,252.619,0.733281
268.4000,1.27854,252.928,0.737042
268.3000,0.480327,252.731,0.734641
268.2000,0.91171,252.837,0.73594
268.1000,2.39193,252.897,0.736669
268.0000,1.37581,252.734,0.734676
267.9000,1.60228,252.782,0.735261
267.8000,1.68079,252.849,0.736083
267.7000,1.88061,252.757,0.734967
267.6000,1.3081,252.689,0.734137
267.5000,0.914958,253.051,0.738546
267.4000,1.43887,252.741,0.734771
267.3000,1.52678,252.776,0.735189
267.2000,1.13545,252.801,0.735494
267.1000,1.61197,252.875,0.736403
267.0000,1.8644,252.782,0.735272
266.9000,1.89736,252.886,0.736531
266.8000,1.37807,252.586,0.732874
266.7000,1.80454,252.828,0.735833
266.6000,2.15179,253.093,0.739054
266.5000,2.0733,253.391,0.742691
266.4000,1.93005,252.978,0.737655
266.3000,0.876015,252.937,0.737161
266.2000,1.48455,252.815,0.735665
266.1000,1.75639,253.03,0.738288
266.0000,1.30322,253.375,0.742497
265.9000,1.13516,253.235,0.740785
265.8000,1.86399,253.228,0.740703
265.7000,0.965643,252.602,0.733067
265.6000,1.77671,253.128,0.739482
265.5000,1.46545,253.073,0.738817
265.4000,1.0656,252.832,0.73588
265.3000,1.03945,253.002,0.73795
265.2000,1.2626,253.101,0.739154
265.1000,1.45966,252.863,0.736252
265.0000,1.23799,253.106,0.73922
264.9000,1.10543,253.441,0.743294
264.8000,1.93462,253.237,0.740814
264.7000,1.26791,253.281,0.741348
264.6000,1.09839,253.219,0.740587
264.5000,0.612015,253.273,0.741255
264.4000,1.68946,253.101,0.73915
264.3000,0.943619,253.659,0.745948
264.2000,1.11593,253.316,0.741769
264.1000,1.144,253.26,0.741091
264.0000,0.974448,252.942,0.737212
263.9000,1.37641,253.216,0.74055
263.8000,0.532798,253.187,0.740197
263.7000,1.47711,253.116,0.739342
263.6000,1.06167,253.216,0.740558
263.5000,1.50631,253.235,0.740783
263.4000,0.0522235,253.322,0.741843
263.3000,0.774218,253.579,0.744974
263.2000,1.19236,253.464,0.743577
263.1000,1.29655,253.478,0.743748
263.0000,1.01154,253.25,0.740972
262.9000,1.18846,253.434,0.743214
262.8000,1.74713,253.67,0.746078
262.7000,1.0552,253.38,0.742548
262.6000,0.486011,253.423,0.743077
262.5000,0.602227,253.527,0.744339
262.4000,1.70405,253.696,0.746399
262.3000,1.08129,253.413,0.742957
262.2000,2.35513,253.701,0.746454
262.1000,1.298,253.561,0.744759
262.0000,0.992626,253.618,0.745452
261.9000,0.836826,253.767,0.74726
261.8000,1.21033,253.724,0.74674
261.7000,1.28444,253.701,0.746457
261.6000,1.56508,253.72,0.746692
261.5000,0.913984,253.62,0.745468
261.4000,1.12998,253.822,0.747931
261.3000,0.739998,253.946,0.749435
261.2000,0.442207,253.729,0.746799
261.1000,1.04558,253.34,0.742066
261.0000,1.37758,253.717,0.746655
260.9000,1.86399,253.861,0.748398
260.8000,1.72805,254.041,0.750593
260.7000,1.57247,253.874,0.748557
260.6000,1.58744,253.811,0.747797
260.5000,1.14504,253.933,0.749273
260.4000,0.885759,254.162,0.75206
260.3000,0.752297,254.352,0.754363
260.2000,1.29696,254.094,0.751227
260.1000,1.37546,254.133,0.751712
260.0000,1.49037,253.826,0.747972
259.9000,1.49542,254.039,0.750569
259.8000,1.22999,254.073,0.750982
259.7000,1.59761,254.166,0.75211
259.6000,0.692788,254.064,0.750873
259.5000,2.14982,254.215,0.752704
259.4000,1.58916,254.363,0.754498
259.3000,0.831543,254.241,0.753022
259.2000,0.325673,254.246,0.753077
259.1000,0.811056,254.368,0.754564
259.0000,1.1231,254.253,0.753166
258.9000,1.23304,254.401,0.754964
258.8000,1.49053,254.584,0.757175
258.7000,1.36996,254.214,0.752693
258.6000,1.34478,254.707,0.758669
258.5000,1.07143,254.885,0.760822
258.4000,0.686522,254.441,0.755444
258.3000,1.26494,254.409,0.755062
258.2000,0.840573,254.301,0.753742
258.1000,2.14065,254.552,0.756791
258.0000,1.05336,254.43,0.755306
257.9000,2.00661,254.617,0.757582
257.8000,1.73369,254.392,0.754849
257.7000,1.31786,254.679,0.758335
257.6000,0.676547,254.476,0.755869
257.5000,1.23762,254.482,0.75594
257.4000,0.34976,254.418,0.755163
257.3000,0.645699,254.623,0.757654
257.2000,1.42019,254.531,0.756539
257.1000,1.56512,255.02,0.762466
257.0000,1.41835,255,0.762214
256.9000,1.86421,255.116,0.763623
256.8000,1.46349,254.753,0.759231
256.7000,1.84763,255.12,0.763665
256.6000,1.54443,254.983,0.762007
256.5000,1.23378,254.896,0.760961
256.4000,1.19025,255.145,0.763972
256.3000,1.27583,254.966,0.761804
256.2000,1.08699,254.994,0.762143
256.1000,2.02781,254.814,0.759967
256.0000,1.38708,254.877,0.760734
255.9000,1.75599,255.543,0.76879
255.8000,1.09217,255.296,0.765795
255.7000,0.555242,255.335,0.766275
255.6000,1.91662,255.081,0.763193
255.5000,1.82979,255.349,0.766442
255.4000,1.12375,255.328,0.76619
255.3000,1.91683,255.404,0.767102
255.2000,0.878276,255.372,0.766725
255.1000,1.23582,254.891,0.760901
255.0000,1.29867,255.478,0.768002
254.9000,1.36958,255.383,0.766857
254.8000,0.5131,255.239,0.76511
254.7000,1.85077,255.329,0.766197
254.6000,0.91262,255.543,0.768791
254.5000,1.44346,255.388,0.766916
254.4000,1.73099,255.418,0.767273
254.3000,1.3234,255.584,0.769287
254.2000,1.06871,255.61,0.769601
254.1000,1.91793,255.322,0.766121
254.0000,1.71464,255.251,0.765262
253.9000,0.818861,255.316,0.766045
253.8000,1.56654,255.182,0.764424
253.7000,2.12885,255.541,0.768759
253.6000,1.70687,255.793,0.771807
253.5000,1.98574,255.772,0.771556
253.4000,0.330673,255.835,0.772318
253.3000,1.27458,255.833,0.772286
253.2000,0.380304,255.897,0.773066
253.1000,1.1003,255.809,0.771999
253.0000,0.930738,256.002,0.774326
252.9000,1.44792,255.859,0.772608
252.8000,2.36095,255.513,0.768429
252.7000,1.00158,255.677,0.77041
252.6000,1.37242,255.728,0.771017
252.5000,1.33032,255.423,0.767336
252.4000,0.940014,256.018,0.77452
252.3000,1.58558,255.718,0.770898
252.2000,2.04879,255.93,0.773464
252.1000,1.27265,256,0.774311
252.0000,1.52553,256.115,0.775694
251.9000,0.915038,255.932,0.773486
251.8000,1.2448,255.956,0.773774
251.7000,1.03072,255.86,0.772612
251.6000,1.62503,256.12,0.775752
251.5000,1.56854,256.024,0.774602
251.4000,0.832447,255.874,0.772783
251.3000,1.57485,255.809,0.771998
251.2000,1.50916,255.552,0.768892
251.1000,0.928452,256.111,0.775645
251.0000,1.05084,255.998,0.774285
250.9000,1.39446,255.99,0.774181
250.8000,2.14374,256.498,0.780311
250.7000,0.983295,256.298,0.777899
250.6000,0.781357,256.391,0.779027
250.5000,1.85199,256.228,0.777058
250.4000,1.53237,256.251,0.777337
250.3000,1.06323,256.092,0.775419
250.2000,1.60555,256.212,0.776869
250.1000,1.13082,256.391,0.779024
250.0000,2.13726,256.309,0.778031
249.9000,0.925556,256.422,0.779394
249.8000,1.50791,256.245,0.777268
249.7000,1.26923,256.402,0.779153
249.6000,1.80397,256.18,0.776481
249.5000,1.10341,256.299,0.777916
249.4000,1.29277,256.211,0.776858
249.3000,1.2443,256.295,0.777869
249.2000,0.949764,256.228,0.777061
249.1000,1.34015,256.284,0.777728
249.0000,1.64089,256.356,0.778601
248.9000,1.06644,256.365,0.778708
248.8000,1.13674,256.12,0.775754
248.7000,1.81374,256.164,0.776285
248.6000,1.47919,256.054,0.774963
248.5000,1.60624,256.084,0.775321
248.4000,1.83159,256.107,0.775602
248.3000,1.30186,255.999,0.774293
248.2000,1.30573,255.969,0.773935
248.1000,1.15594,256.033,0.774703
248.0000,1.01623,255.817,0.772099
247.9000,1.67986,256.151,0.776127
247.8000,1.43002,256.205,0.776778
247.7000,1.79556,256.105,0.775576
247.6000,1.96996,256.136,0.775951
247.5000,1.64764,256.242,0.777222
247.4000,2.01989,256.165,0.776298
247.3000,1.02963,256.333,0.778326
247.2000,1.48705,256.584,0.781344
247.1000,1.42828,256.595,0.781477
247.0000,0.883492,256.482,0.780121
246.9000,1.62022,256.451,0.779741
246.8000,1.0806,256.299,0.777918
246.7000,0.86478,256.435,0.779554
246.6000,1.18464,256.583,0.781338
246.5000,1.9231,256.556,0.781007
246.4000,0.394691,256.33,0.778283
246.3000,1.69039,256.452,0.779752
246.2000,1.13867,256.692,0.782643
246.1000,1.8346,256.409,0.779244
246.0000,1.56583,256.393,0.779042
245.9000,1.37684,256.49,0.780214
245.8000,2.23333,256.648,0.782118
245.7000,1.29842,256.626,0.781859
245.6000,0.115879,256.738,0.783201
245.5000,1.93234,256.768,0.783563
245.4000,0.778754,256.727,0.783071
245.3000,0.916649,256.807,0.78403
245.2000,1.38013,256.754,0.783394
245.1000,1.8094,256.586,0.781372
245.0000,1.04593,256.666,0.782333
244.9000,1.25379,256.559,0.781044
244.8000,1.23542,256.675,0.782445
244.7000,1.63234,256.501,0.780352
244.6000,1.35476,256.666,0.782334
244.5000,0.903768,256.799,0.783943
244.4000,1.73164,256.67,0.782383
244.3000,1.91262,256.784,0.783756
244.2000,1.54247,256.888,0.785004
244.1000,1.05983,256.772,0.783609
244.0000,0.856533,257.043,0.786867
243.9000,1.38045,257.021,0.786609
243.8000,0.879586,256.797,0.783914
243.7000,1.43382,256.552,0.780963
243.6000,1.55422,257.268,0.789582
243.5000,2.13551,257.079,0.787305
243.4000,2.16421,257.109,0.787661
243.3000,1.35288,257.208,0.788853
243.2000,2.54726,256.84,0.784428
243.1000,2.05802,256.729,0.783093
243.0000,2.22899,257.035,0.786772
242.9000,1.99974,256.986,0.786182
242.8000,1.03581,256.798,0.783922
242.7000,1.79846,256.741,0.783233
242.6000,1.14243,256.978,0.786088
242.5000,0.432928,257.36,0.790683
242.4000,1.2,257.5,0.792366
242.3000,1.18586,257.189,0.788627
242.2000,1.49486,257.378,0.790897
242.1000,1.4085,257.382,0.790953
242.0000,1.42556,257.342,0.790469
241.9000,1.23775,257.585,0.793385
241.8000,1.38022,257.694,0.794696
241.7000,1.32854,257.591,0.793456
241.6000,0.527458,257.163,0.788315
241.5000,0.967034,257.668,0.794387
241.4000,1.66218,257.45,0.791763
241.3000,0.340574,257.782,0.795753
241.2000,1.32056,257.725,0.795069
241.1000,2.15746,257.673,0.794443
241.0000,1.55931,257.32,0.790202
240.9000,1.71938,257.353,0.790597
240.8000,1.40712,257.758,0.795457
240.7000,0.977454,257.871,0.796815
240.6000,0.488802,257.981,0.798134
240.5000,1.24554,257.657,0.794251
240.4000,1.90137,257.743,0.79528
240.3000,1.32277,257.675,0.794464
240.2000,1.80211,258.121,0.799815
240.1000,1.47187,258.038,0.798822
240.0000,1.10307,258.142,0.800062
239.9000,1.11324,258.26,0.801481
239.8000,0.553119,257.791,0.795853
239.7000,1.07605,258.228,0.801102
239.6000,1.55643,257.958,0.797866
239.5000,0.170709,258.194,0.800691
239.4000,1.25888,258.315,0.802137
239.3000,0.753967,258.383,0.802956
239.2000,0.906979,258.652,0.806181
239.1000,1.58031,258.412,0.803305
239.0000,1.63498,258.587,0.805397
238.9000,1.09503,258.716,0.806941
238.8000,0.417465,258.755,0.807408
238.7000,1.06738,258.661,0.80628
238.6000,1.13177,258.922,0.809402
238.5000,1.16476,258.832,0.808327
238.4000,0.103356,258.853,0.808585
238.3000,1.73157,258.763,0.807502
238.2000,0.906453,259.23,0.813088
238.1000,1.67185,259.234,0.81313
238.0000,0.887597,259.279,0.813672
237.9000,1.28673,259.095,0.811469
237.8000,1.36668,259.138,0.811988
237.7000,0.66806,259.168,0.812342
237.6000,0.51657,259.142,0.812034
237.5000,0.439994,259.057,0.811018
237.4000,0.217906,259.707,0.818777
237.3000,0.795898,259.569,0.817136
237.2000,1.27679,259.707,0.818781
237.1000,1.47631,259.819,0.820114
237.0000,0.858198,259.25,0.813323
236.9000,0.341694,259.731,0.819069
236.8000,1.14458,259.494,0.816239
236.7000,0.10853,259.82,0.820123
236.6000,1.91881,260.103,0.823492
236.5000,0.892056,259.908,0.821174
236.4000,0.416656,260.11,0.823582
236.3000,-0.344328,259.887,0.820921
236.2000,1.42765,260.331,0.826213
236.1000,0.431794,260.185,0.824468
236.0000,0.394594,260.264,0.825412
235.9000,0.0689107,259.981,0.82204
235.8000,0.831032,260.486,0.828061
235.7000,-0.785717,260.477,0.827943
235.6000,1.03176,260.243,0.825167
235.5000,1.06013,260.635,0.82983
235.4000,-0.133922,260.32,0.826076
235.3000,0.913368,260.751,0.831207
235.2000,1.04763,260.92,0.83321
235.1000,0.979282,260.825,0.832087
235.0000,0.231992,260.585,0.829231
234.9000,0.701291,260.773,0.831473
234.8000,0.569136,261.161,0.836078
234.7000,1.12033,261.05,0.834754
234.6000,0.111319,261.02,0.834403
234.5000,0.788512,261.306,0.837795
234.4000,0.0758288,261.49,0.839978
234.3000,0.05438,261.412,0.839058
234.2000,1.11742,261.482,0.839881
234.1000,0.949497,261.338,0.838182
234.0000,-0.0533612,261.331,0.838091
233.9000,0.00365784,261.593,0.841204
233.8000,1.01353,261.635,0.841699
233.7000,0.446976,261.858,0.84434
233.6000,0.139005,261.921,0.845082
233.5000,-0.48432,261.835,0.844074
233.4000,0.523775,262.037,0.846459
233.3000,0.618378,262.271,0.849232
233.2000,1.14425,262.239,0.848847
233.1000,0.500838,262.338,0.850025
233.0000,0.649135,262.299,0.849556
232.9000,-0.313579,262.434,0.851155
232.8000,0.138423,262.086,0.847042
232.7000,-0.0317431,262.335,0.849985
232.6000,-0.291828,262.822,0.855746
232.5000,0.778106,262.684,0.854115
232.4000,0.779038,262.858,0.85617
232.3000,0.710533,263.159,0.859713
232.2000,-0.237722,262.938,0.857112
232.1000,0.545906,262.781,0.855261
232.0000,0.532725,262.931,0.85703
231.9000,0.415086,263.111,0.859147
231.8000,0.725418,263.398,0.86254
231.7000,0.319498,263.384,0.862369
231.6000,0.254224,263.313,0.86153
231.5000,-0.553259,263.277,0.861111
231.4000,-0.930598,264.12,0.871042
231.3000,-0.530888,264.02,0.869865
231.2000,-0.186809,263.721,0.866342
231.1000,-0.482585,263.702,0.866119
231.0000,0.591261,263.857,0.86794
230.9000,0.147738,263.723,0.866363
230.8000,0.347094,263.702,0.866114
230.7000,-0.116466,263.849,0.867853
230.6000,-0.640756,263.766,0.866875
230.5000,-0.145639,263.599,0.86491
230.4000,-0.568878,263.884,0.868257
230.3000,-0.426211,263.842,0.867772
230.2000,0.739983,263.896,0.868404
230.1000,-0.875297,263.872,0.868118
230.0000,0.915726,263.939,0.86891
229.9000,-1.02557,263.988,0.86949
229.8000,-0.769125,263.848,0.867831
229.7000,-0.539892,263.841,0.86775
229.6000,-0.677141,263.662,0.865649
229.5000,0.0938605,263.994,0.869557
229.4000,0.493849,263.889,0.868321
229.3000,-0.0557835,264.112,0.870948
229.2000,-0.571694,264.097,0.870765
229.1000,-0.95537,264.288,0.87301
229.0000,-0.471229,264.481,0.875284
228.9000,-1.39987,264.722,0.878111
228.8000,0.0113138,264.928,0.880525
228.7000,-0.900209,264.94,0.880667
228.6000,0.0118988,265.142,0.883032
228.5000,-0.809487,265.444,0.886577
228.4000,-0.901439,265.311,0.885012
228.3000,-0.343628,265.328,0.88522
228.2000,-0.507304,265.526,0.88753
228.1000,-0.383052,265.508,0.887323
228.0000,-0.54121,265.856,0.891398
227.9000,-0.537594,265.762,0.8903
227.8000,-0.168203,266.16,0.894946
227.7000,-0.458898,266.22,0.895652
227.6000,-0.340732,266.411,0.897886
227.5000,-0.821023,266.429,0.898096
227.4000,-0.345001,266.085,0.894076
227.3000,-0.147648,266.516,0.899109
227.2000,-0.908974,266.613,0.90024
227.1000,-1.41732,266.686,0.901089
227.0000,-1.65463,266.509,0.899027
226.9000,-1.35131,266.822,0.90268
226.8000,-0.306264,266.819,0.902648
226.7000,-0.624674,266.808,0.902511
226.6000,0.0609748,267.164,0.906668
226.5000,-0.13373,267.24,0.907549
226.4000,-0.236661,267.132,0.906297
226.3000,-0.333113,267.267,0.907862
226.2000,-1.59429,267.424,0.909692
226.1000,-1.11655,267.431,0.909779
226.0000,-0.542115,267.448,0.909967
225.9000,-0.214747,267.456,0.910069
225.8000,-0.758567,267.274,0.907951
225.7000,-1.94018,267.832,0.914439
225.6000,-0.471321,267.732,0.913273
225.5000,-0.584968,268.095,0.917496
225.4000,-1.21865,268.539,0.92265
225.3000,-1.55498,268.2,0.918712
225.2000,-1.4522,268.37,0.920691
225.1000,-1.16875,268.204,0.918765
225.0000,-0.538178,268.455,0.921674
224.9000,-0.824199,268.415,0.921206
224.8000,-1.24823,268.575,0.923065
224.7000,-0.752164,268.537,0.922623
224.6000,-1.36818,268.549,0.922768
224.5000,-1.63488,268.703,0.924552
224.4000,-0.923694,268.877,0.926564
224.3000,-2.83217,268.867,0.926453
224.2000,-1.05387,268.976,0.927717
224.1000,-1.57424,269.125,0.929434
224.0000,-0.703723,268.978,0.927739
223.9000,-1.60727,269.522,0.934034
223.8000,-0.385501,269.656,0.935576
223.7000,-0.974427,269.557,0.93444
223.6000,0.0484962,269.643,0.935433
223.5000,-1.30595,269.737,0.936516
223.4000,-1.10867,269.261,0.931008
223.3000,-0.924833,269.839,0.937695
223.2000,-0.532248,269.876,0.938124
223.1000,-0.516457,270.004,0.939602
223.0000,-0.859765,269.86,0.937936
222.9000,-0.898926,270.004,0.939601
222.8000,-0.966574,270.411,0.944296
222.7000,-0.492189,270.491,0.945218
222.6000,-1.09763,270.474,0.945019
222.5000,-0.914261,270.289,0.942885
222.4000,-1.25288,270.186,0.941698
222.3000,-1.10311,270.405,0.944233
222.2000,-0.473382,270.945,0.950453
222.1000,-1.23164,270.6,0.946475
222.0000,-1.62158,270.493,0.945247
221.9000,-1.84227,271.112,0.952371
221.8000,-1.11236,270.799,0.948768
221.7000,-0.42845,270.915,0.950102
221.6000,-0.807047,270.909,0.950041
221.5000,-0.717538,271.307,0.95462
221.4000,-0.45635,270.862,0.9495
221.3000,-1.56358,270.893,0.94985
221.2000,-1.23326,271.344,0.955044
221.1000,-0.791691,271.368,0.955322
221.0000,-0.801037,271.36,0.955226
220.9000,-1.13963,271.24,0.953844
220.8000,-0.655788,271.472,0.956517
220.7000,-0.938818,271.79,0.960164
220.6000,-1.82942,271.842,0.960762
220.5000,-1.302,272.077,0.963463
220.4000,-1.21818,271.943,0.96192
220.3000,-1.59289,272.107,0.963809
220.2000,-0.285076,272.311,0.966141
220.1000,-0.209019,272.098,0.963705
220.0000,-0.295491,272.027,0.962887
219.9000,-1.62364,272.464,0.967904
219.8000,-0.918805,271.962,0.962138
219.7000,-0.977739,272.581,0.969235
219.6000,-0.661596,272.396,0.967124
219.5000,-1.18831,272.449,0.967722
219.4000,-0.230389,272.482,0.968105
219.3000,0.0770352,272.914,0.973055
219.2000,-0.862294,272.598,0.969437
219.1000,-1.03207,272.434,0.967558
219.0000,-1.13463,272.657,0.970106
218.9000,-1.18373,272.842,0.972227
218.8000,-1.2894,272.895,0.972838
218.7000,-0.8954,273.044,0.974543
218.6000,-0.771176,273.309,0.977571
218.5000,-1.34101,272.845,0.972263
218.4000,-0.924298,273.057,0.974689
218.3000,-0.40268,273.041,0.974505
218.2000,-0.12461,273.283,0.977274
218.1000,-0.680676,273.284,0.977283
218.0000,-0.795424,273.512,0.979895
217.9000,-0.24913,273.807,0.983263
217.8000,-0.549156,273.623,0.981159
217.7000,-0.75428,273.514,0.979918
217.6000,-2.17612,273.547,0.980286
217.5000,-1.80985,273.542,0.980238
217.4000,-1.04365,274.003,0.985492
217.3000,-0.8832,273.971,0.98513
217.2000,0.178591,273.917,0.984518
217.1000,-1.5207,274.215,0.987913
217.0000,-1.30401,274.355,0.989511
216.9000,-1.23148,274.394,0.989951
216.8000,-1.23005,274.366,0.989638
216.7000,-0.956633,274.504,0.991205
216.6000,-0.638176,274.804,0.994624
216.5000,-0.239361,274.752,0.994027
216.4000,0.184455,274.695,0.993377
216.3000,-0.990272,274.763,0.994148
216.2000,-0.577118,274.805,0.994629
216.1000,-0.807438,274.93,0.996058
216.0000,-0.461936,275.033,0.997225
215.9000,-0.976017,275.019,0.997068
215.8000,-1.24141,275.085,0.997818
215.7000,0.433314,275.398,1.00137
215.6000,-0.153075,275.334,1.00065
215.5000,-0.499435,275.41,1.00151
215.4000,0.138133,275.209,0.999223
215.3000,0.426838,275.338,1.0007
215.2000,-0.984978,275.739,1.00524
215.1000,-0.871184,275.712,1.00494
215.0000,-0.981136,275.435,1.00179
214.9000,-0.946597,275.687,1.00466
214.8000,-0.113455,275.976,1.00793
214.7000,-1.07947,276.045,1.00872
214.6000,-0.118067,275.82,1.00616
214.5000,0.180009,276.05,1.00877
214.4000,-1.28243,276.068,1.00897
214.3000,-0.184766,276.196,1.01043
214.2000,-1.08002,276.2,1.01047
214.1000,0.173194,276.322,1.01185
214.0000,-0.897119,276.439,1.01317
213.9000,-0.163842,276.174,1.01017
213.8000,-0.23834,276.525,1.01416
213.7000,0.105821,276.538,1.0143
213.6000,-0.679178,276.626,1.01529
213.5000,-0.46407,276.705,1.01619
213.4000,0.00624726,276.633,1.01538
213.3000,-0.727787,276.721,1.01637
213.2000,-0.183642,277.021,1.01976
213.1000,0.222534,277.367,1.02367
213.0000,0.282336,276.766,1.01688
212.9000,-0.512581,276.785,1.01709
212.8000,0.0571871,277.03,1.01986
212.7000,-1.50282,276.929,1.01872
212.6000,-1.79565,277.201,1.02179
212.5000,0.207747,277.308,1.023
212.4000,-1.62884,277.346,1.02343
212.3000,-0.0168481,277.303,1.02295
212.2000,-1.00244,277.625,1.02659
212.1000,-0.29923,277.584,1.02613
212.0000,-0.457695,277.944,1.03018
211.9000,-0.193995,277.808,1.02865
211.8000,0.820971,278.188,1.03293
211.7000,0.146817,278.214,1.03322
211.6000,-0.207976,278.157,1.03258
211.5000,-0.0425795,278.538,1.03687
211.4000,-0.425488,278.388,1.03518
211.3000,-1.8873,278.581,1.03735
211.2000,-0.670605,278.812,1.03995
211.1000,-1.46795,278.837,1.04024
211.0000,-0.48648,278.886,1.04079
210.9000,-0.0748126,278.781,1.03961
210.8000,-0.625068,279.123,1.04344
210.7000,-0.996873,279.193,1.04424
210.6000,-1.21914,278.994,1.042
210.5000,-0.525727,279.521,1.04792
210.4000,-0.207737,279.28,1.04521
210.3000,-0.119537,279.324,1.0457
210.2000,-1.09927,279.554,1.04828
210.1000,-1.07234,279.749,1.05048
210.0000,-0.941665,279.81,1.05116
209.9000,-0.815532,279.726,1.05022
209.8000,-0.390192,279.775,1.05077
209.7000,-0.277705,280.093,1.05432
209.6000,0.0425094,280.232,1.05589
209.5000,-0.276694,280.372,1.05745
209.4000,-0.435232,280.574,1.05971
209.3000,0.4078,280.801,1.06225
209.2000,-0.564662,280.489,1.05876
209.1000,-1.56424,280.634,1.06038
209.0000,-1.04987,280.942,1.06383
208.9000,0.50271,281.065,1.0652
208.8000,0.339903,280.975,1.06419
208.7000,-0.101594,281.268,1.06746
208.6000,0.18395,281.375,1.06866
208.5000,-0.158466,281.515,1.07023
208.4000,-0.0964119,281.182,1.0665
208.3000,-0.130073,281.317,1.06801
208.2000,0.300942,281.764,1.073
208.1000,0.341329,281.564,1.07077
208.0000,0.5483,282.051,1.0762
207.9000,-0.093323,282.212,1.07799
207.8000,-0.218136,281.961,1.0752
207.7000,0.130531,282.502,1.08122
207.6000,-0.117146,282.642,1.08277
207.5000,-0.0959801,282.887,1.08549
207.4000,-0.489498,283.155,1.08847
207.3000,-0.532513,283.217,1.08915
207.2000,-0.726725,282.975,1.08647
207.1000,-1.1963,283.005,1.0868
207.0000,0.6079,283.135,1.08825
206.9000,-0.0444298,283.359,1.09073
206.8000,-0.317571,283.683,1.09432
206.7000,0.0515139,283.87,1.09639
206.6000,0.0937769,283.944,1.09722
206.5000,-0.544344,284.373,1.10196
206.4000,0.574605,283.996,1.09779
206.3000,1.48282,284.577,1.10421
206.2000,0.694515,284.322,1.1014
206.1000,0.425172,284.665,1.10519
206.0000,0.548717,284.863,1.10737
205.9000,0.542737,284.917,1.10798
205.8000,0.625306,285.008,1.10898
205.7000,1.09394,285.605,1.11556
205.6000,1.37178,285.79,1.1176
205.5000,0.761005,286.001,1.11993
205.4000,0.74266,286.232,1.12247
205.3000,0.967462,285.646,1.11602
205.2000,0.675885,286.163,1.12171
205.1000,1.22293,286.311,1.12333
205.0000,0.285224,286.425,1.12459
204.9000,0.951979,286.588,1.12638
204.8000,2.29387,286.669,1.12728
204.7000,1.39323,287.24,1.13354
204.6000,0.666664,287.331,1.13453
204.5000,1.21085,287.281,1.13399
204.4000,1.17718,287.6,1.13748
204.3000,1.96427,287.92,1.14098
204.2000,0.955872,287.999,1.14185
204.1000,0.731661,288.297,1.14511
204.0000,1.10579,288.385,1.14607
203.9000,1.35143,288.525,1.1476
203.8000,1.40588,288.802,1.15063
203.7000,2.24998,288.743,1.14999
203.6000,1.38931,289.396,1.15711
203.5000,1.08954,289.779,1.16128
203.4000,1.61147,289.824,1.16177
203.3000,1.39924,289.737,1.16082
203.2000,2.61832,290.092,1.16469
203.1000,2.06148,290.025,1.16396
203.0000,3.70106,290.753,1.17188
202.9000,2.0792,290.297,1.16692
202.8000,2.64731,290.713,1.17144
202.7000,2.69331,290.852,1.17295
202.6000,1.88479,291.063,1.17524
202.5000,3.14807,291.384,1.17872
202.4000,3.82267,291.444,1.17937
202.3000,3.57507,291.673,1.18185
202.2000,2.90445,292.02,1.18561
202.1000,2.87966,292.229,1.18787
202.0000,2.26907,292.356,1.18923
201.9000,4.36662,292.83,1.19436
201.8000,3.95624,293.258,1.19897
201.7000,3.03171,293.204,1.19839
201.6000,4.13659,293.263,1.19903
201.5000,4.18435,294.014,1.20712
201.4000,4.19388,294.071,1.20773
201.3000,4.55308,294.276,1.20993
201.2000,4.87513,294.517,1.21252
201.1000,5.09262,294.537,1.21274
201.0000,3.51254,294.89,1.21653
200.9000,3.55055,295.241,1.22029
200.8000,4.12874,295.298,1.2209
200.7000,5.37068,295.135,1.21916
200.6000,4.63512,295.604,1.22419
200.5000,5.36417,296.017,1.2286
200.4000,4.48583,296.104,1.22953
200.3000,5.55351,296.398,1.23268
200.2000,4.94046,297.132,1.24051
200.1000,4.5772,297.092,1.24008
200.0000,5.98611,297.304,1.24234
199.9000,4.86814,297.233,1.24158
199.8000,4.62162,297.732,1.2469
199.7000,6.05734,297.964,1.24937
199.6000,5.80399,298.118,1.25101
199.5000,6.49074,298.328,1.25324
199.4000,6.57366,298.412,1.25414
199.3000,6.15589,298.914,1.25947
199.2000,7.15665,298.855,1.25883
199.1000,6.40853,299.012,1.2605
199.0000,7.53551,299.112,1.26157
198.9000,7.52486,299.477,1.26543
198.8000,5.08357,299.869,1.26958
198.7000,7.98265,299.985,1.27081
198.6000,6.46849,300.097,1.27199
198.5000,7.1754,300.18,1.27287
198.4000,7.48163,300.747,1.27886
198.3000,7.18464,301.002,1.28155
198.2000,8.00834,300.869,1.28015
198.1000,8.32749,300.876,1.28022
198.0000,7.91578,301.131,1.28292
197.9000,7.0847,301.676,1.28866
197.8000,7.78747,301.767,1.28961
197.7000,6.82471,302.203,1.2942
197.6000,7.99581,302.279,1.295
197.5000,8.52682,302.407,1.29635
197.4000,8.72075,302.635,1.29874
197.3000,9.0758,303.087,1.30348
197.2000,7.99886,303.394,1.3067
197.1000,9.20238,303.539,1.30822
197.0000,8.79646,303.879,1.31178
196.9000,8.86592,304.015,1.31321
196.8000,9.50941,304.313,1.31632
196.7000,8.83151,304.417,1.31741
196.6000,8.49977,304.983,1.32332
196.5000,8.77687,304.97,1.32318
196.4000,9.98999,305.477,1.32847
196.3000,9.45373,305.709,1.33088
196.2000,9.97169,305.775,1.33157
196.1000,8.53307,306.385,1.33792
196.0000,9.91212,306.885,1.34311
195.9000,9.35443,307.274,1.34715
195.8000,8.65082,307.144,1.3458
195.7000,10.3983,307.803,1.35263
195.6000,9.5479,308.048,1.35517
195.5000,8.23857,308.326,1.35804
195.4000,9.8298,308.69,1.3618
195.3000,10.4189,308.419,1.359
195.2000,8.46585,309.215,1.36721
195.1000,8.54266,309.501,1.37017
195.0000,10.0867,309.973,1.37503
194.9000,8.79298,309.777,1.37301
194.8000,10.7471,310.177,1.37713
194.7000,9.07292,310.267,1.37805
194.6000,10.1937,310.803,1.38356
194.5000,9.18894,311.083,1.38643
194.4000,9.37023,311.495,1.39067
194.3000,10.1879,312.194,1.39782
194.2000,8.138,312.531,1.40127
194.1000,8.87749,312.996,1.40601
194.0000,9.87106,313.531,1.41148
193.9000,9.03666,314.286,1.41916
193.8000,10.603,314.838,1.42478
193.7000,10.1637,315.37,1.43019
193.6000,10.3547,316.042,1.43699
193.5000,9.43525,316.549,1.44213
193.4000,7.24321,316.773,1.44439
193.3000,9.86914,317.182,1.44853
193.2000,10.7006,317.728,1.45403
193.1000,9.82222,318.37,1.4605
193.0000,10.4114,318.753,1.46435
192.9000,10.3486,319.455,1.47141
192.8000,10.6657,320.096,1.47784
192.7000,9.5061,320.803,1.48491
192.6000,8.9217,321.74,1.49428
192.5000,10.1357,322.716,1.504
192.4000,11.1382,323.343,1.51024
192.3000,11.4057,323.582,1.51261
192.2000,9.87887,324.783,1.52452
192.1000,10.9712,325.131,1.52796
192.0000,10.7924,325.863,1.5352
191.9000,8.35703,326.454,1.54102
191.8000,9.97079,327.11,1.54748
191.7000,9.20262,328.173,1.55794
191.6000,8.58342,328.524,1.56137
191.5000,10.5175,329.525,1.57118
191.4000,9.84812,330.414,1.57986
191.3000,12.0426,331.463,1.59009
191.2000,8.00613,332.328,1.5985
191.1000,9.65897,333.906,1.61379
191.0000,9.05828,335.047,1.62482
190.9000,8.25761,336.768,1.64138
190.8000,9.96801,338.356,1.6566
190.7000,8.95935,339.638,1.66885
190.6000,9.44625,340.475,1.67683
190.5000,6.61919,341.432,1.68592
190.4000,8.99074,342.991,1.7007
190.3000,9.84904,343.997,1.7102
190.2000,11.9826,345.001,1.71966
190.1000,8.32563,345.804,1.72721
190.0000,10.0281,347.215,1.74044

##### Extended Information
[Comments]
Sample name,class
Comment
User
Division
Company,Saint Mary's College

[Detailed Information]
Creation date,9/30/2021 3:02 PM

Data array type,Linear data array * 3
Horizontal axis,Wavelength [nm]
Vertical axis(1),CD [mdeg]
Vertical axis(2),HT [V]
Vertical axis(3),Abs
Start,290 nm
End,190 nm
Data interval,0.1 nm
Data points,1001    

[Measurement Information]
Instrument name,J-1500
Model name,J-1500
Serial No.,B051061638

Detector,PM-539
Detector S/N,B051061638
  Lock-in amp.,X mode
  HT volt,Auto

Accessory,PTC-517
Accessory S/N,B026561646
  Temperature,22.69 C
  Control sensor,Holder
  Monitor sensor,Holder

Measurement date,9/30/2021 3:02 PM

CD Overload detect,765
Photometric mode,CD, HT, Abs
Measure range,290 - 190 nm
Data pitch,0.1 nm
CD scale,20 mdeg/0.05 dOD
FL scale,20 mdeg/0.05 dOD
D.I.T.,0.125 sec
Bandwidth,1.00 nm
Start mode,Immediately
Scanning mode,Continuous
Scanning speed,50 nm/min
Baseline correction,None
Shutter control,Auto
No. of cycle,1/1
N2 Flowmeter,Manual


