TITLE,class
DATA TYPE,
ORIGIN,JASCO
OWNER,
DATE,21/09/30
TIME,15:50:16
SPECTROMETER/DATA SYSTEM,
LOCALE,1033
RESOLUTION,
DELTAX,-0.1
XUNITS,NANOMETERS
YUNITS,CD [mdeg]
Y2UNITS,HT [V]
Y3UNITS,ABSORBANCE
FIRSTX,  290.0000
LASTX,  190.0000
NPOINTS,    1001
FIRSTY,     1.55427
MAXY,    11.37906
MINY,    -3.59564
XYDATA
290.0000,1.55427,254.752,0.759214
289.9000,0.8292,254.605,0.757438
289.8000,1.02041,254.559,0.75687
289.7000,0.469158,254.646,0.757934
289.6000,0.904254,254.625,0.75767
289.5000,1.46008,254.558,0.756859
289.4000,0.764237,254.489,0.756024
289.3000,1.27432,254.349,0.754325
289.2000,2.34019,254.653,0.758012
289.1000,1.39892,254.576,0.757083
289.0000,1.81822,254.703,0.758619
288.9000,1.27309,254.626,0.757693
288.8000,2.09943,254.528,0.756494
288.7000,1.3277,254.516,0.756358
288.6000,1.59763,254.722,0.758848
288.5000,1.6012,254.397,0.754905
288.4000,1.20295,254.807,0.759881
288.3000,1.80198,254.524,0.756451
288.2000,0.541,254.294,0.753658
288.1000,2.0607,254.2,0.752525
288.0000,0.81587,254.407,0.755032
287.9000,0.845664,254.511,0.756298
287.8000,1.87294,254.436,0.755381
287.7000,2.44305,254.047,0.750658
287.6000,1.74972,254.379,0.754698
287.5000,1.86347,254.571,0.757024
287.4000,1.71646,254.458,0.755654
287.3000,0.887064,254.727,0.758908
287.2000,1.34993,254.343,0.754255
287.1000,1.05395,254.251,0.753134
287.0000,2.30608,254.641,0.75787
286.9000,1.42836,254.259,0.753239
286.8000,1.66026,254.417,0.755151
286.7000,1.13969,254.302,0.753757
286.6000,1.59262,254.395,0.754886
286.5000,1.16383,254.247,0.753097
286.4000,1.73519,254.198,0.752499
286.3000,0.996704,254.275,0.753432
286.2000,1.54366,254.704,0.75863
286.1000,1.57442,254.351,0.754349
286.0000,0.486278,254.579,0.757114
285.9000,1.25843,254.076,0.751012
285.8000,0.824642,254.091,0.751193
285.7000,1.50028,254.308,0.753825
285.6000,1.46704,254.441,0.755447
285.5000,1.13808,254.218,0.752743
285.4000,1.60258,254.068,0.750912
285.3000,1.02634,254.162,0.75206
285.2000,0.960935,254.047,0.750658
285.1000,1.19268,253.995,0.750036
285.0000,1.7364,254.228,0.752866
284.9000,1.3335,253.942,0.74939
284.8000,1.84914,254.203,0.752552
284.7000,0.995613,254.558,0.756865
284.6000,1.76442,254.294,0.753664
284.5000,1.00779,254.38,0.754709
284.4000,1.4308,254.213,0.752675
284.3000,1.23355,254.303,0.753766
284.2000,0.967132,254.626,0.757683
284.1000,0.713104,254.504,0.756208
284.0000,1.28496,254.207,0.752601
283.9000,1.02267,254.359,0.754447
283.8000,1.52257,253.884,0.74868
283.7000,1.76582,254.747,0.759149
283.6000,1.00534,254.038,0.750554
283.5000,1.66874,254.187,0.752356
283.4000,1.60372,254.365,0.754517
283.3000,1.50436,253.941,0.74938
283.2000,1.80009,253.962,0.749625
283.1000,0.919278,253.918,0.749098
283.0000,0.585981,253.958,0.749576
282.9000,1.5017,254.189,0.752386
282.8000,1.65444,254.388,0.754807
282.7000,1.40898,254.086,0.751138
282.6000,1.517,254.063,0.750854
282.5000,0.930537,254.134,0.751723
282.4000,1.41445,254.231,0.752897
282.3000,1.54719,253.991,0.749981
282.2000,1.00412,253.853,0.7483
282.1000,1.51708,253.854,0.748319
282.0000,2.13073,253.816,0.74785
281.9000,1.48018,253.914,0.749049
281.8000,1.7905,253.693,0.746366
281.7000,1.17065,254.073,0.750979
281.6000,1.18743,253.898,0.748848
281.5000,1.71536,254.169,0.752143
281.4000,1.7097,254.106,0.75138
281.3000,0.894427,253.996,0.750039
281.2000,0.843592,253.907,0.748967
281.1000,1.30692,253.606,0.7453
281.0000,1.20812,254.097,0.751273
280.9000,1.24937,253.609,0.745343
280.8000,1.15611,253.834,0.748078
280.7000,1.44111,253.838,0.748118
280.6000,1.38419,253.794,0.747592
280.5000,0.886051,253.8,0.747657
280.4000,1.06575,253.997,0.750053
280.3000,1.29229,253.937,0.749331
280.2000,0.213782,253.71,0.746572
280.1000,1.21742,253.869,0.748496
280.0000,1.94223,253.843,0.748188
279.9000,1.36643,253.719,0.74668
279.8000,0.906433,253.469,0.743634
279.7000,1.22231,253.719,0.746675
279.6000,1.36705,253.746,0.74701
279.5000,0.600295,253.551,0.744637
279.4000,1.03362,253.547,0.744589
279.3000,1.2045,253.584,0.74504
279.2000,0.934678,253.48,0.743774
279.1000,0.789998,253.557,0.744707
279.0000,1.24041,253.397,0.742754
278.9000,2.00461,253.51,0.744128
278.8000,0.95842,253.556,0.7447
278.7000,0.732864,253.616,0.74543
278.6000,0.622439,253.775,0.747357
278.5000,1.05967,253.709,0.746554
278.4000,0.939127,253.46,0.743532
278.3000,1.2776,253.506,0.744087
278.2000,1.21531,253.541,0.744517
278.1000,1.2589,253.647,0.745804
278.0000,1.38442,253.807,0.747745
277.9000,0.733993,253.487,0.74386
277.8000,1.28915,253.968,0.749706
277.7000,0.878628,253.521,0.744272
277.6000,1.45582,253.247,0.740932
277.5000,1.42754,253.526,0.744331
277.4000,1.13002,253.768,0.747272
277.3000,1.00033,253.841,0.748165
277.2000,0.773079,253.483,0.743806
277.1000,0.33512,253.578,0.744957
277.0000,1.35505,253.647,0.745806
276.9000,1.08587,253.479,0.743758
276.8000,0.793214,253.638,0.745686
276.7000,0.818528,253.364,0.742358
276.6000,0.538244,253.484,0.743819
276.5000,0.00385277,253.568,0.744837
276.4000,0.650431,253.297,0.741546
276.3000,0.530043,253.544,0.74455
276.2000,1.18564,253.327,0.741904
276.1000,1.42031,253.437,0.743251
276.0000,0.667997,253.492,0.743917
275.9000,0.569012,253.322,0.741852
275.8000,0.947571,253.348,0.742158
275.7000,0.944043,253.156,0.739825
275.6000,1.05678,253.148,0.739726
275.5000,1.07917,253.325,0.741883
275.4000,1.35614,253.365,0.742368
275.3000,1.35476,253.376,0.742508
275.2000,0.601201,253.279,0.741325
275.1000,1.00203,253.581,0.745
275.0000,0.914884,253.397,0.74276
274.9000,1.38393,253.24,0.740853
274.8000,0.800929,253.32,0.741826
274.7000,0.711677,253.295,0.741513
274.6000,1.31849,253.67,0.746081
274.5000,0.189563,253.448,0.743383
274.4000,1.0057,253.561,0.744757
274.3000,0.660032,253.335,0.742
274.2000,0.481063,253.297,0.741546
274.1000,0.965608,253.466,0.743599
274.0000,1.20165,253.089,0.739003
273.9000,1.57859,253.44,0.743281
273.8000,0.587658,253.255,0.741035
273.7000,1.37672,253.35,0.742183
273.6000,0.815208,253.275,0.741278
273.5000,0.952529,253.285,0.741398
273.4000,0.237786,253.316,0.741771
273.3000,1.50037,253.158,0.739854
273.2000,1.33893,253.335,0.742007
273.1000,0.980304,253.364,0.742353
273.0000,0.836029,253.297,0.741544
272.9000,0.616221,253.325,0.741888
272.8000,1.07996,253.443,0.743319
272.7000,1.55638,253.313,0.741735
272.6000,1.2044,253.18,0.740123
272.5000,-0.128874,253.355,0.742251
272.4000,0.930881,253.271,0.741226
272.3000,0.856855,253.08,0.738894
272.2000,0.827681,253.044,0.738455
272.1000,1.27139,253.135,0.739564
272.0000,1.27685,252.977,0.737647
271.9000,0.967241,253.256,0.741048
271.8000,1.20562,253.118,0.739366
271.7000,0.160175,253.22,0.740608
271.6000,1.00927,253.211,0.740499
271.5000,1.001,252.749,0.734863
271.4000,1.46913,253.149,0.739744
271.3000,0.894071,252.848,0.736076
271.2000,1.16989,253.297,0.741544
271.1000,0.887401,253.505,0.744068
271.0000,0.563246,253.211,0.740489
270.9000,1.58015,253.04,0.738418
270.8000,0.617434,252.612,0.733193
270.7000,1.45144,253.462,0.743549
270.6000,1.17291,253.28,0.741338
270.5000,0.0817568,252.94,0.737197
270.4000,1.06817,253.23,0.740725
270.3000,1.35441,253.005,0.737984
270.2000,0.387005,253.175,0.740053
270.1000,0.825215,253.347,0.742148
270.0000,0.702282,253.212,0.740505
269.9000,0.987365,253.134,0.739555
269.8000,1.74667,253.224,0.740657
269.7000,1.46513,253.429,0.743154
269.6000,1.18723,253.25,0.740972
269.5000,0.808522,253.639,0.745699
269.4000,0.676672,253.012,0.738072
269.3000,0.839759,253.228,0.7407
269.2000,-0.17057,253.364,0.742363
269.1000,0.957248,253.366,0.742387
269.0000,1.21809,253.285,0.741399
268.9000,0.406142,253.706,0.746516
268.8000,0.0440361,253.18,0.740121
268.7000,1.50854,253.671,0.746088
268.6000,0.750094,253.552,0.744642
268.5000,0.43578,253.099,0.739137
268.4000,0.337844,253.173,0.740035
268.3000,1.12911,253.586,0.745063
268.2000,0.143839,253.259,0.741076
268.1000,0.188866,253.64,0.745716
268.0000,0.530439,253.378,0.742526
267.9000,0.978269,253.106,0.739213
267.8000,1.11316,253.398,0.742771
267.7000,0.720645,253.369,0.742417
267.6000,0.661525,253.475,0.743706
267.5000,0.597412,253.347,0.742154
267.4000,1.04221,253.203,0.740394
267.3000,0.375132,253.291,0.741466
267.2000,0.00391566,253.153,0.739784
267.1000,0.768093,253.538,0.744474
267.0000,0.826531,253.729,0.746795
266.9000,0.552267,253.23,0.740721
266.8000,0.30007,253.315,0.741755
266.7000,0.674579,253.556,0.744692
266.6000,0.88644,253.595,0.745167
266.5000,1.01727,253.406,0.742865
266.4000,0.405531,253.736,0.746878
266.3000,0.258747,253.708,0.74654
266.2000,0.27105,253.641,0.745728
266.1000,0.686939,254.056,0.750769
266.0000,-0.146302,253.808,0.74776
265.9000,1.39886,253.486,0.743846
265.8000,0.256266,253.34,0.742061
265.7000,0.71121,253.543,0.744537
265.6000,0.124596,253.662,0.745984
265.5000,1.28096,253.543,0.74454
265.4000,0.233924,253.822,0.747929
265.3000,0.374799,253.61,0.745346
265.2000,0.959534,253.545,0.744555
265.1000,0.729421,253.763,0.747208
265.0000,0.726652,253.682,0.746221
264.9000,1.42072,253.949,0.749475
264.8000,0.572546,253.931,0.749258
264.7000,0.556603,253.801,0.747672
264.6000,0.323123,253.624,0.745524
264.5000,0.670072,253.778,0.747394
264.4000,0.831238,253.813,0.747824
264.3000,1.22579,253.624,0.74552
264.2000,1.13337,253.802,0.747682
264.1000,1.30548,253.689,0.746313
264.0000,0.698234,254.227,0.752852
263.9000,0.856543,253.946,0.749431
263.8000,0.59428,253.973,0.749759
263.7000,0.574875,253.89,0.748761
263.6000,0.643062,253.87,0.748518
263.5000,0.416856,254.362,0.75449
263.4000,0.548189,253.713,0.746604
263.3000,1.27081,254.061,0.750833
263.2000,0.683907,254.222,0.752787
263.1000,0.258639,254.016,0.750283
263.0000,-0.0243425,253.859,0.748375
262.9000,0.642715,254.084,0.751111
262.8000,0.198463,254.047,0.750666
262.7000,1.00515,254.294,0.753659
262.6000,-0.0921482,254.329,0.754086
262.5000,0.207622,254.187,0.752362
262.4000,0.573176,254.347,0.754303
262.3000,0.71771,254.548,0.756747
262.2000,0.951422,254.605,0.757433
262.1000,0.573649,254.424,0.755233
262.0000,1.30918,254.414,0.755112
261.9000,1.18145,254.585,0.757186
261.8000,0.315165,254.41,0.755065
261.7000,1.39298,253.935,0.749297
261.6000,0.742686,253.915,0.749054
261.5000,-0.0263199,254.303,0.753773
261.4000,0.715296,254.293,0.753645
261.3000,0.102555,254.582,0.757157
261.2000,1.33582,254.649,0.757967
261.1000,0.581386,254.359,0.754449
261.0000,0.613277,254.317,0.753935
260.9000,1.72276,254.598,0.757354
260.8000,0.932078,254.462,0.755697
260.7000,0.586831,254.426,0.755263
260.6000,0.994361,254.466,0.755747
260.5000,0.831257,254.648,0.757952
260.4000,0.707322,254.669,0.758204
260.3000,-0.00525781,254.764,0.759363
260.2000,0.260892,254.667,0.758187
260.1000,0.55231,254.513,0.756317
260.0000,0.170152,254.5,0.756159
259.9000,1.26513,254.655,0.758034
259.8000,0.811585,254.936,0.761438
259.7000,0.542334,254.648,0.757959
259.6000,0.987378,254.808,0.759898
259.5000,0.740695,254.764,0.759366
259.4000,0.524799,254.835,0.760222
259.3000,0.987396,254.933,0.761404
259.2000,0.231581,254.887,0.760856
259.1000,0.130493,255.021,0.762467
259.0000,1.04214,254.95,0.761615
258.9000,0.917611,255.165,0.764222
258.8000,0.627021,254.982,0.761995
258.7000,0.374598,255.047,0.762791
258.6000,0.283848,254.957,0.761697
258.5000,0.854547,255.297,0.765813
258.4000,0.145416,255.177,0.764365
258.3000,0.809873,255.267,0.765444
258.2000,0.528535,255.4,0.767064
258.1000,1.01831,255.096,0.763386
258.0000,0.31462,255.104,0.763472
257.9000,0.715265,255.218,0.764856
257.8000,0.650178,255.361,0.766587
257.7000,1.34673,255.035,0.762638
257.6000,0.436025,255.734,0.771097
257.5000,-0.184433,255.999,0.774293
257.4000,0.205818,255.378,0.766792
257.3000,0.802028,255.501,0.768277
257.2000,-0.0688949,255.319,0.766078
257.1000,0.651242,255.487,0.768105
257.0000,-0.107196,255.483,0.768066
256.9000,0.427773,255.653,0.770117
256.8000,-0.152931,255.298,0.765826
256.7000,0.507867,255.518,0.76849
256.6000,-0.127752,255.74,0.771164
256.5000,0.339959,255.783,0.771686
256.4000,0.667707,255.716,0.77088
256.3000,0.43212,255.423,0.767335
256.2000,1.063,255.686,0.770518
256.1000,1.35822,255.837,0.772345
256.0000,0.91855,255.708,0.770782
255.9000,0.913817,255.494,0.768192
255.8000,0.355529,256.094,0.775438
255.7000,0.95184,255.9,0.7731
255.6000,0.801756,255.85,0.772501
255.5000,1.51314,256.186,0.776549
255.4000,0.70936,255.907,0.773178
255.3000,0.773724,256.106,0.775588
255.2000,0.20783,255.952,0.773732
255.1000,0.692408,256.064,0.775075
255.0000,0.843111,255.991,0.774203
254.9000,0.309287,255.891,0.772987
254.8000,1.16829,255.833,0.772287
254.7000,0.14278,256.153,0.776153
254.6000,1.20796,255.963,0.773865
254.5000,0.984551,256.06,0.775036
254.4000,0.557227,256.136,0.775951
254.3000,0.616518,256.103,0.775554
254.2000,1.01124,256.204,0.776767
254.1000,1.02998,256.387,0.778973
254.0000,-0.716618,256.213,0.776882
253.9000,-0.256121,256.37,0.778768
253.8000,1.27691,256.429,0.77948
253.7000,0.576978,256.37,0.778764
253.6000,1.27196,256.297,0.77789
253.5000,0.272661,256.346,0.778475
253.4000,0.672807,256.433,0.779525
253.3000,0.169325,256.488,0.780187
253.2000,0.266684,256.478,0.780076
253.1000,-0.283497,256.331,0.778296
253.0000,1.34358,256.575,0.781243
252.9000,1.8183,256.601,0.781552
252.8000,0.889438,256.669,0.782376
252.7000,0.4597,256.465,0.779909
252.6000,0.523372,256.602,0.781563
252.5000,0.306303,256.496,0.780287
252.4000,0.528008,256.854,0.784598
252.3000,0.732483,256.549,0.78093
252.2000,0.0375628,256.756,0.783423
252.1000,0.858193,256.523,0.780613
252.0000,0.344212,256.684,0.782555
251.9000,0.783059,256.571,0.781194
251.8000,0.838087,256.717,0.782949
251.7000,0.952021,257.041,0.786854
251.6000,0.917382,256.465,0.779913
251.5000,1.19766,256.718,0.782959
251.4000,1.03145,256.749,0.783333
251.3000,0.259733,256.784,0.783759
251.2000,0.911194,256.757,0.783425
251.1000,1.11201,256.783,0.783741
251.0000,0.252053,256.86,0.784676
250.9000,1.17977,257.055,0.787018
250.8000,0.544079,256.673,0.782423
250.7000,0.829405,256.793,0.783861
250.6000,0.482606,256.834,0.784353
250.5000,0.667757,256.983,0.786156
250.4000,0.34831,256.91,0.78527
250.3000,1.21586,257.063,0.787115
250.2000,0.451227,256.892,0.785055
250.1000,1.04783,256.842,0.784454
250.0000,0.506675,257.021,0.786603
249.9000,1.32189,256.891,0.785044
249.8000,1.61184,256.981,0.786127
249.7000,0.588067,256.937,0.785595
249.6000,0.368335,256.644,0.782073
249.5000,0.510106,256.868,0.78477
249.4000,0.951894,257.369,0.790793
249.3000,0.881456,257.099,0.787542
249.2000,1.45264,256.888,0.785002
249.1000,-0.0568442,257.034,0.786766
249.0000,0.790495,256.982,0.786139
248.9000,1.12526,257.024,0.786645
248.8000,1.25049,256.803,0.783987
248.7000,0.540239,256.731,0.783117
248.6000,0.394989,257.163,0.788319
248.5000,0.980503,257.027,0.786682
248.4000,0.773105,257.192,0.788664
248.3000,0.352893,256.833,0.784346
248.2000,-0.0912944,256.796,0.783897
248.1000,0.32495,257.076,0.787264
248.0000,0.125397,256.579,0.781286
247.9000,0.67363,256.668,0.782362
247.8000,0.401172,256.615,0.781721
247.7000,0.553412,256.749,0.78334
247.6000,0.884727,256.579,0.781285
247.5000,1.12128,256.872,0.784814
247.4000,0.834927,256.828,0.784291
247.3000,0.988155,256.989,0.786218
247.2000,1.05197,257.035,0.786775
247.1000,0.622604,256.99,0.78624
247.0000,0.365039,257.323,0.790234
246.9000,0.897562,257.364,0.790726
246.8000,0.224963,257.086,0.787393
246.7000,0.126257,257.089,0.787425
246.6000,0.577275,257.242,0.789269
246.5000,0.764022,257.624,0.793859
246.4000,0.765104,256.973,0.786033
246.3000,0.177587,257.194,0.788688
246.2000,0.0161008,257.944,0.797694
246.1000,0.170607,257.642,0.794074
246.0000,0.482314,257.255,0.789426
245.9000,1.32336,257.086,0.787391
245.8000,1.5367,257.349,0.790551
245.7000,0.993792,257.32,0.790201
245.6000,1.18379,257.557,0.793055
245.5000,1.37728,257.59,0.793447
245.4000,1.58675,257.262,0.789502
245.3000,1.19571,257.464,0.791931
245.2000,1.16458,257.745,0.795305
245.1000,0.270613,257.509,0.79247
245.0000,1.00658,257.542,0.792864
244.9000,0.726663,257.857,0.796655
244.8000,0.464627,257.431,0.791531
244.7000,0.467915,257.574,0.793249
244.6000,0.626733,257.658,0.79426
244.5000,0.557704,257.713,0.794926
244.4000,0.307802,257.633,0.793967
244.3000,0.167113,257.585,0.793381
244.2000,0.495912,257.698,0.79474
244.1000,0.767796,257.804,0.79602
244.0000,0.121387,257.721,0.795018
243.9000,-0.48048,257.8,0.795965
243.8000,0.0846267,257.718,0.794982
243.7000,-0.732577,257.556,0.793035
243.6000,0.790273,257.806,0.796033
243.5000,0.267455,257.549,0.792951
243.4000,0.489197,257.745,0.795301
243.3000,0.341584,257.981,0.79814
243.2000,0.145562,257.723,0.795039
243.1000,0.595337,257.668,0.794381
243.0000,0.322935,257.625,0.793862
242.9000,1.25988,257.821,0.796221
242.8000,-0.0302203,257.923,0.797444
242.7000,0.522173,257.825,0.79627
242.6000,0.531675,257.904,0.797215
242.5000,0.00781816,257.916,0.797364
242.4000,0.428387,257.887,0.797011
242.3000,0.271733,258.029,0.79871
242.2000,0.570737,258.085,0.799379
242.1000,0.0352981,258.163,0.800316
242.0000,0.635396,258.049,0.79895
241.9000,0.761545,258.194,0.800696
241.8000,0.057615,258.276,0.801678
241.7000,0.688277,258.177,0.800493
241.6000,1.04741,258.253,0.801396
241.5000,0.194998,258.324,0.802248
241.4000,-0.0123512,258.07,0.799211
241.3000,0.187131,258.707,0.80683
241.2000,1.3619,258.248,0.801336
241.1000,0.32496,258.158,0.800255
241.0000,0.305687,258.197,0.800728
240.9000,0.184155,258.431,0.803534
240.8000,-0.230158,258.356,0.802638
240.7000,0.392299,258.51,0.804478
240.6000,0.522235,258.591,0.805443
240.5000,0.211616,258.809,0.808052
240.4000,0.260642,258.851,0.808558
240.3000,0.410929,258.629,0.805898
240.2000,0.74207,259.238,0.813181
240.1000,0.476783,258.565,0.805128
240.0000,0.241157,258.697,0.806715
239.9000,0.0736404,259.177,0.812455
239.8000,0.229887,258.637,0.805997
239.7000,-0.034332,259.147,0.812094
239.6000,0.466487,259.198,0.812702
239.5000,0.659231,259.18,0.812488
239.4000,-0.468101,259.27,0.813561
239.3000,0.0835427,259.393,0.815027
239.2000,0.803064,259.508,0.816409
239.1000,0.0970651,259.163,0.81229
239.0000,-0.278303,259.482,0.816092
238.9000,0.354509,259.916,0.821267
238.8000,0.261166,259.879,0.820832
238.7000,-0.0525845,259.767,0.81949
238.6000,0.300281,259.814,0.820053
238.5000,0.85637,259.711,0.818829
238.4000,0.0755796,260.097,0.823428
238.3000,-0.507488,259.975,0.821972
238.2000,0.391211,260.257,0.825327
238.1000,0.2833,260.335,0.826256
238.0000,0.00912114,260.21,0.824771
237.9000,0.156686,260.427,0.827349
237.8000,0.270132,260.331,0.826208
237.7000,-0.347123,260.411,0.827166
237.6000,-0.165974,260.019,0.822494
237.5000,-0.147509,260.22,0.824896
237.4000,0.618544,260.669,0.830228
237.3000,0.801554,260.937,0.83342
237.2000,-0.488863,260.709,0.830704
237.1000,0.0535798,260.564,0.828981
237.0000,-0.29129,260.539,0.82869
236.9000,-0.309767,260.992,0.834066
236.8000,0.0693633,261.134,0.835752
236.7000,0.444667,260.861,0.832517
236.6000,0.0867779,261.197,0.836505
236.5000,0.178507,260.967,0.833776
236.4000,-0.821747,260.983,0.833961
236.3000,0.150777,261.024,0.834455
236.2000,0.333482,261.229,0.836887
236.1000,-0.0588334,260.914,0.833141
236.0000,-0.317252,261.201,0.836555
235.9000,0.908025,261.226,0.83685
235.8000,-0.00907215,261.48,0.839865
235.7000,0.0561747,261.315,0.837901
235.6000,0.656102,261.521,0.840344
235.5000,0.136733,261.492,0.839999
235.4000,-0.365941,261.656,0.841945
235.3000,0.105783,261.606,0.841355
235.2000,-0.141972,261.921,0.845087
235.1000,0.0597957,261.953,0.845471
235.0000,0.228991,262.076,0.846917
234.9000,-0.957582,261.937,0.845281
234.8000,-0.148158,262.535,0.852355
234.7000,-1.25288,262.44,0.851225
234.6000,-0.620215,262.968,0.857464
234.5000,-0.804159,262.267,0.849185
234.4000,0.0285701,262.479,0.851691
234.3000,-0.441294,262.583,0.852923
234.2000,-0.574061,262.641,0.853608
234.1000,-0.391987,262.73,0.85466
234.0000,-0.598288,262.846,0.856021
233.9000,-1.00315,263.035,0.858258
233.8000,-0.414567,262.618,0.853329
233.7000,-0.665013,262.81,0.855599
233.6000,-0.491789,263.217,0.860406
233.5000,-1.18379,263.155,0.859666
233.4000,-1.03781,263.103,0.859055
233.3000,-0.707947,263.481,0.863514
233.2000,-0.652353,263.482,0.863524
233.1000,-0.524237,263.422,0.862823
233.0000,-0.198831,263.522,0.864002
232.9000,-1.66819,263.605,0.864972
232.8000,-0.508093,263.931,0.868819
232.7000,-0.922183,263.576,0.864628
232.6000,-0.925466,263.958,0.869135
232.5000,-0.636595,263.874,0.868147
232.4000,-0.98384,263.855,0.867915
232.3000,-0.770276,263.955,0.869099
232.2000,-1.19084,264.233,0.872372
232.1000,-0.743781,264.288,0.873013
232.0000,-0.931539,264.486,0.875335
231.9000,-0.567644,264.572,0.876345
231.8000,-1.99928,264.717,0.878056
231.7000,-0.93896,264.473,0.875183
231.6000,-1.22503,264.898,0.880175
231.5000,-0.812658,264.841,0.879505
231.4000,-1.33921,265.206,0.883783
231.3000,-1.29459,264.978,0.881116
231.2000,-0.702009,265.086,0.882378
231.1000,-1.4841,265.146,0.88308
231.0000,-1.33768,265.13,0.882894
230.9000,-1.32491,265.136,0.882966
230.8000,-1.26725,265.236,0.884141
230.7000,-0.151512,265.162,0.883275
230.6000,-0.361146,265.097,0.882506
230.5000,-1.58691,265.456,0.88672
230.4000,-1.10697,265.309,0.884995
230.3000,-1.16978,265.343,0.885387
230.2000,-1.89842,265.718,0.889781
230.1000,-1.70334,265.433,0.886444
230.0000,-1.20396,265.35,0.885469
229.9000,-0.795244,265.32,0.88512
229.8000,-1.4665,265.101,0.882561
229.7000,-0.723687,265.477,0.886957
229.6000,-1.77696,265.319,0.885114
229.5000,-1.96852,265.375,0.885772
229.4000,-1.84838,265.178,0.883463
229.3000,-1.94714,265.37,0.885709
229.2000,-1.22066,265.935,0.892315
229.1000,-1.51567,266.028,0.893405
229.0000,-1.13362,266.213,0.895569
228.9000,-1.53453,266.384,0.89757
228.8000,-1.63205,266.474,0.898624
228.7000,-1.70287,266.648,0.900648
228.6000,-1.53807,266.88,0.903352
228.5000,-2.34362,266.89,0.903468
228.4000,-1.76358,267.083,0.905724
228.3000,-1.99584,267.203,0.907123
228.2000,-1.77272,267.355,0.908891
228.1000,-2.73808,267.301,0.908255
228.0000,-1.7529,267.722,0.913161
227.9000,-2.56375,267.768,0.913698
227.8000,-1.93347,267.777,0.9138
227.7000,-1.50404,267.954,0.915855
227.6000,-2.49824,268.035,0.916791
227.5000,-1.51412,268.174,0.918415
227.4000,-2.21409,268.376,0.920751
227.3000,-1.26676,268.347,0.920415
227.2000,-3.05259,268.368,0.920657
227.1000,-2.12908,268.259,0.919402
227.0000,-1.9973,268.471,0.921859
226.9000,-1.42514,268.56,0.922893
226.8000,-2.63025,268.699,0.924497
226.7000,-1.69988,268.623,0.923622
226.6000,-1.49532,268.659,0.924034
226.5000,-1.91956,268.979,0.92775
226.4000,-2.26838,269.05,0.928569
226.3000,-2.42079,268.964,0.927579
226.2000,-2.20623,269.375,0.932328
226.1000,-1.73614,269.261,0.931008
226.0000,-2.65848,269.506,0.93385
225.9000,-2.5864,269.508,0.933872
225.8000,-1.86854,269.24,0.930769
225.7000,-1.80648,269.358,0.932137
225.6000,-2.06672,269.742,0.936579
225.5000,-1.94786,269.959,0.939083
225.4000,-2.89349,269.99,0.939437
225.3000,-3.26931,270.169,0.941505
225.2000,-2.48063,270.209,0.941971
225.1000,-1.96905,270.129,0.941045
225.0000,-2.41495,270.07,0.940365
224.9000,-2.48919,270.407,0.94425
224.8000,-2.03291,270.444,0.944677
224.7000,-2.16896,270.667,0.947254
224.6000,-2.08957,270.717,0.947826
224.5000,-2.12028,270.968,0.95072
224.4000,-2.16948,270.8,0.948778
224.3000,-2.26184,270.852,0.949382
224.2000,-2.52631,271.31,0.954656
224.1000,-2.12391,271.35,0.95511
224.0000,-2.75013,271.303,0.954571
223.9000,-2.01679,271.511,0.956959
223.8000,-3.12656,271.562,0.957549
223.7000,-3.11542,271.55,0.957414
223.6000,-2.54808,271.442,0.956165
223.5000,-1.98976,271.679,0.958895
223.4000,-2.33197,271.881,0.961217
223.3000,-2.84713,271.826,0.960582
223.2000,-2.44826,271.99,0.962461
223.1000,-1.93078,271.984,0.962396
223.0000,-3.361,272.201,0.964879
222.9000,-2.713,272.537,0.96874
222.8000,-2.04725,272.472,0.967993
222.7000,-2.89859,272.671,0.970271
222.6000,-3.22797,272.354,0.96664
222.5000,-2.52287,272.409,0.967271
222.4000,-2.28547,272.948,0.973438
222.3000,-2.84508,272.954,0.973509
222.2000,-2.81991,272.985,0.973867
222.1000,-2.26409,272.93,0.97323
222.0000,-2.85828,273.072,0.974858
221.9000,-3.33552,273.01,0.974153
221.8000,-1.6134,273.091,0.975074
221.7000,-2.71351,273.449,0.979175
221.6000,-2.83586,273.438,0.979045
221.5000,-2.91192,273.193,0.976243
221.4000,-2.75779,273.41,0.978723
221.3000,-1.99277,273.596,0.98085
221.2000,-2.06207,273.796,0.983138
221.1000,-3.23481,273.615,0.981062
221.0000,-2.08048,273.941,0.984784
220.9000,-2.36895,273.985,0.985288
220.8000,-2.0777,273.791,0.983074
220.7000,-2.37341,273.911,0.984443
220.6000,-2.89053,274.264,0.988472
220.5000,-2.29287,273.944,0.984819
220.4000,-3.08304,274.492,0.991066
220.3000,-2.09029,274.473,0.990854
220.2000,-2.62969,274.417,0.990212
220.1000,-2.12467,274.489,0.991034
220.0000,-2.95239,274.698,0.99341
219.9000,-2.34002,275.111,0.998109
219.8000,-2.97316,274.654,0.992909
219.7000,-1.96407,274.974,0.996554
219.6000,-3.14878,274.703,0.993471
219.5000,-2.75783,274.934,0.996094
219.4000,-2.85289,275.146,0.99851
219.3000,-2.72713,275.138,0.998424
219.2000,-3.21919,275.058,0.99751
219.1000,-2.76711,275.318,1.00047
219.0000,-2.15839,275.474,1.00224
218.9000,-1.65219,275.368,1.00104
218.8000,-2.05839,275.533,1.0029
218.7000,-2.89733,275.359,1.00093
218.6000,-2.20593,275.541,1.003
218.5000,-1.52429,275.796,1.00589
218.4000,-2.45153,275.675,1.00452
218.3000,-2.42142,275.812,1.00607
218.2000,-1.99548,275.718,1.00501
218.1000,-1.7248,276.032,1.00857
218.0000,-1.76811,276.326,1.0119
217.9000,-2.46418,275.9,1.00707
217.8000,-2.36931,276.132,1.0097
217.7000,-1.88691,276.438,1.01316
217.6000,-1.9615,276.282,1.0114
217.5000,-1.68954,276.353,1.0122
217.4000,-1.63256,276.639,1.01545
217.3000,-2.39511,276.659,1.01566
217.2000,-2.90914,276.673,1.01583
217.1000,-1.16084,276.934,1.01878
217.0000,-1.98132,277.053,1.02012
216.9000,-3.09066,277.01,1.01964
216.8000,-1.22088,277.211,1.02191
216.7000,-1.37049,277.103,1.02069
216.6000,-2.58504,277.504,1.02521
216.5000,-2.66802,277.461,1.02473
216.4000,-2.45214,277.427,1.02435
216.3000,-2.62264,277.678,1.02718
216.2000,-2.47131,277.873,1.02939
216.1000,-1.71968,277.803,1.02859
216.0000,-2.45849,278.004,1.03086
215.9000,-1.27988,278.055,1.03143
215.8000,-2.21902,278.027,1.03112
215.7000,-2.61267,278.05,1.03138
215.6000,-1.63802,277.938,1.03012
215.5000,-2.79462,278.25,1.03362
215.4000,-1.80975,278.407,1.0354
215.3000,-1.83454,278.236,1.03347
215.2000,-1.77088,278.077,1.03168
215.1000,-2.52043,278.528,1.03676
215.0000,-2.94433,278.681,1.03848
214.9000,-2.33063,278.638,1.038
214.8000,-2.01237,278.738,1.03912
214.7000,-2.54307,278.827,1.04013
214.6000,-2.59293,278.955,1.04156
214.5000,-1.98632,279.06,1.04275
214.4000,-1.56177,279.155,1.04381
214.3000,-1.62986,279.118,1.04339
214.2000,-3.26764,279.245,1.04482
214.1000,-2.23274,279.368,1.0462
214.0000,-1.53739,279.429,1.04688
213.9000,-2.96316,279.37,1.04622
213.8000,-1.80607,279.442,1.04703
213.7000,-2.4155,279.618,1.049
213.6000,-2.79196,279.769,1.0507
213.5000,-2.16876,279.569,1.04845
213.4000,-1.46209,279.32,1.04566
213.3000,-1.2413,280.024,1.05355
213.2000,-1.63472,280.169,1.05518
213.1000,-2.68805,279.903,1.0522
213.0000,-2.82065,279.913,1.05232
212.9000,-1.92947,280.203,1.05556
212.8000,-1.72411,280.166,1.05514
212.7000,-1.96717,280.135,1.0548
212.6000,-2.14493,280.412,1.0579
212.5000,-1.87374,280.482,1.05868
212.4000,-1.9094,280.529,1.05921
212.3000,-1.66427,280.546,1.0594
212.2000,-2.59556,280.838,1.06266
212.1000,-2.25944,280.782,1.06204
212.0000,-3.02004,280.842,1.06271
211.9000,-2.04197,281.011,1.06459
211.8000,-2.05145,281.059,1.06513
211.7000,-1.89785,281.364,1.06853
211.6000,-3.59564,281.527,1.07035
211.5000,-1.5287,281.537,1.07047
211.4000,-1.60169,281.768,1.07304
211.3000,-2.03273,281.653,1.07176
211.2000,-2.49785,281.753,1.07288
211.1000,-1.30318,281.906,1.07458
211.0000,-2.77115,282.053,1.07622
210.9000,-2.0917,281.909,1.07461
210.8000,-1.93445,282.277,1.07871
210.7000,-2.49698,282.464,1.08079
210.6000,-2.03209,282.513,1.08134
210.5000,-1.80399,282.588,1.08217
210.4000,-2.77421,282.577,1.08205
210.3000,-3.13167,282.566,1.08193
210.2000,-2.13289,282.782,1.08433
210.1000,-1.13306,282.871,1.08531
210.0000,-1.35391,283.05,1.0873
209.9000,-2.19529,283.118,1.08805
209.8000,-2.42676,283.246,1.08948
209.7000,-1.91459,283.435,1.09157
209.6000,-2.17868,283.415,1.09135
209.5000,-2.39184,283.504,1.09234
209.4000,-3.17845,283.967,1.09747
209.3000,-3.30562,284.11,1.09906
209.2000,-1.78869,283.978,1.0976
209.1000,-2.4015,284.279,1.10093
209.0000,-1.75165,284.393,1.10218
208.9000,-1.21013,284.543,1.10384
208.8000,-2.96834,284.421,1.1025
208.7000,-3.028,284.354,1.10175
208.6000,-2.76295,284.83,1.10702
208.5000,-3.22719,284.912,1.10792
208.4000,-1.77482,284.848,1.10721
208.3000,-1.89127,284.965,1.1085
208.2000,-1.31503,285.325,1.11247
208.1000,-1.79149,285.395,1.11325
208.0000,-2.70125,285.655,1.11612
207.9000,-1.44504,285.767,1.11735
207.8000,-2.43926,285.886,1.11866
207.7000,-2.50841,285.973,1.11962
207.6000,-0.121371,286.386,1.12416
207.5000,-2.72099,286.359,1.12387
207.4000,-2.31115,286.608,1.1266
207.3000,-2.04833,286.449,1.12485
207.2000,-2.36259,286.846,1.12922
207.1000,-2.29,286.851,1.12927
207.0000,-2.07845,286.779,1.12847
206.9000,-1.41592,287.107,1.13208
206.8000,-2.71668,287.143,1.13248
206.7000,-2.33723,287.361,1.13487
206.6000,-0.934958,287.575,1.13721
206.5000,-0.961557,287.886,1.14062
206.4000,-2.32788,288.109,1.14305
206.3000,-1.48485,288.262,1.14473
206.2000,-1.9899,288.349,1.14568
206.1000,-1.46995,288.361,1.14581
206.0000,-2.34112,288.733,1.14988
205.9000,-0.380196,288.894,1.15163
205.8000,-0.55325,288.849,1.15115
205.7000,-0.283079,289.221,1.1552
205.6000,-1.21515,289.119,1.15409
205.5000,-0.962174,289.286,1.15591
205.4000,-1.868,289.284,1.15589
205.3000,-0.720304,289.802,1.16153
205.2000,-1.59856,289.842,1.16197
205.1000,-0.322819,290.222,1.1661
205.0000,-0.838191,290.44,1.16848
204.9000,-1.10873,290.751,1.17185
204.8000,-1.13773,290.457,1.16865
204.7000,-0.774634,291.083,1.17545
204.6000,0.771211,291.195,1.17667
204.5000,-0.954491,291.154,1.17622
204.4000,0.107182,291.521,1.1802
204.3000,0.0868873,291.969,1.18506
204.2000,-1.4841,291.994,1.18533
204.1000,-0.0650479,292.154,1.18706
204.0000,-0.412535,292.269,1.18829
203.9000,-0.984038,292.447,1.19022
203.8000,0.547955,292.973,1.1959
203.7000,0.457088,293.207,1.19843
203.6000,-0.175677,293.176,1.19809
203.5000,-0.0855673,293.517,1.20176
203.4000,0.509667,293.723,1.20399
203.3000,1.26172,293.883,1.20571
203.2000,0.547062,294.03,1.20729
203.1000,0.413449,294.001,1.20697
203.0000,1.09868,294.514,1.21249
202.9000,0.832379,294.478,1.2121
202.8000,1.53775,294.662,1.21407
202.7000,0.552758,294.945,1.21712
202.6000,1.76693,295.387,1.22185
202.5000,0.739319,295.722,1.22545
202.4000,1.54022,295.918,1.22754
202.3000,1.47219,295.651,1.22468
202.2000,1.35627,296.015,1.22858
202.1000,2.46963,296.64,1.23525
202.0000,0.645895,296.751,1.23644
201.9000,2.89224,297.012,1.23923
201.8000,1.44632,297.292,1.24222
201.7000,2.65441,297.604,1.24553
201.6000,1.6711,297.951,1.24923
201.5000,2.86129,298.214,1.25203
201.4000,3.78882,298.384,1.25383
201.3000,2.45997,298.635,1.25651
201.2000,1.6803,298.747,1.25769
201.1000,3.80855,299.131,1.26177
201.0000,2.68936,299.513,1.26581
200.9000,3.15148,299.505,1.26573
200.8000,1.98287,300.008,1.27106
200.7000,3.35292,300.19,1.27298
200.6000,1.6569,300.201,1.27309
200.5000,3.60893,300.347,1.27463
200.4000,3.66024,300.858,1.28003
200.3000,5.0727,301.16,1.28322
200.2000,3.60841,301.481,1.2866
200.1000,4.58485,301.603,1.28789
200.0000,2.40276,301.772,1.28966
199.9000,4.33912,302.041,1.29249
199.8000,3.81853,302.735,1.29979
199.7000,4.10183,302.835,1.30083
199.6000,5.39857,303.266,1.30536
199.5000,7.03182,303.055,1.30314
199.4000,5.2576,303.366,1.3064
199.3000,4.40219,303.397,1.30674
199.2000,5.34609,303.623,1.3091
199.1000,6.31129,303.773,1.31067
199.0000,5.55976,304.126,1.31436
198.9000,7.26743,304.642,1.31976
198.8000,5.77311,304.523,1.31851
198.7000,5.57536,304.913,1.32259
198.6000,4.1104,304.894,1.32239
198.5000,7.07154,305.299,1.32662
198.4000,5.38416,305.499,1.3287
198.3000,6.42686,305.77,1.33152
198.2000,5.52331,306.127,1.33523
198.1000,6.91931,306.368,1.33774
198.0000,5.98571,306.67,1.34088
197.9000,6.0155,306.756,1.34177
197.8000,5.52321,306.724,1.34143
197.7000,7.67526,307.431,1.34877
197.6000,7.60037,307.499,1.34948
197.5000,5.64363,307.663,1.35117
197.4000,7.02673,307.971,1.35437
197.3000,7.03673,308.404,1.35885
197.2000,8.53695,308.581,1.36068
197.1000,7.42049,308.618,1.36105
197.0000,7.42479,309.181,1.36687
196.9000,7.58618,309.551,1.37068
196.8000,7.16144,309.733,1.37256
196.7000,8.05199,309.984,1.37514
196.6000,8.91987,310.212,1.37748
196.5000,8.56667,310.669,1.38218
196.4000,8.93229,310.857,1.38411
196.3000,7.64704,311.275,1.38841
196.2000,7.18651,311.504,1.39075
196.1000,7.50827,311.648,1.39224
196.0000,7.72871,312.256,1.39845
195.9000,7.29268,312.653,1.40252
195.8000,7.52734,313.007,1.40613
195.7000,8.22282,313.349,1.40962
195.6000,7.93333,313.767,1.41388
195.5000,9.39397,313.93,1.41554
195.4000,8.48784,314.327,1.41958
195.3000,8.14028,314.637,1.42274
195.2000,7.8088,314.993,1.42636
195.1000,8.8323,315.406,1.43054
195.0000,8.01502,315.784,1.43439
194.9000,7.21826,315.809,1.43463
194.8000,8.1737,316.442,1.44104
194.7000,9.04334,316.8,1.44467
194.6000,8.33591,317.15,1.4482
194.5000,9.56884,317.377,1.45049
194.4000,8.79587,317.964,1.45641
194.3000,7.88872,318.589,1.4627
194.2000,8.82047,319.068,1.46752
194.1000,9.96824,319.472,1.47158
194.0000,8.8473,320.035,1.47723
193.9000,9.21708,320.77,1.48458
193.8000,9.69065,321.677,1.49364
193.7000,9.52963,322.462,1.50147
193.6000,9.64998,322.931,1.50615
193.5000,7.75978,323.476,1.51156
193.4000,8.52497,323.931,1.51607
193.3000,8.36156,324.356,1.52029
193.2000,8.49107,324.748,1.52417
193.1000,9.87571,325.502,1.53163
193.0000,9.99699,325.818,1.53475
192.9000,9.65775,326.766,1.5441
192.8000,7.72148,327.403,1.55037
192.7000,10.002,328.14,1.55761
192.6000,11.3791,329.323,1.56921
192.5000,9.38205,330.097,1.57677
192.4000,10.9165,331.078,1.58634
192.3000,9.34997,331.931,1.59464
192.2000,8.4785,332.554,1.6007
192.1000,9.36208,333.291,1.60784
192.0000,10.1784,333.867,1.61341
191.9000,9.94781,334.907,1.62346
191.8000,10.4161,335.696,1.63108
191.7000,8.02961,336.642,1.64017
191.6000,9.14499,337.429,1.64773
191.5000,8.47071,338.445,1.65745
191.4000,9.20708,339.711,1.66954
191.3000,9.60771,340.697,1.67894
191.2000,9.4905,341.845,1.68984
191.1000,7.0017,343.409,1.70465
191.0000,8.74401,344.935,1.71903
190.9000,9.25897,346.579,1.73448
190.8000,8.59359,348.165,1.74932
190.7000,6.57854,349.69,1.76355
190.6000,8.81083,350.9,1.77479
190.5000,8.24955,352.159,1.78646
190.4000,10.0781,353.766,1.80129
190.3000,5.23079,354.918,1.8119
190.2000,9.34158,356.28,1.82439
190.1000,6.8261,357.591,1.83639
190.0000,8.0246,358.736,1.84683

##### Extended Information
[Comments]
Sample name,class
Comment
User
Division
Company,Saint Mary's College

[Detailed Information]
Creation date,9/30/2021 2:50 PM

Data array type,Linear data array * 3
Horizontal axis,Wavelength [nm]
Vertical axis(1),CD [mdeg]
Vertical axis(2),HT [V]
Vertical axis(3),Abs
Start,290 nm
End,190 nm
Data interval,0.1 nm
Data points,1001    

[Measurement Information]
Instrument name,J-1500
Model name,J-1500
Serial No.,B051061638

Detector,PM-539
Detector S/N,B051061638
  Lock-in amp.,X mode
  HT volt,Auto

Accessory,PTC-517
Accessory S/N,B026561646
  Temperature,22.77 C
  Control sensor,Holder
  Monitor sensor,Holder

Measurement date,9/30/2021 2:49 PM

CD Overload detect,602
Photometric mode,CD, HT, Abs
Measure range,290 - 190 nm
Data pitch,0.1 nm
CD scale,20 mdeg/0.05 dOD
FL scale,20 mdeg/0.05 dOD
D.I.T.,0.125 sec
Bandwidth,1.00 nm
Start mode,Immediately
Scanning mode,Continuous
Scanning speed,50 nm/min
Baseline correction,None
Shutter control,Auto
No. of cycle,1/1
N2 Flowmeter,Manual


