TITLE,class
DATA TYPE,
ORIGIN,JASCO
OWNER,
DATE,21/09/30
TIME,15:29:58
SPECTROMETER/DATA SYSTEM,
LOCALE,1033
RESOLUTION,
DELTAX,-0.1
XUNITS,NANOMETERS
YUNITS,CD [mdeg]
Y2UNITS,HT [V]
Y3UNITS,ABSORBANCE
FIRSTX,  290.0000
LASTX,  190.0000
NPOINTS,    1001
FIRSTY,     1.68493
MAXY,     3.91382
MINY,    -0.62139
XYDATA
290.0000,1.68493,254.052,0.750724
289.9000,1.68218,254.26,0.753247
289.8000,1.79471,254.286,0.753562
289.7000,1.78973,254.115,0.751485
289.6000,1.82042,254.152,0.751937
289.5000,1.27282,254.052,0.750727
289.4000,1.85738,254.193,0.752431
289.3000,2.17518,254.225,0.752824
289.2000,1.47519,254.023,0.750367
289.1000,1.36746,253.942,0.749386
289.0000,0.785227,253.989,0.749958
288.9000,1.59579,254.126,0.751623
288.8000,1.47459,254.057,0.75078
288.7000,1.66425,254.196,0.752475
288.6000,1.45128,254.263,0.753289
288.5000,1.71376,254.082,0.751091
288.4000,1.17793,254.233,0.752925
288.3000,0.884723,253.889,0.748743
288.2000,0.925321,254.124,0.751594
288.1000,1.47288,254.208,0.752619
288.0000,1.55676,254.047,0.75066
287.9000,0.842885,254.093,0.751219
287.8000,1.32854,253.889,0.748744
287.7000,1.97014,253.899,0.748865
287.6000,1.22726,253.917,0.749085
287.5000,1.51732,253.959,0.749598
287.4000,1.74413,253.974,0.749775
287.3000,1.6487,253.98,0.749846
287.2000,0.904861,253.983,0.749879
287.1000,0.886617,253.86,0.748393
287.0000,1.02233,253.892,0.748784
286.9000,1.37005,253.881,0.748646
286.8000,1.58727,253.526,0.744333
286.7000,1.74799,253.903,0.748915
286.6000,1.93316,253.883,0.74867
286.5000,1.56578,253.918,0.749095
286.4000,1.34841,253.74,0.746934
286.3000,0.968595,253.729,0.746793
286.2000,2.25308,253.84,0.748153
286.1000,1.37191,253.884,0.748681
286.0000,1.37689,253.718,0.746669
285.9000,1.36937,253.727,0.746775
285.8000,0.747916,253.9,0.748874
285.7000,1.55841,253.758,0.747145
285.6000,0.996068,253.653,0.745876
285.5000,1.25072,253.591,0.745118
285.4000,1.17973,253.574,0.744908
285.3000,1.4137,253.765,0.747232
285.2000,0.959707,253.632,0.745615
285.1000,1.26306,253.449,0.743393
285.0000,2.00717,253.875,0.748579
284.9000,1.27961,253.64,0.745713
284.8000,1.82982,253.788,0.74752
284.7000,1.2765,253.919,0.749111
284.6000,0.716562,253.543,0.744533
284.5000,1.06437,253.859,0.748373
284.4000,0.922866,253.617,0.745441
284.3000,0.713405,253.563,0.744783
284.2000,0.787912,253.872,0.748542
284.1000,1.14621,253.328,0.741925
284.0000,1.88476,253.348,0.742161
283.9000,1.60539,253.47,0.743652
283.8000,1.19474,253.608,0.745321
283.7000,0.833374,253.448,0.74338
283.6000,1.47738,253.511,0.744147
283.5000,1.43361,253.772,0.747318
283.4000,1.34608,253.653,0.745876
283.3000,1.46779,253.502,0.744034
283.2000,0.971598,253.363,0.742344
283.1000,0.992165,253.292,0.741475
283.0000,0.734601,253.421,0.743048
282.9000,0.973133,253.178,0.740087
282.8000,1.54074,253.878,0.74861
282.7000,1.64225,253.55,0.744622
282.6000,1.15918,253.616,0.74543
282.5000,0.8918,253.351,0.7422
282.4000,1.87576,253.405,0.74286
282.3000,1.20579,253.402,0.742826
282.2000,0.635181,253.264,0.741135
282.1000,1.51816,253.234,0.74077
282.0000,0.850191,253.168,0.739977
281.9000,0.754875,253.349,0.742181
281.8000,1.61659,253.418,0.74301
281.7000,1.29765,253.363,0.742349
281.6000,1.73061,253.404,0.74285
281.5000,1.46986,253.455,0.743471
281.4000,1.44402,253.293,0.741489
281.3000,1.65072,253.282,0.741361
281.2000,1.3742,253.395,0.742732
281.1000,1.29863,253.292,0.741486
281.0000,1.22138,253.247,0.740936
280.9000,0.841512,253.287,0.741422
280.8000,1.20117,253.284,0.741381
280.7000,1.08416,253.293,0.741498
280.6000,1.17111,253.14,0.739626
280.5000,1.04453,253.069,0.738761
280.4000,1.22213,253.053,0.738571
280.3000,1.57305,253.097,0.739111
280.2000,0.814191,253.147,0.739715
280.1000,1.1919,253.197,0.740321
280.0000,1.4309,253.273,0.741247
279.9000,0.852234,252.801,0.735502
279.8000,1.34641,253.154,0.739798
279.7000,2.02189,253.111,0.739275
279.6000,1.12827,253.298,0.741552
279.5000,1.04223,252.655,0.733717
279.4000,1.57737,253.09,0.739018
279.3000,1.41069,253.063,0.738697
279.2000,1.16613,253.083,0.738931
279.1000,1.23335,253.031,0.738298
279.0000,1.21935,253.124,0.739433
278.9000,1.33569,253.24,0.740852
278.8000,1.20131,253.37,0.74243
278.7000,1.37654,252.98,0.737675
278.6000,0.771767,253.177,0.740079
278.5000,1.51409,253.204,0.74041
278.4000,2.24395,253.124,0.739439
278.3000,0.665528,253.041,0.738419
278.2000,1.16373,252.936,0.737145
278.1000,0.488528,253.236,0.740799
278.0000,1.41405,252.992,0.737824
277.9000,1.35572,253.075,0.738838
277.8000,1.45403,253.121,0.739399
277.7000,1.1862,252.99,0.7378
277.6000,0.592574,253.067,0.738737
277.5000,1.09615,253.12,0.739382
277.4000,1.37905,253.02,0.738174
277.3000,0.985357,252.966,0.737506
277.2000,0.480911,253.013,0.738084
277.1000,0.279132,252.96,0.737433
277.0000,0.913102,252.784,0.735289
276.9000,0.832362,252.606,0.733118
276.8000,1.80001,253.197,0.740319
276.7000,0.858433,252.754,0.73493
276.6000,1.09541,252.9,0.736708
276.5000,0.544173,252.866,0.736286
276.4000,1.40057,252.995,0.73786
276.3000,1.35615,252.953,0.737357
276.2000,1.11431,252.822,0.735758
276.1000,0.867285,253.058,0.738627
276.0000,0.627122,253.154,0.739802
275.9000,1.06237,252.813,0.73564
275.8000,0.625574,252.996,0.737881
275.7000,0.58986,253.153,0.739788
275.6000,0.79046,252.868,0.736313
275.5000,0.231773,252.856,0.736169
275.4000,1.7141,252.679,0.734013
275.3000,1.35196,253.008,0.738022
275.2000,0.93505,252.746,0.734833
275.1000,1.12419,252.886,0.736536
275.0000,1.02465,252.697,0.734225
274.9000,1.27493,252.923,0.736981
274.8000,1.72245,252.977,0.737643
274.7000,1.95673,253.057,0.738619
274.6000,1.15218,253.131,0.739525
274.5000,0.385525,252.812,0.735629
274.4000,1.35865,252.748,0.734848
274.3000,1.335,252.648,0.733629
274.2000,0.882303,252.694,0.734199
274.1000,1.66067,252.639,0.733527
274.0000,1.14178,252.731,0.734646
273.9000,0.505333,252.376,0.730318
273.8000,0.204222,252.512,0.731971
273.7000,0.223603,252.731,0.734643
273.6000,1.51164,252.796,0.735441
273.5000,0.768845,252.641,0.733544
273.4000,0.716581,252.567,0.732647
273.3000,0.913316,252.489,0.731692
273.2000,1.3935,252.497,0.731792
273.1000,1.15334,252.293,0.729296
273.0000,1.46267,252.26,0.728899
272.9000,0.395653,252.608,0.733141
272.8000,1.55618,252.345,0.729931
272.7000,0.872879,252.445,0.731159
272.6000,1.5512,252.81,0.73561
272.5000,0.857121,252.583,0.732839
272.4000,0.528316,252.556,0.732507
272.3000,0.390536,252.913,0.73686
272.2000,0.373011,252.719,0.734499
272.1000,0.963482,252.716,0.734462
272.0000,0.985797,252.575,0.732744
271.9000,1.15642,252.506,0.731896
271.8000,0.912628,252.597,0.733013
271.7000,1.37638,252.503,0.731862
271.6000,1.02228,252.455,0.731276
271.5000,0.864384,252.685,0.734082
271.4000,0.626725,252.748,0.734851
271.3000,1.06144,252.893,0.736623
271.2000,0.666066,252.714,0.734436
271.1000,1.2745,252.627,0.733378
271.0000,0.665972,252.383,0.730401
270.9000,0.512975,252.579,0.732794
270.8000,1.17627,253.131,0.73952
270.7000,1.26709,252.854,0.736149
270.6000,1.34702,252.738,0.734734
270.5000,0.499282,252.61,0.733167
270.4000,0.364198,252.605,0.733109
270.3000,1.62579,253.094,0.739075
270.2000,0.633331,252.514,0.732002
270.1000,1.09295,252.51,0.731947
270.0000,1.43329,252.723,0.734553
269.9000,0.907148,252.545,0.732371
269.8000,1.14391,252.729,0.734621
269.7000,1.02433,252.461,0.73135
269.6000,0.775766,252.618,0.733272
269.5000,0.832262,252.794,0.735414
269.4000,0.589931,252.649,0.733648
269.3000,1.01662,252.849,0.736088
269.2000,0.892069,252.792,0.735391
269.1000,0.510499,252.51,0.731953
269.0000,0.775485,253.144,0.73968
268.9000,0.940155,252.944,0.737238
268.8000,0.734861,252.933,0.737113
268.7000,0.445868,252.965,0.737497
268.6000,1.27541,252.847,0.736058
268.5000,1.29001,252.999,0.737918
268.4000,1.17984,252.538,0.732293
268.3000,1.2619,252.832,0.735874
268.2000,1.23864,252.789,0.735356
268.1000,0.432483,252.586,0.732877
268.0000,1.75489,253.13,0.739505
267.9000,0.7165,252.988,0.737774
267.8000,0.883055,252.73,0.734628
267.7000,0.659084,252.929,0.73706
267.6000,0.919465,252.92,0.736946
267.5000,0.864559,252.61,0.733171
267.4000,1.05031,253.023,0.738199
267.3000,1.17453,252.757,0.734961
267.2000,1.39364,252.695,0.734205
267.1000,0.976305,252.631,0.733429
267.0000,0.771437,252.983,0.737719
266.9000,1.10453,253.116,0.739341
266.8000,0.819625,252.57,0.732676
266.7000,0.903231,252.968,0.737539
266.6000,1.37995,252.902,0.736725
266.5000,1.07121,252.911,0.736839
266.4000,1.30577,252.747,0.734842
266.3000,1.29921,252.663,0.733816
266.2000,0.784566,253.343,0.742104
266.1000,2.19851,253.022,0.738187
266.0000,0.677193,253.132,0.73953
265.9000,0.959915,253.28,0.741333
265.8000,0.897933,253.11,0.739268
265.7000,1.10699,252.974,0.737613
265.6000,1.28137,252.912,0.736846
265.5000,1.04889,252.929,0.737054
265.4000,0.857805,253.376,0.742506
265.3000,0.465074,253.315,0.741762
265.2000,0.634837,252.948,0.737291
265.1000,0.348547,253.119,0.739376
265.0000,-0.295404,253.114,0.739318
264.9000,0.926169,253.191,0.740251
264.8000,0.463624,253.216,0.740556
264.7000,1.02945,253.1,0.739147
264.6000,0.85872,253.278,0.741312
264.5000,1.26555,253.351,0.742201
264.4000,1.3125,253.287,0.741416
264.3000,1.54399,253.346,0.742139
264.2000,0.828283,253.379,0.742536
264.1000,0.40624,253.256,0.741041
264.0000,0.387784,253.451,0.743413
263.9000,0.155586,253.42,0.743041
263.8000,0.895415,253.443,0.74332
263.7000,0.205364,253.433,0.743198
263.6000,1.28771,253.424,0.743091
263.5000,0.0836059,253.324,0.741867
263.4000,0.494217,253.481,0.743782
263.3000,1.41223,253.515,0.7442
263.2000,1.10168,253.316,0.74177
263.1000,-0.0136888,253.4,0.742801
263.0000,0.446428,253.322,0.741845
262.9000,0.438522,253.502,0.744041
262.8000,1.3335,253.464,0.74358
262.7000,1.058,253.445,0.743345
262.6000,0.57389,253.438,0.743264
262.5000,0.927357,253.522,0.744277
262.4000,0.423429,253.394,0.742725
262.3000,0.874277,253.752,0.747081
262.2000,0.572607,253.618,0.745445
262.1000,0.708239,253.626,0.745544
262.0000,1.40067,253.808,0.747762
261.9000,1.45467,253.824,0.747957
261.8000,0.937962,253.742,0.746957
261.7000,0.717122,253.715,0.746632
261.6000,-0.0127916,253.949,0.74947
261.5000,0.0830443,253.949,0.749474
261.4000,0.441103,253.687,0.74629
261.3000,1.36271,253.778,0.747388
261.2000,0.857971,254.021,0.750341
261.1000,0.767084,253.761,0.747191
261.0000,0.0808911,253.718,0.746665
260.9000,0.255914,253.812,0.747806
260.8000,0.73946,253.82,0.747905
260.7000,1.02446,253.936,0.749311
260.6000,0.244086,253.674,0.746132
260.5000,0.425766,253.912,0.749021
260.4000,0.68972,253.922,0.749141
260.3000,0.94397,254.066,0.750891
260.2000,0.70409,254.122,0.751575
260.1000,0.454758,253.903,0.748909
260.0000,0.320744,254.161,0.752044
259.9000,0.542486,254.121,0.751562
259.8000,0.590008,254.001,0.750103
259.7000,1.12326,254.285,0.753548
259.6000,0.592778,254.224,0.752809
259.5000,1.2138,254.328,0.75407
259.4000,0.707027,254.209,0.752633
259.3000,0.395433,254.278,0.753463
259.2000,0.926358,254.297,0.753692
259.1000,0.488883,254.58,0.757132
259.0000,0.98441,254.389,0.754813
258.9000,1.48162,254.459,0.755661
258.8000,1.37886,254.311,0.753869
258.7000,1.33807,254.535,0.756589
258.6000,0.878928,254.317,0.753935
258.5000,1.05984,254.589,0.757236
258.4000,0.725046,254.523,0.756443
258.3000,0.834566,254.634,0.757788
258.2000,-0.106109,254.291,0.753619
258.1000,1.28597,254.577,0.757098
258.0000,1.65729,254.894,0.760936
257.9000,0.763477,254.586,0.757205
257.8000,0.00242589,254.803,0.759835
257.7000,1.02141,254.83,0.760159
257.6000,0.505292,254.686,0.758414
257.5000,1.11006,254.608,0.757475
257.4000,0.767408,254.987,0.762065
257.3000,1.16806,254.699,0.758567
257.2000,0.241224,254.757,0.759273
257.1000,0.514763,254.793,0.759711
257.0000,0.808436,254.797,0.759763
256.9000,0.817571,255.156,0.764102
256.8000,1.44589,254.943,0.761523
256.7000,0.798074,254.944,0.761536
256.6000,0.816302,254.955,0.761674
256.5000,0.369211,255.022,0.762487
256.4000,1.33039,255.238,0.765104
256.3000,0.248748,255.103,0.763466
256.2000,0.907745,255.033,0.762618
256.1000,1.00672,255.026,0.76253
256.0000,0.932184,254.987,0.762064
255.9000,0.541748,255.268,0.765457
255.8000,0.646784,255.44,0.767543
255.7000,0.32616,254.974,0.761906
255.6000,1.57344,255.471,0.767917
255.5000,1.46323,255.356,0.76653
255.4000,0.484333,254.976,0.761931
255.3000,0.507021,255.131,0.7638
255.2000,0.546516,255.175,0.764343
255.1000,0.458399,255.343,0.766366
255.0000,0.943596,255.462,0.76781
254.9000,0.572215,255.641,0.769972
254.8000,1.62214,255.658,0.770174
254.7000,0.865219,255.351,0.766466
254.6000,0.982283,255.414,0.767228
254.5000,1.41697,255.71,0.770809
254.4000,0.351087,255.339,0.766325
254.3000,0.499119,255.833,0.772294
254.2000,0.197101,255.687,0.77053
254.1000,0.802274,255.416,0.767256
254.0000,0.798532,255.633,0.769879
253.9000,1.2309,255.177,0.764367
253.8000,1.058,255.347,0.766422
253.7000,0.0441774,255.455,0.767728
253.6000,1.50818,255.493,0.76818
253.5000,1.45182,256.069,0.77514
253.4000,0.907026,255.929,0.773447
253.3000,0.432716,255.913,0.773262
253.2000,0.323743,255.481,0.768034
253.1000,0.580473,255.392,0.76696
253.0000,0.77411,255.633,0.769872
252.9000,0.864651,255.75,0.77129
252.8000,0.120212,255.865,0.772677
252.7000,-0.111982,255.649,0.770069
252.6000,1.12265,255.772,0.771553
252.5000,1.26926,255.828,0.772227
252.4000,0.863083,255.874,0.772786
252.3000,1.22808,256.066,0.775099
252.2000,0.653232,256.063,0.775065
252.1000,0.910714,255.99,0.774182
252.0000,0.73421,256,0.774301
251.9000,0.528903,256.096,0.775463
251.8000,0.746301,255.859,0.772608
251.7000,0.686601,255.849,0.772489
251.6000,1.20432,256.004,0.774352
251.5000,0.82336,256.034,0.774713
251.4000,0.931829,256.015,0.774482
251.3000,0.494434,255.853,0.772536
251.2000,1.18822,256.119,0.775747
251.1000,0.288948,256.029,0.774651
251.0000,0.863594,255.993,0.774222
250.9000,1.53788,256.283,0.777715
250.8000,0.46945,256.057,0.774994
250.7000,0.493537,255.915,0.773284
250.6000,0.298301,256.212,0.776861
250.5000,0.472243,256.213,0.77688
250.4000,1.44301,256.125,0.775818
250.3000,0.544728,256.4,0.779129
250.2000,0.296583,256.084,0.775324
250.1000,0.454507,256.119,0.775737
250.0000,0.87306,256.262,0.777469
249.9000,0.47849,256.457,0.779817
249.8000,0.445986,256.185,0.776539
249.7000,0.927987,256.296,0.777871
249.6000,1.1202,256.037,0.774748
249.5000,0.112092,256.25,0.777327
249.4000,0.348756,256.093,0.775434
249.3000,0.304961,256.018,0.774525
249.2000,1.46539,256.176,0.776434
249.1000,1.32565,255.833,0.772295
249.0000,1.16263,256.087,0.775359
248.9000,0.408379,256.332,0.778306
248.8000,0.696907,256.301,0.777934
248.7000,0.08358,256.036,0.774746
248.6000,0.588537,256.05,0.774912
248.5000,0.759281,256.22,0.776958
248.4000,0.480736,256.17,0.776359
248.3000,0.474205,256.079,0.775261
248.2000,0.948405,256.079,0.775266
248.1000,1.2251,256.11,0.775636
248.0000,1.48857,256.068,0.775128
247.9000,0.338207,255.903,0.77314
247.8000,1.2492,255.858,0.772592
247.7000,0.207267,256.307,0.778008
247.6000,1.33851,256.063,0.775062
247.5000,2.01006,256.247,0.777292
247.4000,0.186336,256.28,0.777683
247.3000,-0.0245294,256.266,0.777513
247.2000,0.390249,256.531,0.780713
247.1000,0.337078,256.367,0.778729
247.0000,1.05878,256.417,0.779331
246.9000,0.369169,256.411,0.779268
246.8000,1.97234,256.559,0.781051
246.7000,0.598112,256.501,0.780344
246.6000,1.09246,256.577,0.781261
246.5000,0.845124,256.356,0.778596
246.4000,0.619296,256.641,0.782033
246.3000,0.383604,256.316,0.778114
246.2000,1.24635,256.596,0.781496
246.1000,0.76147,256.392,0.779029
246.0000,1.19995,256.455,0.779799
245.9000,0.454647,256.55,0.780941
245.8000,0.993116,256.581,0.781312
245.7000,0.248466,256.817,0.784158
245.6000,1.02386,256.657,0.782223
245.5000,0.322317,256.545,0.780877
245.4000,0.835067,256.775,0.78365
245.3000,0.901267,256.755,0.783403
245.2000,1.34426,256.557,0.781018
245.1000,1.2999,256.668,0.782355
245.0000,0.974918,256.598,0.781517
244.9000,0.479978,256.775,0.783651
244.8000,1.18003,256.825,0.784245
244.7000,1.2259,256.735,0.783162
244.6000,0.873873,256.806,0.784022
244.5000,0.882271,256.536,0.780764
244.4000,1.32578,256.568,0.781159
244.3000,1.31062,256.738,0.783197
244.2000,1.01982,256.685,0.78257
244.1000,1.11743,256.705,0.782802
244.0000,0.80142,257.076,0.787275
243.9000,0.195829,257.03,0.786719
243.8000,1.34987,256.859,0.784653
243.7000,1.34725,256.918,0.785366
243.6000,0.441103,256.818,0.784169
243.5000,1.31631,256.995,0.786292
243.4000,0.817175,256.892,0.785056
243.3000,0.238921,256.655,0.782206
243.2000,0.55442,256.623,0.781813
243.1000,1.38169,256.895,0.785092
243.0000,1.05574,257.125,0.787859
242.9000,1.99921,256.78,0.783705
242.8000,0.256554,256.954,0.785803
242.7000,0.696597,256.846,0.7845
242.6000,0.295768,257.101,0.78757
242.5000,0.910038,257.059,0.787062
242.4000,0.82802,257.194,0.788685
242.3000,1.12685,257.018,0.786577
242.2000,1.3079,257.194,0.788692
242.1000,0.435437,257.123,0.78784
242.0000,0.566237,257.272,0.789627
241.9000,1.73855,257.321,0.790213
241.8000,0.433152,257.207,0.788842
241.7000,1.59984,257.448,0.791736
241.6000,0.313299,257.342,0.790471
241.5000,1.02679,257.542,0.792875
241.4000,1.21518,257.336,0.790401
241.3000,0.609402,257.196,0.788712
241.2000,1.0783,257.413,0.791318
241.1000,0.99037,257.736,0.795196
241.0000,1.08973,257.493,0.792279
240.9000,1.07261,257.595,0.793506
240.8000,0.644246,257.767,0.795567
240.7000,1.00237,257.561,0.793095
240.6000,0.995757,257.465,0.791943
240.5000,1.47529,257.592,0.793467
240.4000,0.691831,257.645,0.794111
240.3000,0.532819,257.682,0.794549
240.2000,0.99893,257.687,0.794615
240.1000,0.848039,257.805,0.796021
240.0000,0.203987,257.868,0.796779
239.9000,1.02943,257.908,0.797265
239.8000,0.635142,257.919,0.797395
239.7000,1.02225,257.946,0.797719
239.6000,0.694616,257.962,0.797913
239.5000,0.980006,258.153,0.800205
239.4000,0.769665,258.184,0.800567
239.3000,1.47334,258.046,0.79892
239.2000,0.503611,258.49,0.804232
239.1000,0.447909,258.435,0.803582
239.0000,0.757255,258.196,0.800712
238.9000,0.331779,258.257,0.801451
238.8000,0.620612,258.337,0.802399
238.7000,0.305267,258.38,0.802916
238.6000,0.364961,258.452,0.803779
238.5000,0.930261,258.629,0.805896
238.4000,0.290298,258.681,0.806518
238.3000,1.13161,258.487,0.804204
238.2000,0.541819,258.67,0.806385
238.1000,1.03163,259.019,0.810561
238.0000,1.27705,258.858,0.808638
237.9000,0.482387,258.724,0.807035
237.8000,1.40133,258.897,0.809102
237.7000,1.21134,259.021,0.810586
237.6000,1.32713,258.922,0.8094
237.5000,1.34443,259.083,0.811334
237.4000,1.26649,259.301,0.813933
237.3000,1.09504,259.158,0.812221
237.2000,2.26161,259.084,0.811345
237.1000,1.46248,259.424,0.815397
237.0000,0.0415864,259.466,0.815905
236.9000,1.11412,259.4,0.815115
236.8000,1.09784,259.331,0.814286
236.7000,0.849585,259.466,0.8159
236.6000,0.772037,259.521,0.816565
236.5000,1.34918,259.473,0.815986
236.4000,1.35937,259.365,0.814696
236.3000,1.13557,259.769,0.81952
236.2000,0.820899,259.738,0.819148
236.1000,0.412493,259.896,0.821031
236.0000,1.39748,259.622,0.817766
235.9000,0.45277,259.781,0.81966
235.8000,1.13304,259.957,0.821763
235.7000,0.815605,260.081,0.823235
235.6000,0.231007,260.012,0.82241
235.5000,1.36669,260.095,0.823401
235.4000,1.74952,260.101,0.823469
235.3000,1.40979,260.25,0.825251
235.2000,0.814497,260.22,0.824886
235.1000,0.903648,260.41,0.82715
235.0000,0.909131,260.531,0.828593
234.9000,1.13295,260.543,0.828739
234.8000,1.52829,260.616,0.8296
234.7000,2.18971,260.651,0.830017
234.6000,0.551233,260.567,0.829025
234.5000,0.949977,260.69,0.830485
234.4000,1.84217,260.655,0.830067
234.3000,1.32716,260.992,0.83407
234.2000,0.667729,261.035,0.834585
234.1000,1.23351,260.848,0.832354
234.0000,1.43477,261.072,0.835022
233.9000,0.40932,261.348,0.838298
233.8000,0.42804,261.033,0.834556
233.7000,0.495071,261.264,0.837302
233.6000,1.01199,261.323,0.838
233.5000,1.03172,261.227,0.836862
233.4000,1.44233,261.405,0.838971
233.3000,1.16192,261.405,0.838973
233.2000,0.0515578,261.519,0.840328
233.1000,0.52628,261.572,0.840953
233.0000,1.58718,261.858,0.844342
232.9000,1.02172,261.913,0.844991
232.8000,0.274269,261.973,0.8457
232.7000,0.764126,261.803,0.843684
232.6000,1.37387,262.038,0.846476
232.5000,1.37257,261.915,0.84502
232.4000,1.27388,262.197,0.848358
232.3000,1.44861,262.302,0.8496
232.2000,1.87185,261.951,0.845443
232.1000,1.33399,262.306,0.849648
232.0000,0.830451,262.232,0.848766
231.9000,1.06532,262.428,0.851088
231.8000,1.21567,262.478,0.85168
231.7000,1.41532,262.708,0.854397
231.6000,1.1598,262.7,0.854304
231.5000,1.34926,262.847,0.856033
231.4000,1.07148,262.808,0.855573
231.3000,1.56313,262.796,0.85543
231.2000,1.33847,262.96,0.857366
231.1000,0.470809,263.166,0.859805
231.0000,1.0787,263.077,0.858748
230.9000,1.76466,263.041,0.858326
230.8000,1.64046,262.934,0.857068
230.7000,0.543589,263.108,0.859121
230.6000,1.34656,263.064,0.858599
230.5000,1.52224,263.007,0.857931
230.4000,0.402012,263.1,0.859027
230.3000,2.11153,263.048,0.858413
230.2000,2.15943,262.896,0.85661
230.1000,1.18122,263.041,0.858327
230.0000,0.986913,263.07,0.85867
229.9000,1.57301,263.039,0.858309
229.8000,1.7368,262.884,0.856479
229.7000,0.489783,262.957,0.857336
229.6000,0.974621,262.851,0.856088
229.5000,1.14597,263.063,0.858589
229.4000,0.69694,262.972,0.857517
229.3000,0.75862,263.218,0.86041
229.2000,1.03541,263.528,0.864068
229.1000,1.72512,263.664,0.865671
229.0000,1.27607,263.663,0.865664
228.9000,1.62352,263.738,0.866548
228.8000,1.44285,263.77,0.866924
228.7000,1.37476,263.941,0.868937
228.6000,1.43822,264.268,0.872775
228.5000,1.01219,264.406,0.874394
228.4000,1.81353,264.345,0.873686
228.3000,1.22622,264.56,0.876212
228.2000,1.09483,264.752,0.878466
228.1000,2.08413,264.795,0.878972
228.0000,1.28096,264.998,0.881351
227.9000,0.906449,265.006,0.881447
227.8000,0.781812,265.229,0.88406
227.7000,1.56866,265.216,0.883902
227.6000,1.57964,265.318,0.885096
227.5000,1.20797,265.515,0.887407
227.4000,1.32432,265.675,0.889283
227.3000,1.31778,265.613,0.888559
227.2000,1.87262,265.633,0.888792
227.1000,1.81386,265.71,0.889683
227.0000,1.65932,265.621,0.88865
226.9000,0.93584,265.724,0.889856
226.8000,1.61824,265.931,0.89227
226.7000,1.22484,265.927,0.892222
226.6000,2.54356,265.752,0.890178
226.5000,1.14176,266.079,0.894009
226.4000,1.14294,266.087,0.894095
226.3000,1.64302,266.089,0.894117
226.2000,0.715153,266.162,0.894973
226.1000,1.09856,266.328,0.896918
226.0000,0.727939,266.225,0.895715
225.9000,1.44989,266.428,0.898084
225.8000,0.592738,266.515,0.899096
225.7000,1.71208,266.454,0.898385
225.6000,1.06935,266.854,0.903055
225.5000,1.41158,266.872,0.903256
225.4000,2.00062,266.744,0.901774
225.3000,1.67758,266.787,0.902266
225.2000,1.5833,266.876,0.903314
225.1000,1.41388,267.17,0.90673
225.0000,2.24878,267.302,0.908277
224.9000,1.69745,267.245,0.907606
224.8000,0.861182,267.423,0.909682
224.7000,0.91935,267.506,0.910647
224.6000,1.47441,267.353,0.908864
224.5000,1.81941,267.552,0.911176
224.4000,1.84165,267.479,0.910327
224.3000,1.31326,267.601,0.911756
224.2000,0.867429,267.791,0.913962
224.1000,0.478234,267.869,0.914862
224.0000,2.03415,267.857,0.914734
223.9000,2.35251,268.111,0.917681
223.8000,1.64021,268.132,0.917925
223.7000,1.01588,267.816,0.914246
223.6000,2.14734,268.091,0.917447
223.5000,1.33055,268.265,0.919471
223.4000,1.07051,268.068,0.917179
223.3000,1.2487,268.344,0.920386
223.2000,1.33572,268.548,0.922755
223.1000,1.36491,268.483,0.921994
223.0000,1.39136,268.477,0.921928
222.9000,1.77566,268.784,0.925482
222.8000,0.647472,268.708,0.924608
222.7000,1.38394,268.673,0.924198
222.6000,2.12911,268.841,0.926145
222.5000,1.41006,269.009,0.928092
222.4000,1.23743,269.033,0.928374
222.3000,0.924349,269.051,0.928579
222.2000,1.96279,269.098,0.92913
222.1000,0.351416,269.221,0.930551
222.0000,1.10619,269.356,0.932115
221.9000,2.02067,269.363,0.932192
221.8000,0.824078,269.492,0.933684
221.7000,2.16798,269.527,0.934087
221.6000,1.5871,269.247,0.930852
221.5000,0.50481,269.361,0.932168
221.4000,1.60335,269.486,0.933613
221.3000,1.28893,269.919,0.938619
221.2000,1.90714,269.826,0.937546
221.1000,2.19918,269.744,0.9366
221.0000,1.82164,269.727,0.936401
220.9000,2.35124,270.025,0.939844
220.8000,1.45654,269.991,0.939447
220.7000,1.17197,270.044,0.940065
220.6000,1.02386,270.1,0.940709
220.5000,1.42367,270.259,0.942548
220.4000,1.90854,270.464,0.944912
220.3000,1.25988,270.377,0.943906
220.2000,0.790027,270.399,0.944157
220.1000,2.11213,270.378,0.943912
220.0000,1.9797,270.487,0.945178
219.9000,1.6522,270.544,0.945826
219.8000,1.71798,270.507,0.945403
219.7000,1.06675,270.67,0.947286
219.6000,1.22498,270.413,0.944317
219.5000,1.57453,270.65,0.947058
219.4000,1.87734,270.973,0.950774
219.3000,1.45588,270.985,0.95091
219.2000,1.39516,271.04,0.951541
219.1000,2.16988,270.794,0.948709
219.0000,1.1756,270.785,0.948611
218.9000,0.42388,271.066,0.951841
218.8000,1.65873,271.021,0.95132
218.7000,1.13804,271.04,0.95154
218.6000,1.54953,271.223,0.953655
218.5000,1.81369,271.2,0.953383
218.4000,1.33531,271.205,0.953445
218.3000,1.37846,271.163,0.952958
218.2000,1.35772,271.281,0.954316
218.1000,2.07581,271.449,0.956249
218.0000,1.72942,271.605,0.958045
217.9000,1.69461,271.469,0.956475
217.8000,1.75703,271.534,0.957229
217.7000,1.28626,271.718,0.959343
217.6000,2.02897,272.029,0.962914
217.5000,2.97663,272.09,0.963615
217.4000,1.24229,272.119,0.963939
217.3000,0.908459,271.829,0.960617
217.2000,2.43468,272.184,0.964692
217.1000,1.42727,272.449,0.967732
217.0000,1.99309,272.41,0.967284
216.9000,1.394,272.65,0.97003
216.8000,2.25354,272.813,0.971896
216.7000,2.51683,272.7,0.970605
216.6000,1.3526,272.622,0.969714
216.5000,2.03552,272.489,0.96818
216.4000,1.37211,272.742,0.971082
216.3000,0.7769,272.632,0.969821
216.2000,1.29577,272.753,0.97121
216.1000,2.12826,272.748,0.971155
216.0000,2.11596,272.927,0.9732
215.9000,1.84788,272.969,0.973677
215.8000,2.07711,273.006,0.974104
215.7000,1.35609,273.015,0.97421
215.6000,1.58155,272.858,0.972409
215.5000,1.16143,273.197,0.976287
215.4000,2.10691,273.399,0.978604
215.3000,1.21853,273.146,0.97571
215.2000,1.18971,273.187,0.976178
215.1000,0.981059,273.598,0.980875
215.0000,1.17721,273.438,0.979044
214.9000,2.70783,273.455,0.979241
214.8000,1.51259,273.625,0.981183
214.7000,1.52037,273.472,0.979434
214.6000,1.47701,273.508,0.979849
214.5000,2.84433,273.715,0.982213
214.4000,2.42635,273.843,0.983671
214.3000,2.33175,274.03,0.9858
214.2000,1.82062,273.854,0.983795
214.1000,1.30874,273.584,0.980716
214.0000,1.91731,273.794,0.983109
213.9000,1.73132,273.834,0.98357
213.8000,1.53076,273.87,0.983981
213.7000,2.32095,274.076,0.986322
213.6000,2.2873,274.111,0.98673
213.5000,1.26956,274.178,0.98749
213.4000,1.30161,274.212,0.987876
213.3000,2.20162,274.128,0.986918
213.2000,1.64581,274.063,0.986178
213.1000,1.12132,274.072,0.986282
213.0000,1.28851,274.469,0.99081
212.9000,1.43878,274.244,0.98824
212.8000,2.04068,274.459,0.990687
212.7000,2.22485,274.518,0.991364
212.6000,2.29935,274.469,0.990807
212.5000,2.03732,274.563,0.991877
212.4000,2.04124,274.621,0.992539
212.3000,2.09956,274.935,0.996109
212.2000,2.35635,274.926,0.996004
212.1000,2.72214,275.07,0.997647
212.0000,1.2396,275.122,0.998233
211.9000,2.4154,274.997,0.996816
211.8000,1.6311,275.433,1.00177
211.7000,1.70559,275.334,1.00065
211.6000,2.0283,275.439,1.00184
211.5000,2.45136,275.501,1.00255
211.4000,1.46708,275.598,1.00365
211.3000,3.2629,275.427,1.0017
211.2000,2.37591,275.788,1.0058
211.1000,2.92362,275.817,1.00613
211.0000,1.02257,275.713,1.00495
210.9000,2.64183,275.955,1.0077
210.8000,2.53238,275.923,1.00733
210.7000,1.06626,275.777,1.00568
210.6000,1.85299,276.008,1.00829
210.5000,1.35067,276.091,1.00923
210.4000,1.84896,276.217,1.01067
210.3000,1.65357,276.322,1.01186
210.2000,2.94757,276.239,1.01091
210.1000,2.12275,276.312,1.01174
210.0000,1.88012,276.449,1.0133
209.9000,1.73521,276.85,1.01783
209.8000,1.72274,276.786,1.01711
209.7000,1.43051,276.654,1.01561
209.6000,1.45336,276.981,1.01931
209.5000,3.10062,276.944,1.01889
209.4000,0.948977,277.093,1.02057
209.3000,1.61574,277.21,1.0219
209.2000,2.20559,277.287,1.02277
209.1000,1.93529,277.351,1.02349
209.0000,2.06865,277.266,1.02253
208.9000,1.63018,277.315,1.02309
208.8000,2.12904,277.22,1.02201
208.7000,0.709718,277.761,1.02812
208.6000,2.0823,277.819,1.02877
208.5000,2.03517,277.759,1.02809
208.4000,2.39333,277.785,1.02839
208.3000,2.54355,277.945,1.03019
208.2000,1.86239,278.01,1.03092
208.1000,0.949653,278.02,1.03104
208.0000,2.08674,278.232,1.03343
207.9000,2.09727,278.452,1.0359
207.8000,2.62544,278.622,1.03782
207.7000,1.02021,278.542,1.03692
207.6000,1.80624,278.817,1.04
207.5000,1.5221,278.813,1.03997
207.4000,2.49284,278.965,1.04168
207.3000,1.25884,278.987,1.04192
207.2000,1.20578,279.128,1.0435
207.1000,0.889883,279.287,1.04529
207.0000,1.47391,278.937,1.04136
206.9000,2.80444,279.258,1.04496
206.8000,1.98226,279.521,1.04792
206.7000,2.2186,279.623,1.04906
206.6000,3.45939,279.636,1.04921
206.5000,2.80645,279.826,1.05133
206.4000,1.63714,279.677,1.04967
206.3000,2.23514,280.077,1.05415
206.2000,2.68613,279.977,1.05303
206.1000,1.81458,280.262,1.05622
206.0000,1.33738,280.442,1.05824
205.9000,2.62368,280.364,1.05736
205.8000,2.95955,280.591,1.05991
205.7000,2.07824,280.587,1.05985
205.6000,2.31638,280.578,1.05976
205.5000,1.77478,280.958,1.064
205.4000,1.724,280.955,1.06397
205.3000,3.20018,281.028,1.06479
205.2000,2.5662,281.181,1.06649
205.1000,2.51014,281.192,1.06662
205.0000,1.90331,281.583,1.07097
204.9000,1.58668,281.624,1.07144
204.8000,1.01956,281.758,1.07292
204.7000,1.41274,281.907,1.07459
204.6000,0.538396,282.148,1.07727
204.5000,1.96394,281.942,1.07498
204.4000,2.17381,282.414,1.08023
204.3000,1.59248,282.374,1.07979
204.2000,1.86745,282.509,1.08129
204.1000,2.19452,282.649,1.08285
204.0000,1.695,282.807,1.0846
203.9000,2.52418,283.154,1.08845
203.8000,1.92563,283.413,1.09133
203.7000,1.59729,283.401,1.0912
203.6000,2.18482,283.421,1.09141
203.5000,1.22817,283.687,1.09437
203.4000,2.16968,283.665,1.09412
203.3000,2.07575,283.699,1.09451
203.2000,2.01128,283.923,1.09698
203.1000,1.04301,283.866,1.09635
203.0000,1.793,284.202,1.10007
202.9000,2.86642,284.367,1.1019
202.8000,1.14648,284.554,1.10396
202.7000,1.52795,284.626,1.10476
202.6000,1.76054,284.861,1.10736
202.5000,2.21295,284.941,1.10824
202.4000,1.27151,284.955,1.10839
202.3000,2.47164,285.105,1.11005
202.2000,2.65523,285.56,1.11507
202.1000,1.86071,285.708,1.1167
202.0000,2.70209,286.002,1.11994
201.9000,2.85179,285.897,1.11878
201.8000,2.69893,286.044,1.12039
201.7000,2.62844,286.211,1.12224
201.6000,2.1474,286.518,1.12562
201.5000,1.86299,286.508,1.12551
201.4000,1.2732,286.847,1.12922
201.3000,1.58755,287.001,1.13091
201.2000,2.81171,287.257,1.13372
201.1000,2.10709,287.365,1.13491
201.0000,1.56175,287.486,1.13624
200.9000,1.16064,287.689,1.13846
200.8000,1.85492,287.534,1.13676
200.7000,2.91648,287.774,1.13939
200.6000,1.21104,287.832,1.14002
200.5000,2.04088,288.177,1.1438
200.4000,2.74165,288.52,1.14755
200.3000,2.87728,288.593,1.14835
200.2000,1.66568,288.787,1.15047
200.1000,1.97343,289.066,1.15351
200.0000,2.96325,289.148,1.1544
199.9000,2.25712,289.466,1.15788
199.8000,1.90426,289.602,1.15935
199.7000,2.33627,289.704,1.16047
199.6000,2.80513,289.948,1.16313
199.5000,2.66618,289.972,1.16339
199.4000,2.07763,290.071,1.16446
199.3000,0.999364,289.961,1.16326
199.2000,2.9298,290.187,1.16572
199.1000,2.01127,290.369,1.1677
199.0000,1.56493,290.377,1.16779
198.9000,1.66084,290.776,1.17213
198.8000,1.70627,290.765,1.17201
198.7000,3.1408,291.216,1.17689
198.6000,2.69883,291.2,1.17673
198.5000,1.22185,291.158,1.17627
198.4000,1.69711,291.536,1.18037
198.3000,1.62609,291.752,1.1827
198.2000,1.96747,291.848,1.18375
198.1000,1.80799,291.927,1.1846
198.0000,2.71483,292.013,1.18553
197.9000,1.50972,292.38,1.18949
197.8000,2.84925,292.558,1.19142
197.7000,0.740115,292.459,1.19035
197.6000,2.67394,292.721,1.19318
197.5000,2.74054,292.529,1.19111
197.4000,1.33528,292.878,1.19488
197.3000,1.25077,293.493,1.2015
197.2000,2.10826,293.293,1.19936
197.1000,2.26958,293.565,1.20228
197.0000,2.22193,293.79,1.20471
196.9000,2.20608,293.904,1.20594
196.8000,1.88634,294.24,1.20954
196.7000,2.19583,294.188,1.20898
196.6000,0.178173,294.592,1.21333
196.5000,2.59477,294.969,1.21737
196.4000,2.37978,295.078,1.21854
196.3000,3.91382,295.165,1.21947
196.2000,1.98104,295.512,1.2232
196.1000,2.54483,295.846,1.22678
196.0000,2.38551,296.313,1.23177
195.9000,1.80001,296.531,1.23409
195.8000,0.747109,296.877,1.23779
195.7000,1.6576,296.915,1.23819
195.6000,1.98433,297.24,1.24166
195.5000,2.91525,297.544,1.24489
195.4000,1.5681,297.738,1.24696
195.3000,1.3039,297.999,1.24974
195.2000,1.60478,298.304,1.25298
195.1000,1.62571,298.456,1.2546
195.0000,2.3921,298.908,1.2594
194.9000,1.73745,299.102,1.26145
194.8000,1.18343,299.292,1.26347
194.7000,1.96911,299.564,1.26636
194.6000,1.85456,299.713,1.26793
194.5000,2.06265,300.226,1.27336
194.4000,0.994088,300.666,1.278
194.3000,1.25966,300.984,1.28136
194.2000,0.65425,301.642,1.2883
194.1000,1.58088,301.743,1.28936
194.0000,2.43204,302.338,1.29562
193.9000,0.960723,303.18,1.30446
193.8000,1.15148,303.674,1.30963
193.7000,1.87541,304.241,1.31557
193.6000,2.34436,304.994,1.32343
193.5000,0.927408,305.454,1.32822
193.4000,3.06696,305.571,1.32945
193.3000,1.69578,306.166,1.33564
193.2000,1.32976,306.563,1.33977
193.1000,2.34077,307.182,1.34619
193.0000,2.47307,307.712,1.35168
192.9000,2.18762,308.502,1.35986
192.8000,2.09081,309.175,1.3668
192.7000,2.23751,309.758,1.37281
192.6000,0.535266,310.62,1.38169
192.5000,0.305769,311.488,1.39059
192.4000,2.2578,312.148,1.39736
192.3000,1.48499,312.771,1.40372
192.2000,1.14484,313.45,1.41065
192.1000,1.23634,314.217,1.41846
192.0000,-0.174609,314.536,1.42171
191.9000,-0.025092,315.694,1.43347
191.8000,2.14456,316.571,1.44235
191.7000,1.35648,317.14,1.4481
191.6000,1.29444,317.955,1.45632
191.5000,0.695819,319.148,1.46832
191.4000,2.01823,320.007,1.47694
191.3000,2.08374,321.072,1.4876
191.2000,1.76846,322.247,1.49933
191.1000,1.30032,323.819,1.51496
191.0000,0.368413,325.232,1.52896
190.9000,1.9191,326.618,1.54264
190.8000,0.0766579,328.369,1.55986
190.7000,1.68706,329.499,1.57093
190.6000,2.41131,330.872,1.58433
190.5000,0.604688,332.018,1.59549
190.4000,2.4285,333.557,1.61042
190.3000,-0.621387,334.508,1.61961
190.2000,1.83927,335.498,1.62916
190.1000,1.94171,336.798,1.64167
190.0000,1.05525,337.741,1.65071

##### Extended Information
[Comments]
Sample name,class
Comment
User
Division
Company,Saint Mary's College

[Detailed Information]
Creation date,9/30/2021 2:29 PM

Data array type,Linear data array * 3
Horizontal axis,Wavelength [nm]
Vertical axis(1),CD [mdeg]
Vertical axis(2),HT [V]
Vertical axis(3),Abs
Start,290 nm
End,190 nm
Data interval,0.1 nm
Data points,1001    

[Measurement Information]
Instrument name,J-1500
Model name,J-1500
Serial No.,B051061638

Detector,PM-539
Detector S/N,B051061638
  Lock-in amp.,X mode
  HT volt,Auto

Accessory,PTC-517
Accessory S/N,B026561646
  Temperature,22.68 C
  Control sensor,Holder
  Monitor sensor,Holder

Measurement date,9/30/2021 2:28 PM

CD Overload detect,833
Photometric mode,CD, HT, Abs
Measure range,290 - 190 nm
Data pitch,0.1 nm
CD scale,20 mdeg/0.05 dOD
FL scale,20 mdeg/0.05 dOD
D.I.T.,0.125 sec
Bandwidth,1.00 nm
Start mode,Immediately
Scanning mode,Continuous
Scanning speed,50 nm/min
Baseline correction,None
Shutter control,Auto
No. of cycle,1/1
N2 Flowmeter,Manual


