TITLE,KMGM_ADDATIVE&PROTEIN_928
DATA TYPE,
ORIGIN,JASCO
OWNER,
DATE,22/09/28
TIME,15:29:32
SPECTROMETER/DATA SYSTEM,
LOCALE,1033
RESOLUTION,
DELTAX,-0.1
XUNITS,NANOMETERS
YUNITS,CD [mdeg]
Y2UNITS,HT [V]
Y3UNITS,ABSORBANCE
FIRSTX,  320.0000
LASTX,  190.0000
NPOINTS,    1301
FIRSTY,     2.03095
MAXY,    53.32530
MINY,   -63.47122
XYDATA
320.0000,2.03095,208.569,0.152354
319.9000,0.598762,209.167,0.160878
319.8000,0.2836,208.307,0.148594
319.7000,2.06469,208.256,0.147865
319.6000,2.51046,208.356,0.149307
319.5000,1.82354,207.681,0.139634
319.4000,1.67085,209.25,0.162074
319.3000,2.53011,208.079,0.145334
319.2000,0.460546,208.347,0.149178
319.1000,-1.17577,208.549,0.152062
319.0000,1.80714,207.594,0.138383
318.9000,1.35987,208.363,0.149405
318.8000,0.31034,208.171,0.146648
318.7000,1.69085,208.403,0.149972
318.6000,0.947432,207.806,0.141421
318.5000,0.42179,208.006,0.144296
318.4000,2.10032,207.973,0.143825
318.3000,1.71279,208.095,0.145561
318.2000,0.0552187,207.826,0.141714
318.1000,1.38006,208.21,0.147216
318.0000,3.06296,208.307,0.148594
317.9000,1.98937,207.982,0.143955
317.8000,0.842012,208.571,0.15237
317.7000,2.66032,207.99,0.144068
317.6000,-0.910718,208.654,0.153568
317.5000,1.35203,208.242,0.14767
317.4000,2.01783,207.812,0.141519
317.3000,1.67799,208.657,0.1536
317.2000,1.48322,208.716,0.154442
317.1000,2.93392,208.508,0.151479
317.0000,0.526163,208.056,0.14501
316.9000,2.66909,208.192,0.146956
316.8000,1.44385,208.367,0.149453
316.7000,0.0179376,208.217,0.147313
316.6000,2.02049,208.364,0.149421
316.5000,1.75146,208.513,0.151544
316.4000,1.14466,208.703,0.154264
316.3000,0.610815,207.737,0.14043
316.2000,2.82734,208.307,0.148594
316.1000,0.148884,208.033,0.144685
316.0000,1.54542,207.978,0.14389
315.9000,0.691009,208.016,0.144442
315.8000,0.824998,208.099,0.145626
315.7000,0.310796,208.934,0.157565
315.6000,1.33671,208.405,0.150004
315.5000,0.473731,208.668,0.153762
315.4000,0.499747,208.276,0.148156
315.3000,1.81363,207.945,0.143419
315.2000,1.28112,208.115,0.145853
315.1000,1.47773,207.989,0.144052
315.0000,1.52956,208.516,0.151592
314.9000,1.76811,208.235,0.147573
314.8000,1.14813,208.038,0.14475
314.7000,2.29822,208.094,0.145545
314.6000,1.57214,208.158,0.14647
314.5000,1.37236,207.513,0.137228
314.4000,0.914293,207.745,0.140544
314.3000,2.49264,207.5,0.137033
314.2000,1.19079,207.852,0.142087
314.1000,2.71591,207.886,0.142574
314.0000,2.73606,207.857,0.142152
313.9000,2.35927,207.793,0.141243
313.8000,-0.336066,207.933,0.14324
313.7000,0.583134,207.85,0.142055
313.6000,1.35625,207.752,0.140658
313.5000,2.60093,207.971,0.143792
313.4000,1.17428,208.052,0.144945
313.3000,2.52,207.728,0.1403
313.2000,2.35061,208.18,0.146778
313.1000,0.797901,208.199,0.147054
313.0000,1.27381,208.002,0.144231
312.9000,1.11891,207.383,0.135357
312.8000,1.43085,208.031,0.144653
312.7000,2.28796,210.161,0.175037
312.6000,2.13882,207.726,0.140284
312.5000,0.232858,207.977,0.143873
312.4000,1.58574,207.483,0.136789
312.3000,0.735384,207.942,0.14337
312.2000,1.46887,207.419,0.135878
312.1000,1.83069,207.81,0.141486
312.0000,0.79937,207.942,0.14337
311.9000,0.967371,207.655,0.13926
311.8000,1.97146,207.91,0.142916
311.7000,-0.00625043,208.023,0.144539
311.6000,1.42284,207.644,0.139098
311.5000,1.29412,207.471,0.136626
311.4000,2.84187,207.237,0.133258
311.3000,1.28014,208.028,0.144604
311.2000,0.346145,207.814,0.141535
311.1000,2.67949,207.925,0.143127
311.0000,0.149622,208.836,0.156157
310.9000,2.05949,208.115,0.145853
310.8000,2.15328,207.794,0.141259
310.7000,2.09258,207.432,0.136057
310.6000,1.40105,208.075,0.145286
310.5000,2.27798,207.486,0.136838
310.4000,0.962506,207.86,0.142201
310.3000,1.01758,207.553,0.137797
310.2000,1.24682,207.87,0.142347
310.1000,0.21125,208.061,0.145075
310.0000,-0.935788,207.162,0.132183
309.9000,1.42655,207.117,0.131532
309.8000,0.0614273,206.974,0.129478
309.7000,1.05874,208.321,0.148805
309.6000,2.10805,207.845,0.14199
309.5000,0.306935,207.765,0.140837
309.4000,-0.0566815,207.726,0.140284
309.3000,0.861024,208.234,0.147557
309.2000,0.471768,207.796,0.141275
309.1000,0.229923,207.501,0.137049
309.0000,0.548407,207.808,0.141454
308.9000,1.96677,207.456,0.136398
308.8000,1.83782,207.585,0.138252
308.7000,1.7689,208.062,0.145091
308.6000,0.518525,207.776,0.140999
308.5000,2.26179,207.723,0.140236
308.4000,2.12594,207.539,0.137602
308.3000,1.21895,207.988,0.144036
308.2000,1.29187,207.495,0.136968
308.1000,1.1907,207.206,0.132818
308.0000,0.0731918,208.32,0.148789
307.9000,2.18154,207.803,0.141389
307.8000,2.4769,206.947,0.129088
307.7000,2.00677,207.52,0.137326
307.6000,-0.330999,207.851,0.142071
307.5000,1.4746,208.173,0.146681
307.4000,0.882288,208.013,0.144393
307.3000,0.539294,207.434,0.13609
307.2000,-0.268151,207.366,0.135113
307.1000,0.810645,207.874,0.142396
307.0000,2.43532,208.06,0.145058
306.9000,1.92144,207.278,0.133844
306.8000,0.636458,207.646,0.13913
306.7000,0.716153,207.805,0.141405
306.6000,1.31198,207.422,0.13591
306.5000,3.16903,206.954,0.129185
306.4000,-0.0265626,207.433,0.136073
306.3000,1.33483,208.314,0.148708
306.2000,0.754341,207.765,0.140837
306.1000,1.22116,207.464,0.136512
306.0000,1.25291,207.561,0.137911
305.9000,0.664543,207.06,0.130717
305.8000,1.9318,207.322,0.134479
305.7000,1.98214,207.902,0.142802
305.6000,2.09822,207.399,0.135585
305.5000,1.25328,207.585,0.138252
305.4000,1.28619,207.817,0.141584
305.3000,1.97028,207.313,0.134348
305.2000,-0.321093,207.592,0.13835
305.1000,3.15016,207.8,0.14134
305.0000,-0.499415,207.262,0.133616
304.9000,1.11807,207.346,0.13482
304.8000,0.913955,208.003,0.144247
304.7000,-0.11965,207.765,0.140837
304.6000,1.41077,207.929,0.143192
304.5000,1.00817,207.752,0.140658
304.4000,0.84985,208.054,0.144977
304.3000,1.77342,207.984,0.143971
304.2000,2.09761,207.908,0.142883
304.1000,2.08296,207.678,0.139586
304.0000,0.390583,207.694,0.139813
303.9000,1.18764,207.328,0.13456
303.8000,0.365922,207.585,0.138252
303.7000,-0.0905754,207.47,0.13661
303.6000,2.63081,207.793,0.141243
303.5000,0.483858,208.646,0.153455
303.4000,1.19365,207.59,0.138334
303.3000,1.39998,207.572,0.138074
303.2000,0.880221,207.947,0.143451
303.1000,1.18722,207.611,0.138626
303.0000,1.31724,207.192,0.132606
302.9000,1.32108,207.628,0.13887
302.8000,2.01118,207.22,0.133014
302.7000,0.963525,207.249,0.133437
302.6000,-0.272624,207.729,0.140317
302.5000,1.31924,207.355,0.134951
302.4000,0.802758,208.214,0.147265
302.3000,0.794541,206.924,0.128762
302.2000,2.61629,207.849,0.142039
302.1000,-0.0731855,207.517,0.137277
302.0000,2.03408,208.069,0.145188
301.9000,-0.3388,207.484,0.136805
301.8000,-0.450627,207.318,0.13443
301.7000,1.72458,207.277,0.133828
301.6000,0.751159,207.005,0.129919
301.5000,1.4912,207.91,0.142916
301.4000,-0.381607,207.665,0.139407
301.3000,-0.170538,207.426,0.135976
301.2000,-0.25409,207.382,0.135341
301.1000,-0.100769,207.63,0.138903
301.0000,1.38205,207.295,0.134088
300.9000,0.663713,206.057,0.11627
300.8000,1.98184,206.958,0.129251
300.7000,0.384121,206.851,0.127702
300.6000,1.11499,207.006,0.129935
300.5000,1.19794,207.684,0.139683
300.4000,1.11203,208.012,0.144377
300.3000,0.906789,207.224,0.133079
300.2000,0.274248,207.014,0.130049
300.1000,2.13055,207.052,0.130603
300.0000,0.872985,207.792,0.141227
299.9000,1.39963,207.027,0.130245
299.8000,1.75473,207.572,0.138074
299.7000,0.407673,208.18,0.146778
299.6000,2.74807,207.027,0.130245
299.5000,1.48631,207.467,0.136561
299.4000,3.25907,207.13,0.131727
299.3000,3.41335,207.05,0.13057
299.2000,1.49706,206.847,0.127653
299.1000,2.11202,206.736,0.126054
299.0000,0.724161,206.7,0.125532
298.9000,2.33734,206.857,0.1278
298.8000,1.40567,207.441,0.136187
298.7000,1.8062,207.037,0.130391
298.6000,0.864553,206.633,0.12457
298.5000,1.54888,206.854,0.127751
298.4000,0.667826,207.65,0.139195
298.3000,-0.110413,207.033,0.130326
298.2000,0.620247,206.986,0.129658
298.1000,1.53824,207.524,0.137374
298.0000,-0.941228,206.99,0.129707
297.9000,1.36828,207.107,0.131385
297.8000,0.480475,207.578,0.138155
297.7000,-0.0153987,206.941,0.129006
297.6000,-0.023168,207.149,0.131988
297.5000,2.02111,207.451,0.136334
297.4000,1.56678,207.604,0.138529
297.3000,2.89868,207.453,0.136366
297.2000,0.600587,207.022,0.130163
297.1000,2.54035,207.178,0.132411
297.0000,1.74407,207.674,0.139537
296.9000,0.749014,208.203,0.147119
296.8000,0.896806,206.583,0.123851
296.7000,3.30242,207.076,0.130945
296.6000,0.41672,207.294,0.134072
296.5000,1.39822,208.171,0.146648
296.4000,0.617117,207.335,0.134674
296.3000,0.362892,207.071,0.13088
296.2000,2.37578,206.97,0.129414
296.1000,2.37864,207.413,0.13578
296.0000,1.19471,207.86,0.142201
295.9000,2.95834,207.156,0.132102
295.8000,1.53744,206.193,0.118232
295.7000,0.488331,207.562,0.137927
295.6000,1.29334,207.281,0.133893
295.5000,1.40129,206.455,0.122007
295.4000,3.34659,208.112,0.145805
295.3000,1.27555,206.779,0.126674
295.2000,1.67918,207.299,0.134153
295.1000,-1.22326,207.305,0.134234
295.0000,0.775764,207.842,0.141941
294.9000,1.58308,207.024,0.130196
294.8000,1.03964,206.763,0.126446
294.7000,2.55053,207.094,0.131206
294.6000,0.773442,207.396,0.135536
294.5000,0.734613,207.116,0.131515
294.4000,0.38485,206.96,0.129283
294.3000,1.26528,206.959,0.129267
294.2000,0.498171,206.696,0.125483
294.1000,1.15594,207.784,0.141113
294.0000,1.61202,206.909,0.128549
293.9000,3.3011,206.773,0.126593
293.8000,2.9415,208.246,0.147735
293.7000,1.97205,207.29,0.134023
293.6000,1.20684,207.486,0.136838
293.5000,0.483501,206.942,0.129022
293.4000,0.39429,207.313,0.134348
293.3000,2.23126,207.437,0.136138
293.2000,1.95285,206.593,0.123998
293.1000,1.26918,207.452,0.13635
293.0000,-0.378286,206.202,0.118363
292.9000,1.99525,207.684,0.139683
292.8000,1.71285,207.461,0.13648
292.7000,1.20779,205.48,0.107918
292.6000,-0.713245,207.354,0.134934
292.5000,0.830726,207.262,0.133616
292.4000,1.25991,206.511,0.122807
292.3000,2.29626,206.639,0.124651
292.2000,3.35265,206.751,0.126266
292.1000,0.649498,206.565,0.12359
292.0000,1.81543,206.253,0.119098
291.9000,1.41391,205.887,0.113815
291.8000,1.30453,206.605,0.124162
291.7000,1.46325,206.715,0.125745
291.6000,2.41668,206.441,0.12181
291.5000,0.557654,206.213,0.11851
291.4000,-0.445484,206.854,0.127751
291.3000,1.49139,206.166,0.11784
291.2000,1.44375,206.239,0.118886
291.1000,1.98188,206.319,0.120046
291.0000,2.57413,206.283,0.119523
290.9000,1.63605,206.888,0.12824
290.8000,0.683128,206.846,0.127637
290.7000,1.13864,206.803,0.127017
290.6000,-0.709347,207.078,0.130978
290.5000,1.57092,206.555,0.123443
290.4000,1.13771,206.533,0.123133
290.3000,0.287666,206.941,0.129006
290.2000,0.470572,206.819,0.127245
290.1000,0.958035,206.668,0.125075
290.0000,0.50029,207.212,0.132899
289.9000,2.05316,207.575,0.138106
289.8000,0.150079,207.594,0.138383
289.7000,1.34029,207.098,0.131255
289.6000,0.331972,206.747,0.126217
289.5000,-1.23963,206.709,0.125663
289.4000,0.320696,206.709,0.125663
289.3000,1.4735,207.238,0.133274
289.2000,0.643859,207.621,0.138773
289.1000,2.01058,207.094,0.131206
289.0000,-0.135448,207.172,0.132329
288.9000,0.327498,207.51,0.137179
288.8000,1.1339,207.313,0.134348
288.7000,1.17861,207.212,0.132899
288.6000,1.0406,207.56,0.137895
288.5000,2.7626,206.77,0.126544
288.4000,0.849067,207.359,0.135015
288.3000,1.34567,206.858,0.127816
288.2000,0.995148,206.503,0.122692
288.1000,1.73972,206.807,0.127082
288.0000,-0.137511,207.365,0.135097
287.9000,1.66432,206.857,0.1278
287.8000,0.291342,207.008,0.129967
287.7000,1.09513,206.953,0.129169
287.6000,-0.382003,207.44,0.136171
287.5000,0.110665,207.019,0.13013
287.4000,-0.715532,206.826,0.127343
287.3000,2.60175,207.187,0.132541
287.2000,1.92952,207.461,0.13648
287.1000,0.951393,208.176,0.14673
287.0000,0.0950164,207.12,0.13158
286.9000,1.43922,207.051,0.130587
286.8000,0.919107,207.206,0.132818
286.7000,1.3582,207.47,0.13661
286.6000,2.19565,207.434,0.13609
286.5000,1.02623,207.823,0.141665
286.4000,1.23858,207.156,0.132102
286.3000,2.01327,207.547,0.137716
286.2000,0.168034,207.418,0.135862
286.1000,1.17016,207.156,0.132102
286.0000,1.83715,207.801,0.141356
285.9000,0.925858,207.592,0.13835
285.8000,0.204636,207.496,0.136984
285.7000,-0.326668,207.621,0.138773
285.6000,1.83739,207.524,0.137374
285.5000,2.07117,207.457,0.136415
285.4000,-1.22193,207.306,0.134251
285.3000,1.01156,207.152,0.132037
285.2000,3.49888,206.666,0.125043
285.1000,2.35327,206.615,0.124308
285.0000,0.230017,207.936,0.143289
284.9000,0.417755,208.217,0.147313
284.8000,1.47339,207.198,0.132704
284.7000,0.788064,207.443,0.13622
284.6000,0.259867,207.82,0.141633
284.5000,0.769526,206.119,0.117153
284.4000,1.61852,207.561,0.137911
284.3000,-0.217285,206.875,0.12806
284.2000,0.755559,208.345,0.149145
284.1000,0.713426,208.169,0.146632
284.0000,-0.152609,208.075,0.145286
283.9000,0.744212,208.022,0.144523
283.8000,-0.182334,207.877,0.142445
283.7000,1.49587,207.451,0.136334
283.6000,1.08567,208.154,0.146405
283.5000,-0.895575,207.767,0.140869
283.4000,1.9757,209.181,0.161088
283.3000,1.69017,207.147,0.131971
283.2000,1.48083,208.396,0.149875
283.1000,1.17306,207.235,0.133225
283.0000,1.84425,207.512,0.137212
282.9000,0.193913,207.26,0.133583
282.8000,0.835887,207.553,0.137797
282.7000,2.23902,207.63,0.138903
282.6000,1.49471,207.485,0.136822
282.5000,2.3642,207.615,0.138692
282.4000,0.877853,208.318,0.148757
282.3000,-0.79359,207.142,0.13189
282.2000,0.172179,207.636,0.138984
282.1000,-0.194201,207.98,0.143922
282.0000,0.900828,207.036,0.130375
281.9000,0.916394,207.99,0.144068
281.8000,1.35217,206.457,0.122039
281.7000,2.15593,208.798,0.155623
281.6000,1.58475,207.192,0.132606
281.5000,2.56275,207.381,0.135325
281.4000,0.708058,208.067,0.145172
281.3000,0.907708,207.135,0.131792
281.2000,2.14961,207.33,0.134592
281.1000,1.80736,207.085,0.131075
281.0000,1.57091,207.545,0.137683
280.9000,1.50798,208.064,0.145123
280.8000,1.08037,207.706,0.139992
280.7000,0.83864,207.329,0.134576
280.6000,0.722412,207.718,0.140171
280.5000,-0.158183,207.57,0.138041
280.4000,0.717417,207.309,0.1343
280.3000,1.71041,207.65,0.139195
280.2000,0.117344,207.597,0.138431
280.1000,0.411882,207.282,0.133909
280.0000,1.93637,207.743,0.140528
279.9000,1.97941,207.054,0.130636
279.8000,1.37856,207.797,0.141292
279.7000,0.581466,208.117,0.145886
279.6000,2.18747,207.624,0.138821
279.5000,-0.220965,207.745,0.140544
279.4000,-0.164063,207.32,0.134446
279.3000,1.66662,208.507,0.151463
279.2000,1.72336,207.837,0.141876
279.1000,0.342986,207.447,0.136268
279.0000,1.06082,207.4,0.135602
278.9000,0.53049,207.221,0.13303
278.8000,2.96087,207.759,0.140755
278.7000,1.21908,207.726,0.140284
278.6000,1.47467,207.457,0.136415
278.5000,1.33886,207.413,0.13578
278.4000,2.27058,207.119,0.131564
278.3000,0.29027,207.875,0.142412
278.2000,0.928036,207.5,0.137033
278.1000,1.00698,208.197,0.147021
278.0000,0.153322,208.114,0.145837
277.9000,0.295536,207.582,0.13822
277.8000,0.467778,207.238,0.133274
277.7000,1.52295,208.603,0.152839
277.6000,1.09502,207.5,0.137033
277.5000,1.73399,207.758,0.140739
277.4000,2.7193,208.492,0.151252
277.3000,0.188506,207.746,0.140561
277.2000,-0.0561919,207.435,0.136106
277.1000,0.0227974,207.975,0.143841
277.0000,-0.131274,207.375,0.135243
276.9000,1.03868,208.49,0.15122
276.8000,0.105386,208.231,0.147508
276.7000,-0.0128149,207.867,0.142299
276.6000,1.07011,208.045,0.144847
276.5000,1.06092,207.807,0.141438
276.4000,-0.409167,207.04,0.130424
276.3000,-1.44884,208.43,0.150361
276.2000,0.205581,207.846,0.142006
276.1000,0.984259,207.138,0.131841
276.0000,2.76187,207.267,0.133697
275.9000,1.32641,208.211,0.147232
275.8000,-1.49701,209.029,0.158923
275.7000,0.922584,207.627,0.138854
275.6000,0.12225,207.883,0.142526
275.5000,1.67547,207.326,0.134544
275.4000,1.60474,208.389,0.149778
275.3000,0.243654,207.351,0.134902
275.2000,1.87174,208.37,0.149502
275.1000,0.612157,207.747,0.140577
275.0000,1.06991,207.654,0.139244
274.9000,1.18095,208.575,0.152434
274.8000,0.855464,208.064,0.145123
274.7000,0.540486,208.515,0.151576
274.6000,0.752609,208.045,0.144847
274.5000,1.37683,207.443,0.13622
274.4000,1.12214,207.935,0.143273
274.3000,0.922885,207.605,0.138545
274.2000,2.09021,208.329,0.148919
274.1000,0.020904,207.837,0.141876
274.0000,-0.0598183,207.419,0.135878
273.9000,0.0462814,208.363,0.149405
273.8000,1.21789,208.143,0.146259
273.7000,2.17372,207.662,0.139358
273.6000,-0.936428,208.105,0.145707
273.5000,-1.45574,207.987,0.14402
273.4000,-0.0827129,206.831,0.127424
273.3000,0.406872,208.151,0.146372
273.2000,0.975421,207.712,0.140073
273.1000,1.85106,208.25,0.147784
273.0000,0.46292,207.525,0.137391
272.9000,0.737772,207.928,0.143175
272.8000,0.770125,208.33,0.148935
272.7000,1.12062,208.53,0.151787
272.6000,1.8839,208.122,0.145951
272.5000,0.609429,207.371,0.135178
272.4000,-0.599915,207.937,0.143305
272.3000,1.6833,207.78,0.141048
272.2000,0.85782,207.886,0.142574
272.1000,0.778717,207.959,0.143614
272.0000,2.40034,207.971,0.143792
271.9000,0.737174,207.951,0.1435
271.8000,2.66134,207.93,0.143208
271.7000,0.107276,207.842,0.141941
271.6000,1.71228,207.854,0.14212
271.5000,1.23833,207.745,0.140544
271.4000,0.401406,208.07,0.145204
271.3000,3.01178,208.065,0.145139
271.2000,-1.02301,208.191,0.14694
271.1000,1.14238,207.828,0.141746
271.0000,-0.593611,208.207,0.147167
270.9000,0.89746,207.917,0.143013
270.8000,2.07815,207.115,0.131499
270.7000,2.80019,207.867,0.142299
270.6000,-1.18234,208.781,0.155381
270.5000,0.481216,207.699,0.139894
270.4000,0.675193,208.066,0.145156
270.3000,0.440439,208.033,0.144685
270.2000,1.22329,207.93,0.143208
270.1000,-0.64179,207.902,0.142802
270.0000,0.823905,208.302,0.148529
269.9000,-0.817565,207.585,0.138252
269.8000,-0.925111,207.701,0.139927
269.7000,0.719158,208.098,0.14561
269.6000,0.656857,208.253,0.147832
269.5000,2.44697,208.098,0.14561
269.4000,2.64421,208.156,0.146437
269.3000,0.562334,208.062,0.145091
269.2000,-0.133436,207.846,0.142006
269.1000,-0.249382,207.92,0.143062
269.0000,0.239875,208.527,0.151754
268.9000,0.902067,208.781,0.155381
268.8000,-0.433292,208.1,0.145642
268.7000,0.0347592,208.275,0.14814
268.6000,2.70913,208.752,0.15496
268.5000,0.212969,208.653,0.153552
268.4000,-0.448177,209.016,0.158729
268.3000,0.981313,208.615,0.153001
268.2000,1.78263,208.738,0.154766
268.1000,0.688207,208.966,0.158017
268.0000,-0.348752,208.508,0.151479
267.9000,-0.790795,208.901,0.157096
267.8000,-0.441257,208.593,0.152694
267.7000,1.85545,208.526,0.151738
267.6000,0.723563,208.578,0.152483
267.5000,0.623027,208.558,0.152192
267.4000,1.25702,209.126,0.160297
267.3000,1.22303,208.537,0.151884
267.2000,0.886675,208.983,0.15826
267.1000,1.12041,208.394,0.149842
267.0000,-0.336876,208.371,0.149518
266.9000,0.826993,207.457,0.136415
266.8000,-0.645564,208.695,0.154151
266.7000,0.0236075,208.677,0.153892
266.6000,-0.952052,208.517,0.151609
266.5000,0.486936,209.169,0.160911
266.4000,2.16422,208.158,0.14647
266.3000,0.966249,208.126,0.146016
266.2000,0.299787,209.843,0.170511
266.1000,1.07793,208.685,0.154005
266.0000,-0.154845,208.781,0.155381
265.9000,0.658734,208.385,0.149713
265.8000,-0.235199,209.145,0.160571
265.7000,-0.0844033,208.673,0.153827
265.6000,0.143377,208.288,0.148335
265.5000,-0.831422,210.414,0.178624
265.4000,-1.56424,209.522,0.165948
265.3000,0.632472,209.496,0.165577
265.2000,0.128248,208.905,0.157144
265.1000,0.431829,208.069,0.145188
265.0000,1.54427,210.002,0.172767
264.9000,-0.643413,209.681,0.168206
264.8000,1.13846,209.167,0.160878
264.7000,1.08536,209.732,0.168932
264.6000,0.634425,209.34,0.16335
264.5000,-0.383941,210.005,0.172815
264.4000,0.595262,209.573,0.166674
264.3000,-0.0359428,209.531,0.166077
264.2000,0.222559,209.366,0.163721
264.1000,-0.477008,209.478,0.165319
264.0000,0.513792,210.505,0.17991
263.9000,2.10196,208.898,0.157047
263.8000,0.33968,209.433,0.164673
263.7000,-0.583919,209.997,0.172702
263.6000,-0.0906986,209.753,0.169238
263.5000,1.16441,209.985,0.172525
263.4000,-0.260925,208.712,0.154393
263.3000,-0.191102,208.082,0.145383
263.2000,1.86573,209.695,0.1684
263.1000,1.41295,209.727,0.168867
263.0000,2.10614,209.631,0.167497
262.9000,0.773176,209.602,0.167077
262.8000,-0.335054,209.905,0.171398
262.7000,1.17416,209.399,0.164189
262.6000,-0.197869,208.713,0.15441
262.5000,0.629843,208.597,0.152742
262.4000,-0.14858,209.953,0.172074
262.3000,1.1747,210.431,0.178865
262.2000,2.20598,210.354,0.177772
262.1000,0.403116,210.218,0.175841
262.0000,0.48598,209.682,0.168222
261.9000,1.11554,210.114,0.174361
261.8000,1.45952,209.832,0.17035
261.7000,-1.52371,209.915,0.171543
261.6000,1.92931,210.386,0.178222
261.5000,1.54405,209.568,0.166593
261.4000,1.37197,210.494,0.179765
261.3000,0.643777,210.03,0.173169
261.2000,0.652333,209.569,0.166609
261.1000,0.320637,210.789,0.183942
261.0000,0.651691,210.57,0.180842
260.9000,1.35435,210.26,0.176436
260.8000,1.81498,209.864,0.170818
260.7000,0.728569,210.646,0.181919
260.6000,-1.09524,209.612,0.167223
260.5000,-0.697297,209.271,0.162365
260.4000,1.35146,210.37,0.177997
260.3000,0.826849,209.128,0.160329
260.2000,1.27307,209.85,0.170608
260.1000,-1.03081,209.451,0.164932
260.0000,-0.383528,210.351,0.177723
259.9000,-0.408999,211.449,0.193274
259.8000,0.432682,210.445,0.179058
259.7000,0.427082,209.998,0.172718
259.6000,0.0758635,209.075,0.159569
259.5000,0.703726,210.655,0.182047
259.4000,3.07789,210.628,0.181661
259.3000,-0.166932,209.949,0.172026
259.2000,-1.47445,210.162,0.175053
259.1000,0.64602,210.769,0.183653
259.0000,0.546041,210.747,0.183348
258.9000,-0.169546,210.192,0.175471
258.8000,0.0165387,210.398,0.178399
258.7000,-0.273557,210.488,0.179669
258.6000,1.16522,211.251,0.190486
258.5000,0.495092,210.566,0.180778
258.4000,0.700864,210.202,0.175616
258.3000,-0.842121,212.197,0.203843
258.2000,-2.02789,212.238,0.204418
258.1000,-0.462575,210.901,0.185531
258.0000,0.295847,210.889,0.185354
257.9000,0.704724,210.918,0.185772
257.8000,-1.6642,210.697,0.182641
257.7000,1.0981,210.829,0.184504
257.6000,0.855515,211.041,0.187504
257.5000,1.55071,211.523,0.19433
257.4000,0.780407,210.342,0.177595
257.3000,1.20987,211.32,0.191464
257.2000,-0.934087,211.768,0.197787
257.1000,1.2995,210.621,0.181565
257.0000,1.81066,209.681,0.168206
256.9000,-0.0869788,212.559,0.208933
256.8000,2.33355,212.272,0.204897
256.7000,0.299728,210.656,0.182063
256.6000,0.84545,211.033,0.187392
256.5000,0.861992,210.57,0.180842
256.4000,0.479762,210.825,0.184456
256.3000,0.337104,210.808,0.184215
256.2000,0.354044,213.82,0.226637
256.1000,-0.433491,212.447,0.207354
256.0000,0.787402,213.025,0.215481
255.9000,1.17827,211.728,0.197227
255.8000,1.00297,211.834,0.198714
255.7000,1.97425,212.175,0.203524
255.6000,0.344345,211.839,0.198794
255.5000,0.573456,212.115,0.202678
255.4000,-2.74758,211.667,0.196363
255.3000,1.49519,212.102,0.202502
255.2000,-0.43845,211.539,0.194555
255.1000,-0.356593,211.943,0.200249
255.0000,1.14222,211.821,0.198538
254.9000,0.789447,212.507,0.2082
254.8000,-0.416848,212.305,0.20536
254.7000,-0.0786496,212.723,0.211244
254.6000,0.826914,212.35,0.205998
254.5000,0.706679,212.672,0.210527
254.4000,0.285907,210.647,0.181935
254.3000,-0.473231,212.341,0.205871
254.2000,1.40725,211.437,0.193114
254.1000,1.99082,211.782,0.197979
254.0000,-1.68875,211.834,0.198714
253.9000,0.926471,211.353,0.191928
253.8000,0.938794,212.577,0.209188
253.7000,-0.428136,213.071,0.216133
253.6000,1.20556,212.881,0.213459
253.5000,-0.824064,212.665,0.210432
253.4000,-0.485945,212.613,0.209699
253.3000,0.657842,213.193,0.217851
253.2000,0.717259,213.023,0.215465
253.1000,0.0319586,213.096,0.216483
253.0000,0.58466,212.204,0.203939
252.9000,1.07514,212.655,0.210288
252.8000,2.01113,213.321,0.219648
252.7000,3.25356,212.687,0.210735
252.6000,0.477027,212.688,0.210751
252.5000,0.730323,212.431,0.207131
252.4000,2.55554,213.19,0.217804
252.3000,-0.0280399,212.363,0.206174
252.2000,0.491635,212.59,0.209364
252.1000,0.547387,213.164,0.217438
252.0000,0.0320804,212.846,0.212965
251.9000,0.839775,213.548,0.222826
251.8000,-0.0905799,212.725,0.211277
251.7000,0.20297,212.209,0.204003
251.6000,-0.0284349,212.095,0.202406
251.5000,1.51768,212.804,0.212376
251.4000,0.421743,214.763,0.239814
251.3000,-1.85282,212.585,0.2093
251.2000,2.38296,212.869,0.213299
251.1000,-0.201527,212.804,0.212376
251.0000,1.59782,213.355,0.220125
250.9000,-1.39327,213.101,0.216547
250.8000,0.925663,212.693,0.210814
250.7000,-0.200842,212.822,0.212631
250.6000,-1.01182,212.595,0.209444
250.5000,-1.24216,214.598,0.237521
250.4000,0.861415,213.835,0.226843
250.3000,0.0294822,213.631,0.223986
250.2000,0.331228,212.783,0.212089
250.1000,1.18602,213.358,0.220157
250.0000,0.0329557,213.366,0.220268
249.9000,0.432865,213.624,0.22389
249.8000,-1.69516,213.14,0.217104
249.7000,0.704529,213.192,0.217835
249.6000,0.990109,213.985,0.228952
249.5000,0.980139,212.396,0.206636
249.4000,0.763256,214.287,0.233168
249.3000,-1.06759,214.001,0.229174
249.2000,0.261603,213.538,0.222683
249.1000,1.65455,212.715,0.211133
249.0000,-2.9019,212.509,0.208232
248.9000,1.06169,215.048,0.243796
248.8000,1.02898,213.908,0.227874
248.7000,0.701843,213.621,0.223843
248.6000,-0.222724,213.25,0.218646
248.5000,-0.124731,214.322,0.233659
248.4000,-0.967148,213.443,0.221349
248.3000,0.684022,213.707,0.225049
248.2000,0.266415,214.231,0.232392
248.1000,-0.48291,213.596,0.223493
248.0000,-0.90314,213.629,0.223954
247.9000,-1.01629,214.356,0.234134
247.8000,-0.310976,214.288,0.233184
247.7000,-0.672239,213.55,0.222858
247.6000,-0.691542,214.183,0.231711
247.5000,-1.3627,214.094,0.230474
247.4000,-0.547534,214.29,0.233215
247.3000,0.260737,214.827,0.240715
247.2000,-0.941773,214.132,0.230997
247.1000,-0.537136,214.102,0.230585
247.0000,-1.46399,214.426,0.235116
246.9000,0.476091,214.533,0.236603
246.8000,0.415386,214.387,0.234562
246.7000,-0.754068,214.392,0.234641
246.6000,-2.08689,214.811,0.240494
246.5000,0.185143,214.332,0.233801
246.4000,-0.853158,214.858,0.241142
246.3000,-2.476,215.187,0.245722
246.2000,-1.05098,214.847,0.240984
246.1000,-2.11919,214.996,0.243069
246.0000,-1.20956,215.099,0.244507
245.9000,1.53744,215.276,0.246969
245.8000,0.622875,215.488,0.249918
245.7000,-0.238155,214.929,0.242138
245.6000,-3.2427,215.369,0.248262
245.5000,-1.68089,215.087,0.244333
245.4000,-0.0331144,215.393,0.248594
245.3000,-0.938274,215.105,0.244586
245.2000,-2.81899,215.296,0.247253
245.1000,-0.883237,215.386,0.248499
245.0000,-2.04894,215.691,0.252739
244.9000,-0.600379,215.986,0.256849
244.8000,-2.45944,215.958,0.256455
244.7000,-2.67079,216.62,0.265635
244.6000,-1.21172,216.057,0.257824
244.5000,-1.60755,215.58,0.251195
244.4000,-1.96378,215.329,0.24771
244.3000,-3.27015,215.38,0.24842
244.2000,-2.458,216.173,0.259444
244.1000,-2.21729,215.939,0.256188
244.0000,-2.60873,216.074,0.25806
243.9000,-1.24986,216.486,0.263782
243.8000,-2.0383,215.93,0.256062
243.7000,-1.24051,216.845,0.268757
243.6000,0.1568,216.422,0.262886
243.5000,-1.36464,216.462,0.263452
243.4000,-3.55226,215.86,0.255086
243.3000,-2.26776,216.318,0.261457
243.2000,-2.90784,216.628,0.265744
243.1000,-3.6262,216.454,0.263342
243.0000,-2.78461,216.671,0.266341
242.9000,-4.76695,216.629,0.26576
242.8000,-2.09006,216.826,0.26849
242.7000,-4.66236,216.619,0.265619
242.6000,-2.69466,216.806,0.268208
242.5000,-1.28422,217.304,0.275104
242.4000,-4.16903,216.885,0.269306
242.3000,-4.06971,217.362,0.275902
242.2000,-4.0945,217.617,0.279423
242.1000,-3.81922,217.462,0.27728
242.0000,-4.06153,217.344,0.275652
241.9000,-4.15191,217.363,0.275918
241.8000,-4.22181,219.013,0.298639
241.7000,-4.88137,217.506,0.27789
241.6000,-6.4355,217.493,0.277718
241.5000,-4.46053,217.538,0.278328
241.4000,-3.28566,217.854,0.28269
241.3000,-4.94709,217.258,0.274462
241.2000,-3.39958,217.875,0.282987
241.1000,-5.99613,217.887,0.283143
241.0000,-5.68063,218.394,0.290135
240.9000,-7.22975,217.952,0.284049
240.8000,-5.75564,217.983,0.284471
240.7000,-5.97301,218.253,0.288186
240.6000,-6.43202,219.243,0.301796
240.5000,-5.94564,219.46,0.304779
240.4000,-7.92126,219.278,0.302277
240.3000,-6.91218,219.405,0.304018
240.2000,-6.36253,219.111,0.299992
240.1000,-6.20302,218.681,0.294078
240.0000,-3.72372,219.986,0.311978
239.9000,-6.79511,219.562,0.306176
239.8000,-7.46498,219.922,0.311094
239.7000,-9.11362,219.859,0.310242
239.6000,-7.27574,219.65,0.307372
239.5000,-8.50381,220.658,0.321158
239.4000,-6.90793,220.691,0.321606
239.3000,-6.99131,220.282,0.316021
239.2000,-9.3551,220.366,0.317167
239.1000,-9.4532,219.947,0.311435
239.0000,-8.96543,220.572,0.319983
238.9000,-11.095,221.016,0.32604
238.8000,-9.97113,221.264,0.32942
238.7000,-11.9036,221.047,0.326457
238.6000,-8.21509,221.401,0.331286
238.5000,-9.32056,221.346,0.33053
238.4000,-9.17838,221.742,0.335924
238.3000,-9.17266,221.43,0.331672
238.2000,-8.62774,222.132,0.341217
238.1000,-9.58036,222.437,0.345351
238.0000,-12.1492,221.35,0.330592
237.9000,-13.3862,222.191,0.342017
237.8000,-9.57049,222.214,0.342324
237.7000,-11.756,222.582,0.347316
237.6000,-10.6303,222.937,0.352118
237.5000,-12.3859,222.367,0.344399
237.4000,-12.0243,223.52,0.360005
237.3000,-14.5618,222.985,0.352777
237.2000,-13.4567,223.273,0.356668
237.1000,-12.3175,224.081,0.367569
237.0000,-10.3283,223.791,0.363659
236.9000,-16.6158,224.035,0.366943
236.8000,-14.0988,223.818,0.364026
236.7000,-12.4551,224.535,0.373686
236.6000,-11.7343,224.163,0.368668
236.5000,-15.3299,224.494,0.373122
236.4000,-15.5802,225.063,0.380781
236.3000,-15.7749,225.197,0.382576
236.2000,-15.65,225.469,0.386223
236.1000,-15.4692,224.658,0.375332
236.0000,-14.8342,224.998,0.379899
235.9000,-17.0154,225.523,0.386952
235.8000,-17.4716,225.652,0.388667
235.7000,-17.6966,226.061,0.394142
235.6000,-14.8935,226.314,0.397536
235.5000,-15.3106,226.431,0.399095
235.4000,-16.9632,225.918,0.392232
235.3000,-17.2515,227.002,0.406715
235.2000,-16.3133,226.091,0.394552
235.1000,-16.0683,226.938,0.405854
235.0000,-19.0668,227.2,0.409357
234.9000,-20.3822,226.838,0.404524
234.8000,-18.9878,227.383,0.411786
234.7000,-18.6165,227.047,0.407319
234.6000,-18.0669,228.422,0.425591
234.5000,-22.2763,228.25,0.423307
234.4000,-20.45,228.609,0.42807
234.3000,-19.2417,228.531,0.427033
234.2000,-23.6015,228.945,0.432527
234.1000,-22.6824,228.918,0.432167
234.0000,-20.2676,229.051,0.433921
233.9000,-23.6787,228.821,0.430877
233.8000,-22.1021,229.302,0.437248
233.7000,-22.4661,229.742,0.443055
233.6000,-22.9605,229.463,0.439374
233.5000,-22.7502,229.331,0.437623
233.4000,-23.8248,230.265,0.449958
233.3000,-24.9978,230.443,0.452301
233.2000,-23.9668,231.051,0.460288
233.1000,-25.176,230.186,0.448913
233.0000,-25.5069,230.615,0.454567
232.9000,-25.0207,230.992,0.459514
232.8000,-25.4427,231.504,0.466237
232.7000,-24.9329,230.521,0.45333
232.6000,-26.6871,231.601,0.467514
232.5000,-28.5092,231.346,0.46417
232.4000,-26.3033,231.946,0.472028
232.3000,-25.9104,232.238,0.475854
232.2000,-27.7579,231.968,0.472325
232.1000,-28.8825,233.364,0.490558
232.0000,-28.5545,232.941,0.485032
231.9000,-28.7245,232.783,0.482976
231.8000,-28.95,233.413,0.491192
231.7000,-28.2356,234.036,0.499302
231.6000,-31.2289,234.394,0.503953
231.5000,-31.601,234.138,0.500627
231.4000,-29.4636,234.342,0.503276
231.3000,-29.4887,234.037,0.499316
231.2000,-28.6877,234.387,0.503864
231.1000,-31.9038,234.945,0.511095
231.0000,-30.9974,234.964,0.511344
230.9000,-34.2889,235.387,0.516816
230.8000,-32.0651,234.946,0.511109
230.7000,-33.1853,235.549,0.518911
230.6000,-35.3992,234.833,0.509641
230.5000,-33.4093,235.915,0.52364
230.4000,-33.8837,235.572,0.519204
230.3000,-36.3747,236.102,0.526053
230.2000,-35.8064,236.192,0.527223
230.1000,-35.8382,235.984,0.524532
230.0000,-38.1919,236.845,0.535632
229.9000,-36.1459,236.937,0.536813
229.8000,-35.2905,236.812,0.535209
229.7000,-36.0836,235.993,0.524649
229.6000,-36.1389,237.251,0.54085
229.5000,-38.7511,236.851,0.535705
229.4000,-37.5732,237.612,0.545492
229.3000,-39.423,237.918,0.549417
229.2000,-38.9081,238.287,0.554151
229.1000,-38.7596,237.699,0.546612
229.0000,-39.2443,238.198,0.553004
228.9000,-37.7726,239.146,0.565133
228.8000,-38.9295,237.91,0.549315
228.7000,-41.4875,238.939,0.562485
228.6000,-39.2808,239.975,0.575693
228.5000,-41.8228,239.852,0.574135
228.4000,-42.9948,239.904,0.574799
228.3000,-41.1117,240.315,0.580019
228.2000,-42.0109,240.997,0.588683
228.1000,-42.9119,241.026,0.589057
228.0000,-43.2525,241.144,0.590551
227.9000,-43.7411,240.566,0.583216
227.8000,-40.7659,242.697,0.610197
227.7000,-47.4528,242.183,0.603703
227.6000,-45.1845,242.277,0.604891
227.5000,-43.6239,242.558,0.608439
227.4000,-46.0917,242.459,0.607195
227.3000,-44.2814,242.871,0.612384
227.2000,-43.256,243.64,0.622069
227.1000,-46.2001,243.185,0.616338
227.0000,-47.0619,243.979,0.626327
226.9000,-47.2322,243.786,0.623907
226.8000,-45.0957,244.448,0.632213
226.7000,-46.6661,244.775,0.636317
226.6000,-48.0486,244.108,0.627948
226.5000,-47.232,244.886,0.637707
226.4000,-47.616,245.489,0.645247
226.3000,-47.0811,245.017,0.639338
226.2000,-46.6937,245.715,0.648063
226.1000,-47.9591,246.305,0.655426
226.0000,-46.6205,244.879,0.637608
225.9000,-49.2975,246.11,0.652997
225.8000,-48.6831,245.986,0.651442
225.7000,-49.1329,246.506,0.657924
225.6000,-50.1098,245.902,0.650396
225.5000,-49.839,246.331,0.655751
225.4000,-50.4796,247.016,0.664268
225.3000,-51.8734,246.797,0.661548
225.2000,-48.2015,247.074,0.665
225.1000,-45.7001,247.795,0.673946
225.0000,-49.9109,247.27,0.667435
224.9000,-50.5279,248.825,0.686694
224.8000,-51.852,248.41,0.681566
224.7000,-51.6246,248.618,0.684131
224.6000,-52.8734,248.357,0.680907
224.5000,-50.6896,248.883,0.687407
224.4000,-53.3006,248.999,0.688849
224.3000,-52.0254,249.216,0.69152
224.2000,-49.3321,249.787,0.69856
224.1000,-53.1318,250.314,0.705044
224.0000,-54.2717,250.031,0.70156
223.9000,-50.5242,250.406,0.706173
223.8000,-55.0677,250.272,0.704529
223.7000,-52.9662,250.927,0.712573
223.6000,-52.4796,251.149,0.715297
223.5000,-53.0279,251.271,0.716797
223.4000,-51.9367,250.952,0.712879
223.3000,-51.3618,251.795,0.723208
223.2000,-52.8709,252.434,0.731018
223.1000,-53.4094,251.941,0.724996
223.0000,-53.9065,252.211,0.728292
222.9000,-51.2887,252.562,0.732581
222.8000,-51.2835,253.237,0.740814
222.7000,-53.0904,253.224,0.740648
222.6000,-50.6683,254.18,0.752276
222.5000,-52.7062,253.764,0.747224
222.4000,-56.1459,253.349,0.742179
222.3000,-51.1293,253.209,0.740469
222.2000,-56.965,254.471,0.755809
222.1000,-54.31,256.334,0.778333
222.0000,-49.2219,255.813,0.772045
221.9000,-53.1505,255.149,0.764018
221.8000,-54.3589,255.62,0.769718
221.7000,-55.5435,255.913,0.773262
221.6000,-56.0523,255.714,0.770854
221.5000,-48.9803,256.701,0.782756
221.4000,-53.0696,256.56,0.781064
221.3000,-46.8812,256.392,0.77903
221.2000,-54.1494,256.888,0.785007
221.1000,-52.2208,257.211,0.788891
221.0000,-51.7806,257.431,0.791532
220.9000,-54.014,257.789,0.795831
220.8000,-54.882,258.37,0.802799
220.7000,-56.5343,257.171,0.788414
220.6000,-51.3251,257.953,0.797802
220.5000,-53.8097,258.061,0.799093
220.4000,-55.7521,259.649,0.818088
220.3000,-53.7907,261.232,0.836921
220.2000,-56.0381,260.404,0.827078
220.1000,-54.1625,260.823,0.832063
220.0000,-51.1319,260.03,0.822626
219.9000,-53.3767,260.102,0.82349
219.8000,-51.3843,260.676,0.830313
219.7000,-52.8935,260.667,0.830205
219.6000,-49.8109,260.609,0.829518
219.5000,-51.6384,261.57,0.840926
219.4000,-54.5541,262.295,0.849513
219.3000,-52.0212,262.369,0.850384
219.2000,-52.4463,261.394,0.838843
219.1000,-50.0596,262.242,0.848883
219.0000,-54.443,262.74,0.854776
218.9000,-53.0011,262.911,0.856796
218.8000,-54.2185,263.235,0.860619
218.7000,-55.6294,264.477,0.875235
218.6000,-51.823,263.189,0.860072
218.5000,-50.191,263.532,0.864119
218.4000,-55.9513,263.992,0.869535
218.3000,-53.5129,264.791,0.878921
218.2000,-53.716,264.056,0.870281
218.1000,-52.4589,264.712,0.87799
218.0000,-50.7231,265.632,0.888774
217.9000,-53.2489,266.036,0.893505
217.8000,-50.1096,265.59,0.888283
217.7000,-53.7025,266.169,0.895054
217.6000,-52.4311,266.471,0.898588
217.5000,-54.0366,266.356,0.897238
217.4000,-52.2971,266.695,0.901193
217.3000,-53.9471,266.918,0.903796
217.2000,-53.7255,267.419,0.909629
217.1000,-53.2746,268.924,0.927115
217.0000,-50.5923,267.762,0.913623
216.9000,-52.0956,268.359,0.92056
216.8000,-51.2569,267.84,0.914532
216.7000,-50.7708,268.954,0.927457
216.6000,-53.7029,269.32,0.931694
216.5000,-54.4139,270.036,0.939971
216.4000,-53.4164,269.262,0.931025
216.3000,-53.8849,269.898,0.938374
216.2000,-54.7653,269.865,0.937995
216.1000,-50.376,270.422,0.944429
216.0000,-51.894,270.55,0.945905
215.9000,-54.1135,271.118,0.952443
215.8000,-55.2644,271.637,0.95841
215.7000,-52.0976,271.62,0.958215
215.6000,-53.3912,271.778,0.960024
215.5000,-52.4983,271.949,0.961988
215.4000,-56.043,273.025,0.974323
215.3000,-54.6425,272.28,0.965784
215.2000,-53.0106,273.664,0.981627
215.1000,-51.5771,274.037,0.985882
215.0000,-54.5521,272.482,0.968109
214.9000,-48.5834,274.048,0.986011
214.8000,-49.9667,274.254,0.988362
214.7000,-52.2634,275.833,1.00631
214.6000,-54.3091,274.569,0.99195
214.5000,-50.608,275.032,0.997211
214.4000,-51.9652,274.881,0.995497
214.3000,-55.2746,275.207,0.999207
214.2000,-54.3823,277.209,1.02189
214.1000,-51.6301,276.088,1.0092
214.0000,-51.0666,276.884,1.01822
213.9000,-49.566,276.884,1.01822
213.8000,-58.5463,277.002,1.01955
213.7000,-54.9607,277.187,1.02164
213.6000,-56.1572,277.964,1.03041
213.5000,-52.752,278.571,1.03725
213.4000,-54.4798,278.091,1.03184
213.3000,-54.5998,278.387,1.03517
213.2000,-51.4828,279.308,1.04552
213.1000,-53.4911,279.965,1.0529
213.0000,-56.7554,279.408,1.04664
212.9000,-53.6066,281.114,1.06575
212.8000,-57.492,281.035,1.06486
212.7000,-52.8507,280.634,1.06038
212.6000,-52.3363,281.175,1.06643
212.5000,-56.5258,281.627,1.07147
212.4000,-56.9303,282.145,1.07724
212.3000,-52.9391,281.773,1.0731
212.2000,-49.9442,283.453,1.09177
212.1000,-51.3831,283.066,1.08748
212.0000,-53.8335,283.842,1.09609
211.9000,-56.624,284.96,1.10845
211.8000,-53.7849,285.319,1.11241
211.7000,-53.7785,285.619,1.11572
211.6000,-53.2847,285.949,1.11935
211.5000,-57.5605,287.016,1.13108
211.4000,-53.2049,286.042,1.12037
211.3000,-56.6886,286.96,1.13046
211.2000,-54.9521,286.821,1.12894
211.1000,-54.9172,288.76,1.15017
211.0000,-55.271,287.894,1.14071
210.9000,-59.0513,287.968,1.14151
210.8000,-59.4049,288.74,1.14995
210.7000,-58.3701,290.948,1.17399
210.6000,-56.9725,290.262,1.16654
210.5000,-55.3986,290.554,1.16971
210.4000,-55.5316,291.338,1.17822
210.3000,-53.3736,291.791,1.18313
210.2000,-53.575,292.197,1.18751
210.1000,-58.5937,291.737,1.18254
210.0000,-59.901,294.007,1.20704
209.9000,-58.1881,293.699,1.20373
209.8000,-57.252,293.5,1.20158
209.7000,-57.6167,294.55,1.21288
209.6000,-55.9591,294.74,1.21492
209.5000,-60.9874,295.477,1.22282
209.4000,-63.4712,295.749,1.22573
209.3000,-53.4384,298.05,1.25028
209.2000,-62.9685,297.843,1.24808
209.1000,-57.7686,298.021,1.24997
209.0000,-57.3485,299.324,1.26381
208.9000,-56.0001,299.266,1.26319
208.8000,-57.7284,299.839,1.26927
208.7000,-53.0711,298.768,1.25792
208.6000,-57.504,300.752,1.27892
208.5000,-56.2894,299.839,1.26927
208.4000,-58.3447,301.501,1.28682
208.3000,-58.7398,303.151,1.30415
208.2000,-54.5181,304.308,1.31627
208.1000,-56.7812,304.936,1.32282
208.0000,-60.2668,307.014,1.34444
207.9000,-55.3278,306.908,1.34335
207.8000,-53.4351,308.245,1.3572
207.7000,-58.0421,307.929,1.35393
207.6000,-51.2738,309.223,1.3673
207.5000,-51.8186,310.253,1.37791
207.4000,-51.3887,310.542,1.38088
207.3000,-56.6817,309.832,1.37357
207.2000,-54.7419,312.418,1.40012
207.1000,-51.57,312.867,1.4047
207.0000,-49.5992,313.583,1.41201
206.9000,-55.2952,313.584,1.41202
206.8000,-52.9912,313.923,1.41547
206.7000,-47.7424,315.269,1.42916
206.6000,-53.2829,315.695,1.43348
206.5000,-45.7837,317.815,1.45491
206.4000,-50.4633,318.035,1.45713
206.3000,-48.3627,319.29,1.46975
206.2000,-40.1894,319.611,1.47297
206.1000,-50.8684,320.959,1.48648
206.0000,-48.4557,320.744,1.48433
205.9000,-46.1361,322.268,1.49954
205.8000,-53.1191,322.968,1.50651
205.7000,-53.4446,324.659,1.52329
205.6000,-53.7389,325.026,1.52692
205.5000,-34.9644,326.766,1.54411
205.4000,-50.897,325.855,1.53512
205.3000,-41.0106,326.373,1.54023
205.2000,-43.6069,330.053,1.57635
205.1000,-43.1387,329.522,1.57115
205.0000,-37.2558,331.099,1.58655
204.9000,-42.5542,332.28,1.59803
204.8000,-37.0506,333.203,1.60699
204.7000,-39.9666,333.804,1.61281
204.6000,-37.7958,335.522,1.62939
204.5000,-29.1091,335.811,1.63217
204.4000,-33.4176,338.03,1.65349
204.3000,-33.9957,338.226,1.65536
204.2000,-27.0245,340.288,1.67505
204.1000,-38.3548,340.614,1.67814
204.0000,-26.4441,342.139,1.69262
203.9000,-30.2144,343.089,1.70162
203.8000,-30.0508,343.857,1.70887
203.7000,-23.8649,346.245,1.73135
203.6000,-16.4098,347.166,1.73998
203.5000,-15.3764,347.6,1.74405
203.4000,-18.6352,350.026,1.76667
203.3000,-25.7419,350.297,1.76919
203.2000,-20.665,352.18,1.78665
203.1000,-18.4851,353.918,1.8027
203.0000,-17.9035,354.865,1.81141
202.9000,-20.4664,356.593,1.82727
202.8000,-17.9122,357.005,1.83103
202.7000,-5.97719,358.084,1.84089
202.6000,-13.1622,358.541,1.84506
202.5000,-14.688,360.56,1.86342
202.4000,-8.34507,362.137,1.8777
202.3000,-0.561315,364.395,1.89804
202.2000,-2.61422,364.894,1.90253
202.1000,-15.3362,366.614,1.91795
202.0000,-10.3629,368.168,1.93182
201.9000,-8.08357,370.075,1.94878
201.8000,-5.35646,372.018,1.96599
201.7000,6.24228,373.806,1.98175
201.6000,4.25159,375.088,1.99303
201.5000,3.83408,376.756,2.00763
201.4000,-6.06992,377.376,2.01305
201.3000,8.69573,379.766,2.03386
201.2000,3.23433,381.706,2.05067
201.1000,-1.81044,382.764,2.05981
201.0000,9.20581,384.811,2.07743
200.9000,16.8446,384.994,2.079
200.8000,14.3405,387.536,2.10077
200.7000,18.7106,389.72,2.11937
200.6000,8.26852,392.014,2.13882
200.5000,5.89299,393.394,2.15047
200.4000,14.6853,397.1,2.18159
200.3000,14.4503,396.773,2.17885
200.2000,29.078,399.112,2.19838
200.1000,12.1015,400.288,2.20816
200.0000,17.0297,402.124,2.2234
199.9000,28.6324,403.567,2.23532
199.8000,31.3627,406.803,2.26193
199.7000,16.5903,408.254,2.27381
199.6000,15.2615,409.135,2.281
199.5000,19.3355,411.819,2.30283
199.4000,19.6423,412.834,2.31106
199.3000,30.8188,413.776,2.31868
199.2000,25.2339,414.961,2.32824
199.1000,36.6755,417.821,2.35123
199.0000,31.7242,420.337,2.37135
198.9000,27.9434,421.449,2.3802
198.8000,32.4898,424.185,2.40191
198.7000,34.7458,426.723,2.42194
198.6000,36.6427,429.019,2.43998
198.5000,32.7716,430.533,2.45182
198.4000,29.8702,433.386,2.47406
198.3000,32.1322,434.493,2.48265
198.2000,39.1778,437.515,2.50601
198.1000,30.1536,437.247,2.50395
198.0000,39.2397,441.128,2.53377
197.9000,38.5271,443.943,2.55526
197.8000,42.1691,443.598,2.55264
197.7000,32.8624,447.726,2.58397
197.6000,49.2722,448.51,2.5899
197.5000,34.2838,449.61,2.59819
197.4000,27.7373,451.982,2.61602
197.3000,38.2118,454.796,2.63708
197.2000,43.1047,456.594,2.65047
197.1000,39.9852,458.944,2.66791
197.0000,39.6341,461.162,2.68429
196.9000,35.9494,463.114,2.69866
196.8000,33.1494,465.268,2.71446
196.7000,35.0041,467.948,2.73403
196.6000,36.3032,469.824,2.74767
196.5000,44.0337,472.544,2.76736
196.4000,52.3578,475.052,2.78544
196.3000,39.3392,476.317,2.79453
196.2000,32.2772,479.165,2.81492
196.1000,30.2994,482.067,2.83558
196.0000,34.4982,483.595,2.84642
195.9000,44.8141,485.224,2.85794
195.8000,39.8016,488.291,2.87955
195.7000,41.3781,491.17,2.89973
195.6000,26.4798,490.31,2.89371
195.5000,43.9781,495.228,2.928
195.4000,38.7119,495.308,2.92856
195.3000,37.4144,498.288,2.94919
195.2000,26.12,498.992,2.95405
195.1000,45.3218,500.112,2.96178
195.0000,31.633,503.123,2.98245
194.9000,42.5688,504.778,2.99378
194.8000,33.007,505.576,2.99922
194.7000,37.1651,507.308,3.01103
194.6000,53.3253,508.679,3.02034
194.5000,47.9846,511.526,3.03962
194.4000,39.1782,513.547,3.05325
194.3000,38.3895,516.124,3.07056
194.2000,35.7769,517.115,3.0772
194.1000,34.3593,519.855,3.0955
194.0000,40.9958,521.827,3.10862
193.9000,46.6818,523.714,3.12113
193.8000,42.0325,526.736,3.1411
193.7000,42.6862,527.749,3.14777
193.6000,34.509,529.961,3.16229
193.5000,31.4298,532.626,3.17973
193.4000,31.5161,532.334,3.17782
193.3000,43.5572,534.313,3.19072
193.2000,29.1008,536.215,3.20309
193.1000,44.9903,537.03,3.20838
193.0000,26.0679,539.347,3.22337
192.9000,39.9289,542.385,3.24294
192.8000,35.519,543.891,3.25261
192.7000,32.5053,544.084,3.25385
192.6000,42.4614,547.11,3.2732
192.5000,35.4343,547.911,3.27831
192.4000,45.4642,551.504,3.30115
192.3000,48.4097,553.669,3.31485
192.2000,27.3734,554.291,3.31877
192.1000,23.0353,557.147,3.33676
192.0000,40.4465,558.505,3.34528
191.9000,21.143,560.155,3.35561
191.8000,24.4081,561.724,3.36542
191.7000,23.0542,564.027,3.37977
191.6000,26.5589,565.384,3.38819
191.5000,37.528,566.889,3.39753
191.4000,30.1017,568.989,3.4105
191.3000,31.4551,570.999,3.42289
191.2000,33.198,572.838,3.43419
191.1000,37.3539,574.693,3.44556
191.0000,39.1828,578.158,3.46671
190.9000,34.4333,580.928,3.48355
190.8000,17.454,582.837,3.49511
190.7000,17.8037,584.726,3.50651
190.6000,11.8697,587.542,3.52346
190.5000,31.1346,589.31,3.53406
190.4000,31.1298,591.567,3.54756
190.3000,11.9034,593.443,3.55875
190.2000,30.1443,596.526,3.57707
190.1000,16.9904,597.377,3.58211
190.0000,18.3287,598.235,3.58719

##### Extended Information
[Comments]
Sample name,KMGM_ADDATIVE&PROTEIN_928
Comment,ADDATIVE AND PROTEIN
User,KYLE MURPHY
Division
Company,Saint Mary's College

[Detailed Information]
Creation date,9/28/2022 3:29 PM

Data array type,Linear data array * 3
Horizontal axis,Wavelength [nm]
Vertical axis(1),CD [mdeg]
Vertical axis(2),HT [V]
Vertical axis(3),Abs
Start,320 nm
End,190 nm
Data interval,0.1 nm
Data points,1301    

[Measurement Information]
Instrument name,J-1500
Model name,J-1500
Serial No.,B051061638

Detector,PM-539
Detector S/N,B051061638
  Lock-in amp.,X mode
  HT volt,Auto

Accessory,PTC-517
Accessory S/N,B026561646
  Temperature,28.01 C
  Control sensor,Holder
  Monitor sensor,Holder

Measurement date,9/28/2022 3:29 PM

CD Overload detect,1001
Photometric mode,CD, HT, Abs
Measure range,320 - 190 nm
Data pitch,0.1 nm
CD scale,20 mdeg/0.05 dOD
FL scale,20 mdeg/0.05 dOD
D.I.T.,8 msec
Bandwidth,2.00 nm
Start mode,Immediately
Scanning mode,Continuous
Scanning speed,200 nm/min
Baseline correction,None
Shutter control,Auto
No. of cycle,1/1
N2 Flowmeter,Manual

Solvent,NaPO4 buffer

