TITLE,KMGM_ADDATIVE&PROTEIN_928
DATA TYPE,
ORIGIN,JASCO
OWNER,
DATE,22/09/28
TIME,15:27:31
SPECTROMETER/DATA SYSTEM,
LOCALE,1033
RESOLUTION,
DELTAX,-0.1
XUNITS,NANOMETERS
YUNITS,CD [mdeg]
Y2UNITS,HT [V]
Y3UNITS,ABSORBANCE
FIRSTX,  320.0000
LASTX,  190.0000
NPOINTS,    1301
FIRSTY,     0.43344
MAXY,    54.05992
MINY,   -64.38790
XYDATA
320.0000,0.433441,209.18,0.161072
319.9000,0.530993,208.762,0.155106
319.8000,2.39303,208.72,0.154507
319.7000,0.187215,208.968,0.15805
319.6000,2.21961,208.759,0.155057
319.5000,0.650593,208.815,0.155866
319.4000,0.954815,207.593,0.138366
319.3000,2.69486,208.72,0.154507
319.2000,1.87119,207.461,0.13648
319.1000,1.38876,208.997,0.158454
319.0000,2.04474,207.948,0.143468
318.9000,-0.556906,208.589,0.152629
318.8000,1.4881,207.959,0.143614
318.7000,1.13066,207.893,0.142672
318.6000,-0.639154,209.351,0.163511
318.5000,3.71541,208.411,0.150085
318.4000,1.826,208.073,0.145253
318.3000,1.46359,208.818,0.155899
318.2000,0.940888,208.564,0.152273
318.1000,3.33634,209.326,0.163156
318.0000,2.57629,209.497,0.165593
317.9000,0.593481,208.961,0.157953
317.8000,1.10809,208.24,0.147638
317.7000,2.00583,205.98,0.115157
317.6000,2.38224,207.865,0.142266
317.5000,2.38981,208.041,0.144799
317.4000,2.37612,208.25,0.147784
317.3000,2.26307,208.081,0.145367
317.2000,-0.155611,208.407,0.150037
317.1000,1.4567,208.421,0.150231
317.0000,1.45186,208.453,0.150685
316.9000,2.5017,208.292,0.148384
316.8000,2.44897,208.5,0.151366
316.7000,0.407957,207.631,0.138919
316.6000,1.3167,209.082,0.159666
316.5000,0.867876,207.58,0.138187
316.4000,1.59947,208.146,0.146291
316.3000,1.39691,208.233,0.14754
316.2000,2.59066,207.483,0.136789
316.1000,1.3471,209.199,0.161347
316.0000,0.110127,208.41,0.150069
315.9000,2.57168,208.25,0.147784
315.8000,1.78367,209.007,0.158599
315.7000,1.34584,208.063,0.145107
315.6000,1.55892,207.754,0.140674
315.5000,2.09248,208.022,0.144523
315.4000,1.10476,207.023,0.130179
315.3000,1.26036,207.884,0.142542
315.2000,-0.583262,208.353,0.149259
315.1000,1.14464,208.753,0.154976
315.0000,1.11114,207.226,0.133095
314.9000,1.30369,208.699,0.154199
314.8000,0.278282,208.207,0.147167
314.7000,-0.15718,207.831,0.141779
314.6000,1.74905,208.385,0.149713
314.5000,2.86695,207.93,0.143208
314.4000,2.31277,208.963,0.157969
314.3000,2.78089,208.628,0.153195
314.2000,1.19432,208.586,0.152596
314.1000,0.902191,208.785,0.155429
314.0000,2.0913,207.519,0.137309
313.9000,0.661814,206.657,0.124912
313.8000,0.995389,207.734,0.140398
313.7000,1.33848,206.214,0.118526
313.6000,0.126967,207.757,0.140723
313.5000,2.04578,208.336,0.149016
313.4000,-0.50254,209.373,0.163818
313.3000,2.97626,206.208,0.118444
313.2000,1.69103,208.305,0.148578
313.1000,1.31911,207.357,0.134983
313.0000,1.43199,207.599,0.138464
312.9000,-0.163708,207.52,0.137326
312.8000,-0.434321,208.209,0.1472
312.7000,2.40871,207.637,0.139
312.6000,2.75062,207.517,0.137277
312.5000,2.30406,207.184,0.132492
312.4000,1.32626,207.669,0.139455
312.3000,1.49891,208.184,0.146843
312.2000,1.29819,207.857,0.142152
312.1000,-1.15785,207.596,0.138415
312.0000,0.579163,208.714,0.154426
311.9000,-0.450019,205.577,0.109327
311.8000,2.49904,206.574,0.123721
311.7000,2.05725,206.409,0.121337
311.6000,-1.15141,207.326,0.134544
311.5000,2.17778,207.762,0.140788
311.4000,1.08403,207.543,0.137651
311.3000,0.0263799,208.54,0.151932
311.2000,1.14941,207.637,0.139
311.1000,0.481636,207.84,0.141909
311.0000,1.31726,207.822,0.141649
310.9000,-0.470413,207.186,0.132525
310.8000,1.25556,208.303,0.148546
310.7000,1.33336,208.543,0.151981
310.6000,-0.400896,207.856,0.142136
310.5000,0.990534,209.145,0.160571
310.4000,0.589161,207.803,0.141389
310.3000,1.38942,208.863,0.156546
310.2000,1.03597,208.37,0.149502
310.1000,0.8229,206.702,0.125565
310.0000,-0.0568805,209.851,0.170624
309.9000,-0.37968,208.909,0.157209
309.8000,0.607534,207.542,0.137635
309.7000,3.30255,206.798,0.126951
309.6000,1.5074,208.22,0.147362
309.5000,0.878642,207.935,0.143273
309.4000,2.16228,208.083,0.145399
309.3000,0.437775,206.772,0.126576
309.2000,0.244025,208.147,0.146308
309.1000,0.0737917,208.055,0.144993
309.0000,2.14846,207.692,0.139797
308.9000,0.81176,207.859,0.142185
308.8000,1.50013,207.035,0.130359
308.7000,-0.185863,208.039,0.144766
308.6000,2.16751,207.288,0.13399
308.5000,1.42688,207.423,0.135927
308.4000,0.930964,207.5,0.137033
308.3000,2.55724,207.296,0.134104
308.2000,0.447816,207.235,0.133225
308.1000,2.09702,206.832,0.127441
308.0000,1.1288,207.117,0.131532
307.9000,2.4693,207.101,0.131304
307.8000,2.11173,207.853,0.142104
307.7000,2.191,207.484,0.136805
307.6000,1.72082,208.109,0.145772
307.5000,-0.633663,206.485,0.122431
307.4000,1.97992,207.105,0.131369
307.3000,0.527237,206.966,0.129365
307.2000,1.49058,207.928,0.143175
307.1000,1.08165,207.183,0.132476
307.0000,2.34458,207.766,0.140853
306.9000,1.77006,207.391,0.135471
306.8000,2.14896,208.072,0.145237
306.7000,0.983082,207.23,0.13316
306.6000,1.11779,208.089,0.14548
306.5000,1.83833,207.322,0.134479
306.4000,1.25656,207.235,0.133225
306.3000,0.169085,207.36,0.135032
306.2000,0.804064,207.635,0.138968
306.1000,0.713098,208.049,0.144912
306.0000,1.66931,206.696,0.125483
305.9000,1.1463,208.512,0.151528
305.8000,1.22467,208.463,0.150831
305.7000,0.0363251,208.297,0.148465
305.6000,0.808539,206.855,0.127767
305.5000,2.41784,207.632,0.138935
305.4000,-0.11378,208.113,0.145821
305.3000,4.13972,208.343,0.149113
305.2000,-0.162151,207.588,0.138301
305.1000,0.706415,207.453,0.136366
305.0000,1.27682,207.773,0.14095
304.9000,1.86381,207.66,0.139325
304.8000,0.960714,208.071,0.145221
304.7000,0.896207,207.128,0.131695
304.6000,1.17073,207.236,0.133242
304.5000,1.08431,207.793,0.141243
304.4000,0.336216,207.067,0.130815
304.3000,0.504027,207.213,0.132916
304.2000,1.59602,207.479,0.13674
304.1000,0.759176,207.272,0.133762
304.0000,1.90723,206.752,0.126283
303.9000,0.520154,206.354,0.120553
303.8000,0.684366,206.87,0.127979
303.7000,0.983776,208.586,0.152596
303.6000,1.0239,206.994,0.129772
303.5000,1.45854,207.564,0.13796
303.4000,1.90627,208.006,0.144296
303.3000,0.12873,207.115,0.131499
303.2000,0.36746,207.997,0.144166
303.1000,0.944685,208.987,0.158325
303.0000,1.27992,207.047,0.130521
302.9000,1.42817,208.112,0.145805
302.8000,2.6616,208.487,0.151171
302.7000,1.18697,207.041,0.13044
302.6000,0.870493,206.372,0.120814
302.5000,2.29732,207.09,0.131141
302.4000,1.98059,206.923,0.128745
302.3000,-0.383076,206.221,0.118624
302.2000,1.1941,206.852,0.127718
302.1000,0.805958,207.755,0.14069
302.0000,2.67183,206.617,0.124341
301.9000,0.906582,208.028,0.144604
301.8000,1.17272,208.886,0.156869
301.7000,1.66687,207.405,0.135666
301.6000,-0.0594955,206.965,0.129348
301.5000,1.45641,206.781,0.126707
301.4000,0.212159,207.246,0.133388
301.3000,0.227156,207.011,0.130016
301.2000,-1.49336,206.528,0.123052
301.1000,2.67621,208.028,0.144604
301.0000,1.86146,206.755,0.126332
300.9000,1.26584,207.039,0.130408
300.8000,1.62965,207.315,0.134381
300.7000,0.294701,207.738,0.140447
300.6000,0.899654,206.122,0.117202
300.5000,0.176318,206.155,0.117676
300.4000,0.93729,207.359,0.135015
300.3000,-1.36084,207.118,0.131548
300.2000,0.938141,207.584,0.138236
300.1000,0.33531,207.215,0.132948
300.0000,2.89068,207.763,0.140804
299.9000,0.927742,206.423,0.121549
299.8000,1.66669,206.238,0.118869
299.7000,1.49642,206.717,0.125777
299.6000,2.2296,206.417,0.121451
299.5000,2.01201,206.642,0.1247
299.4000,1.46737,207.44,0.136171
299.3000,1.18511,206.458,0.122055
299.2000,-0.143292,207.228,0.133127
299.1000,1.77879,208.399,0.149923
299.0000,1.16685,206.872,0.128011
298.9000,-0.444792,207.443,0.13622
298.8000,-0.13658,207.263,0.133632
298.7000,0.913244,207.355,0.134951
298.6000,0.959251,207.047,0.130521
298.5000,0.305045,207.12,0.13158
298.4000,1.04354,206.57,0.123656
298.3000,1.1336,207.85,0.142055
298.2000,0.397632,207.218,0.132981
298.1000,2.44603,207.409,0.135731
298.0000,0.445158,207.071,0.13088
297.9000,2.31901,206.862,0.127865
297.8000,0.285437,207.596,0.138415
297.7000,1.59125,207.354,0.134934
297.6000,2.18312,208.049,0.144912
297.5000,-0.124268,207.25,0.133453
297.4000,3.28641,207.315,0.134381
297.3000,1.19439,206.551,0.123394
297.2000,1.42962,207.836,0.14186
297.1000,1.56891,207.01,0.13
297.0000,0.658218,207.711,0.140057
296.9000,-0.0232206,206.761,0.126413
296.8000,1.74598,206.858,0.127816
296.7000,1.9028,206.407,0.12132
296.6000,1.43173,206.939,0.128973
296.5000,0.97713,206.822,0.127294
296.4000,2.17109,206.841,0.127571
296.3000,0.0791637,207.108,0.131401
296.2000,1.16844,207.529,0.137456
296.1000,2.57046,207.153,0.132053
296.0000,0.953155,206.974,0.129478
295.9000,-1.30256,207.23,0.13316
295.8000,0.59201,206.688,0.125369
295.7000,2.02101,206.44,0.121794
295.6000,1.14302,206.934,0.128908
295.5000,0.980035,207.325,0.134527
295.4000,0.337969,206.811,0.127131
295.3000,1.0259,207.212,0.132899
295.2000,0.901161,206.834,0.127457
295.1000,-0.00905939,206.946,0.129071
295.0000,0.322265,207.44,0.136171
294.9000,1.59563,206.999,0.129837
294.8000,1.10394,206.766,0.126479
294.7000,-0.17809,207.156,0.132102
294.6000,1.20114,206.479,0.122349
294.5000,0.38913,206.217,0.118575
294.4000,1.7896,206.318,0.12003
294.3000,0.768348,207.333,0.134641
294.2000,2.69586,206.761,0.126413
294.1000,1.27157,207.812,0.141519
294.0000,2.08969,206.847,0.127653
293.9000,1.19376,207.927,0.143159
293.8000,2.38454,206.813,0.127164
293.7000,1.50529,207.598,0.138448
293.6000,0.861957,206.824,0.127327
293.5000,0.590513,206.912,0.128582
293.4000,0.44551,206.727,0.125924
293.3000,2.22717,207.347,0.134837
293.2000,2.6445,207.551,0.137765
293.1000,1.47206,207.917,0.143013
293.0000,0.622643,206.688,0.125369
292.9000,0.780236,206.369,0.120765
292.8000,0.838894,206.78,0.126691
292.7000,1.23199,206.843,0.127587
292.6000,3.38524,208.593,0.152694
292.5000,-0.107741,206.401,0.121222
292.4000,2.18647,206.384,0.120977
292.3000,2.12267,207.297,0.13412
292.2000,0.727453,207.461,0.13648
292.1000,0.16444,207.655,0.13926
292.0000,0.787948,206.966,0.129365
291.9000,-0.152237,206.077,0.116548
291.8000,2.12356,205.406,0.106852
291.7000,0.919233,205.494,0.108131
291.6000,1.07041,206.778,0.126658
291.5000,0.677388,206.861,0.127848
291.4000,0.997996,207.258,0.133567
291.3000,2.01059,206.398,0.12119
291.2000,2.56983,205.406,0.106852
291.1000,1.66411,205.751,0.111851
291.0000,0.384065,206.232,0.118788
290.9000,2.2818,207.188,0.132557
290.8000,1.36677,207.272,0.133762
290.7000,1.39113,206.185,0.118117
290.6000,1.47626,206.564,0.123574
290.5000,-0.863072,207.386,0.135406
290.4000,1.07028,206.055,0.116237
290.3000,0.586586,206.878,0.128093
290.2000,0.120836,206.639,0.124651
290.1000,1.21353,206.933,0.128892
290.0000,1.25977,206.487,0.122464
289.9000,-0.522364,206.77,0.126544
289.8000,0.272518,207.643,0.139081
289.7000,1.74465,205.756,0.111916
289.6000,0.574285,206.269,0.119327
289.5000,0.654206,206.8,0.126968
289.4000,1.27843,207.496,0.136984
289.3000,0.500192,207.028,0.130261
289.2000,1.82941,206.147,0.117561
289.1000,1.61243,208.446,0.150588
289.0000,0.94898,206.605,0.124162
288.9000,2.86336,207.675,0.139553
288.8000,0.94405,207.027,0.130245
288.7000,0.900597,206.847,0.127653
288.6000,1.03123,207.169,0.132281
288.5000,1.24631,206.892,0.128305
288.4000,0.333842,206.998,0.129821
288.3000,2.35098,208.557,0.152175
288.2000,1.24693,205.647,0.110343
288.1000,0.68514,207.092,0.131173
288.0000,0.772789,207.367,0.13513
287.9000,1.93546,207.188,0.132557
287.8000,2.09433,207.392,0.135487
287.7000,1.0107,207.2,0.13272
287.6000,0.282564,206.587,0.1239
287.5000,0.684082,208.156,0.146437
287.4000,-0.198717,207.988,0.144036
287.3000,1.96708,206.573,0.123705
287.2000,1.04109,207.904,0.142835
287.1000,0.220825,207.049,0.130554
287.0000,2.63912,207.036,0.130375
286.9000,1.41345,207.279,0.13386
286.8000,0.754885,206.545,0.123297
286.7000,1.98167,207.908,0.142883
286.6000,0.761817,207.832,0.141795
286.5000,1.30223,207.456,0.136398
286.4000,1.78764,207.703,0.139943
286.3000,2.1111,207.541,0.137618
286.2000,3.27676,206.608,0.124211
286.1000,0.391142,206.716,0.125761
286.0000,1.70105,208.787,0.155462
285.9000,-0.224726,206.429,0.121631
285.8000,-0.319178,207.885,0.142558
285.7000,1.15944,207.275,0.133811
285.6000,1.20409,207.433,0.136073
285.5000,0.508644,207.777,0.141015
285.4000,2.08835,207.272,0.133762
285.3000,2.58728,208.244,0.147703
285.2000,0.643327,206.671,0.125124
285.1000,-0.580537,207.722,0.140219
285.0000,1.53397,207.681,0.139634
284.9000,1.51309,208.227,0.147459
284.8000,0.19345,207.752,0.140658
284.7000,1.93588,206.851,0.127702
284.6000,-0.703551,206.892,0.128305
284.5000,0.948361,206.07,0.11645
284.4000,0.880542,207.822,0.141649
284.3000,0.128072,207.777,0.141015
284.2000,-0.965962,207.023,0.130179
284.1000,0.420459,207.129,0.131711
284.0000,-0.741235,207.731,0.140349
283.9000,2.07786,208.156,0.146437
283.8000,1.14926,207.757,0.140723
283.7000,-0.336671,207.234,0.133209
283.6000,0.439148,207.228,0.133127
283.5000,3.02216,207.464,0.136512
283.4000,2.48953,206.988,0.129674
283.3000,0.902837,207.461,0.13648
283.2000,1.33449,207.807,0.141438
283.1000,-0.564677,207.602,0.138496
283.0000,0.886893,207.546,0.1377
282.9000,-0.81539,207.812,0.141519
282.8000,1.40454,207.679,0.139602
282.7000,-0.814779,207.172,0.132329
282.6000,3.41121,207.64,0.139049
282.5000,3.57103,207.224,0.133079
282.4000,1.31454,207.8,0.14134
282.3000,2.15515,207.38,0.135309
282.2000,1.44922,207.894,0.142688
282.1000,2.03067,207.311,0.134316
282.0000,0.0543811,207.484,0.136805
281.9000,2.37085,207.119,0.131564
281.8000,0.804841,206.456,0.122023
281.7000,0.384636,207.941,0.143354
281.6000,0.727972,207.398,0.135569
281.5000,0.513945,208.081,0.145367
281.4000,-0.782444,207.459,0.136447
281.3000,0.223041,206.718,0.125793
281.2000,0.351736,207.382,0.135341
281.1000,0.86734,207.961,0.143646
281.0000,-0.208235,207.116,0.131515
280.9000,0.504103,206.498,0.122627
280.8000,0.961799,206.214,0.118526
280.7000,-0.89711,207.877,0.142445
280.6000,1.78747,207.526,0.137407
280.5000,0.460485,205.901,0.114012
280.4000,1.85692,207.536,0.137553
280.3000,1.54577,207.38,0.135309
280.2000,-0.193723,208.114,0.145837
280.1000,-0.106117,207.501,0.137049
280.0000,0.907622,207.968,0.143744
279.9000,-0.36159,208.728,0.15462
279.8000,3.29908,207.467,0.136561
279.7000,1.89498,209.431,0.164641
279.6000,0.579337,207.841,0.141925
279.5000,0.330382,207.294,0.134072
279.4000,0.103406,206.983,0.129609
279.3000,2.63846,207.43,0.136024
279.2000,0.00928389,207.367,0.13513
279.1000,-0.131708,207.866,0.142282
279.0000,1.94466,208.149,0.14634
278.9000,0.12431,206.241,0.118919
278.8000,0.43976,207.683,0.139667
278.7000,0.324569,206.58,0.123803
278.6000,1.02404,207.609,0.138594
278.5000,0.438055,208.269,0.148059
278.4000,0.826158,208.317,0.14874
278.3000,1.33714,208.011,0.14436
278.2000,-0.212881,208.556,0.152159
278.1000,0.483938,208.442,0.150539
278.0000,0.6017,208.219,0.147346
277.9000,1.95976,208.043,0.144815
277.8000,1.87268,207.687,0.139715
277.7000,1.83264,207.494,0.136952
277.6000,-1.558,206.86,0.127832
277.5000,1.14242,207.832,0.141795
277.4000,1.36325,207.354,0.134934
277.3000,1.55597,207.807,0.141438
277.2000,1.6369,207.335,0.134674
277.1000,0.139191,207.274,0.133795
277.0000,0.789416,207.432,0.136057
276.9000,0.186622,207.593,0.138366
276.8000,2.06642,207.657,0.139293
276.7000,1.2992,208.173,0.146681
276.6000,1.40678,207.686,0.139699
276.5000,0.2081,207.866,0.142282
276.4000,1.45376,207.351,0.134902
276.3000,0.451524,206.597,0.124047
276.2000,-0.212522,208.173,0.146681
276.1000,0.789521,207.316,0.134397
276.0000,0.899115,208.479,0.151058
275.9000,1.54838,208.05,0.144928
275.8000,-0.990871,207.365,0.135097
275.7000,-0.618144,208.147,0.146308
275.6000,0.549464,208.154,0.146405
275.5000,-0.151602,206.996,0.129788
275.4000,0.488355,207.12,0.13158
275.3000,0.901533,207.626,0.138838
275.2000,1.74237,207.39,0.135455
275.1000,0.072573,208.585,0.15258
275.0000,1.30238,207.214,0.132932
274.9000,0.492669,208.022,0.144523
274.8000,1.19149,207.445,0.136252
274.7000,1.85628,207.487,0.136854
274.6000,1.14942,207.249,0.133437
274.5000,1.34201,207.314,0.134365
274.4000,0.000108104,206.407,0.12132
274.3000,0.606871,208.322,0.148821
274.2000,1.91403,207.299,0.134153
274.1000,2.04598,206.241,0.118919
274.0000,-0.186577,207.571,0.138057
273.9000,1.19525,207.623,0.138805
273.8000,2.78863,207.281,0.133893
273.7000,2.09474,208.003,0.144247
273.6000,1.51757,206.702,0.125565
273.5000,1.61567,207.383,0.135357
273.4000,1.53804,207.224,0.133079
273.3000,1.5695,208.427,0.150312
273.2000,0.109435,207.989,0.144052
273.1000,0.933571,207.785,0.141129
273.0000,-0.914893,207.75,0.140625
272.9000,2.41355,207.959,0.143614
272.8000,0.519366,208.592,0.152677
272.7000,0.0801338,207.134,0.131776
272.6000,0.565303,207.678,0.139586
272.5000,0.835744,207.908,0.142883
272.4000,0.221021,208.083,0.145399
272.3000,0.66157,207.462,0.136496
272.2000,1.10696,206.718,0.125793
272.1000,1.0383,208.837,0.156174
272.0000,-0.0439903,207.475,0.136675
271.9000,1.98382,207.692,0.139797
271.8000,-0.53588,209.085,0.159715
271.7000,-0.117176,207.495,0.136968
271.6000,1.57077,208.878,0.156756
271.5000,-0.704393,206.693,0.125435
271.4000,-0.35386,207.432,0.136057
271.3000,0.332272,207.979,0.143906
271.2000,0.409916,208.03,0.144636
271.1000,0.326764,208.561,0.15224
271.0000,1.51544,206.541,0.123247
270.9000,2.76237,208.862,0.15653
270.8000,-1.54173,207.297,0.13412
270.7000,-0.0538726,208.027,0.144588
270.6000,0.29736,206.634,0.124586
270.5000,0.60897,209.076,0.159585
270.4000,-0.340197,206.93,0.128843
270.3000,0.408407,208.441,0.150523
270.2000,-0.130233,208.27,0.148075
270.1000,0.979907,208.198,0.147037
270.0000,0.57871,209.046,0.159165
269.9000,-0.295898,207.911,0.142932
269.8000,0.158286,208.331,0.148951
269.7000,-0.10707,207.462,0.136496
269.6000,1.7745,209.146,0.160588
269.5000,-0.632894,208.524,0.151706
269.4000,0.394031,208.582,0.152532
269.3000,0.526644,208.389,0.149778
269.2000,0.653017,207.969,0.14376
269.1000,0.273249,207.869,0.142331
269.0000,2.05395,207.381,0.135325
268.9000,-0.191819,209.238,0.161896
268.8000,0.634211,208.505,0.15143
268.7000,-1.07047,208.757,0.155041
268.6000,1.17894,208.848,0.156335
268.5000,-0.223325,208.232,0.147524
268.4000,0.203049,207.339,0.134723
268.3000,0.61688,208.191,0.14694
268.2000,1.30094,208.121,0.145935
268.1000,0.517009,208.107,0.14574
268.0000,-0.310322,207.935,0.143273
267.9000,0.358752,207.623,0.138805
267.8000,-0.0970365,207.318,0.13443
267.7000,2.57313,207.91,0.142916
267.6000,0.618496,208.77,0.155219
267.5000,1.26109,207.367,0.13513
267.4000,-0.179443,207.836,0.14186
267.3000,0.928806,208.049,0.144912
267.2000,-0.375117,209.881,0.171059
267.1000,1.07919,208.573,0.152402
267.0000,0.494563,208.787,0.155462
266.9000,1.68076,208.375,0.149567
266.8000,0.92308,208.482,0.151106
266.7000,-0.306624,208.9,0.157079
266.6000,0.326677,207.138,0.131841
266.5000,0.800512,207.968,0.143744
266.4000,0.980152,209.058,0.159327
266.3000,0.558485,208.892,0.156966
266.2000,0.163882,208.454,0.150701
266.1000,0.39103,208.963,0.157969
266.0000,-0.65502,208.413,0.150118
265.9000,-0.322226,209.217,0.161605
265.8000,1.4131,208.717,0.154458
265.7000,1.15874,208.617,0.153034
265.6000,1.28448,208.692,0.154102
265.5000,-0.431315,209.172,0.160959
265.4000,-0.374659,209.442,0.164802
265.3000,3.68223,209.322,0.163091
265.2000,0.61161,208.67,0.153795
265.1000,0.755396,209.276,0.162445
265.0000,1.78752,209.951,0.172042
264.9000,-0.0305471,208.956,0.157872
264.8000,-0.377485,208.603,0.152839
264.7000,2.3677,208.673,0.153827
264.6000,1.11649,208.993,0.158406
264.5000,-0.167573,208.889,0.156918
264.4000,1.11213,209.742,0.169077
264.3000,-0.56758,209.21,0.161492
264.2000,-0.255591,210.054,0.173507
264.1000,-0.700601,208.599,0.152775
264.0000,-0.340067,210.373,0.178045
263.9000,1.22897,209.248,0.162042
263.8000,0.20667,208.755,0.155009
263.7000,0.541462,209.274,0.162413
263.6000,-1.6282,209.223,0.161686
263.5000,1.08933,209.56,0.166481
263.4000,-0.0184544,209.323,0.163107
263.3000,0.0138144,209.255,0.162138
263.2000,1.24096,210.642,0.181854
263.1000,-0.163112,209.598,0.167029
263.0000,0.800401,209.562,0.166513
262.9000,1.42851,209.016,0.158729
262.8000,0.375392,211.072,0.187953
262.7000,-0.863185,209.546,0.166287
262.6000,0.112696,209.11,0.16007
262.5000,-0.0210343,209.382,0.163947
262.4000,-0.45196,209.914,0.171526
262.3000,0.646625,210.123,0.174489
262.2000,-1.43147,209.868,0.170866
262.1000,0.633598,209.559,0.166465
262.0000,-1.25056,209.751,0.169206
261.9000,2.58472,209.73,0.1689
261.8000,1.97366,209.947,0.171994
261.7000,-0.933279,209.952,0.172058
261.6000,1.02461,208.617,0.153034
261.5000,1.98548,209.122,0.160248
261.4000,1.51884,210.404,0.178479
261.3000,0.725318,211.1,0.188338
261.2000,-1.13106,209.772,0.169496
261.1000,-1.57211,211.388,0.192425
261.0000,0.723339,209.629,0.167465
260.9000,0.869796,208.867,0.15661
260.8000,0.213661,210.257,0.176388
260.7000,0.709038,209.189,0.161201
260.6000,0.0925258,209.687,0.168287
260.5000,-0.464717,209.929,0.171736
260.4000,0.875474,209.79,0.169754
260.3000,-1.05397,210.167,0.175117
260.2000,2.41736,209.721,0.168771
260.1000,1.51592,210.39,0.178286
260.0000,0.312079,210.757,0.183492
259.9000,0.334704,210.424,0.178769
259.8000,-0.097785,211.337,0.191704
259.7000,0.317486,211.353,0.191928
259.6000,0.731058,210.198,0.175552
259.5000,-0.420373,210.568,0.18081
259.4000,-0.789568,211.515,0.194218
259.3000,2.21602,209.479,0.165335
259.2000,-0.353265,211.671,0.196411
259.1000,-0.0659227,210.476,0.179508
259.0000,0.464227,210.755,0.18346
258.9000,1.98535,209.716,0.168706
258.8000,0.470778,210.289,0.176855
258.7000,0.0105272,211.495,0.19393
258.6000,-0.701617,211.101,0.188354
258.5000,0.232367,211.005,0.187007
258.4000,1.1319,210.314,0.177209
258.3000,-0.177638,212.165,0.20338
258.2000,-1.2831,211.186,0.189557
258.1000,-0.40594,210.017,0.172992
258.0000,-0.24221,211.026,0.187296
257.9000,0.431773,210.012,0.172912
257.8000,-0.381994,210.443,0.179042
257.7000,-0.154992,210.672,0.182288
257.6000,-1.3327,210.456,0.179219
257.5000,-1.103,211.28,0.190887
257.4000,0.103109,211.035,0.187424
257.3000,-1.07472,211.808,0.198347
257.2000,0.114111,211.744,0.197451
257.1000,0.00769367,211.864,0.199146
257.0000,-1.69216,211.107,0.188451
256.9000,2.37123,210.766,0.183621
256.8000,1.55012,212.071,0.202055
256.7000,0.836417,211.888,0.199482
256.6000,1.6675,211.824,0.19857
256.5000,2.21417,210.681,0.182416
256.4000,-0.951984,210.68,0.1824
256.3000,1.39198,212.821,0.212615
256.2000,1.49358,211.046,0.187584
256.1000,0.308303,210.577,0.180938
256.0000,-0.496483,211.565,0.194923
255.9000,-0.866662,211.58,0.195131
255.8000,-0.246243,212.068,0.202023
255.7000,2.05701,211.46,0.193434
255.6000,-0.858603,211.641,0.195995
255.5000,0.614445,211.952,0.200377
255.4000,0.870907,211.463,0.193482
255.3000,-0.28835,211.211,0.189909
255.2000,0.234966,212.475,0.207753
255.1000,-0.154239,210.87,0.185082
255.0000,1.67096,211.813,0.198427
254.9000,0.986142,212.165,0.20338
254.8000,0.770636,211.003,0.186975
254.7000,1.68731,211.793,0.198139
254.6000,-1.17217,212.43,0.207115
254.5000,-0.502624,211.739,0.197371
254.4000,0.597794,211.887,0.199466
254.3000,0.994231,212.278,0.204977
254.2000,-1.3174,211.787,0.198059
254.1000,-1.05701,212.354,0.206046
254.0000,-0.470365,212.018,0.20132
253.9000,1.214,211.405,0.192665
253.8000,-0.91996,212.202,0.203907
253.7000,2.6898,212.299,0.20528
253.6000,0.967453,212.281,0.205025
253.5000,0.361478,211.963,0.200537
253.4000,0.00711459,211.796,0.198187
253.3000,1.41468,212.965,0.214637
253.2000,0.762936,212.194,0.203796
253.1000,0.224716,212.299,0.20528
253.0000,0.0186217,213.002,0.215162
252.9000,1.27504,212.332,0.205743
252.8000,-1.63096,211.429,0.193002
252.7000,1.26378,211.092,0.188226
252.6000,1.38876,212.918,0.213984
252.5000,1.10973,211.586,0.195211
252.4000,-0.293726,214.094,0.230474
252.3000,0.871064,212.927,0.214112
252.2000,-0.821007,212.378,0.206381
252.1000,0.397814,213.046,0.215783
252.0000,0.707237,213.183,0.217708
251.9000,-0.897741,212.461,0.207562
251.8000,-2.5843,212.901,0.213746
251.7000,-1.32823,211.532,0.194459
251.6000,0.91073,213.53,0.222572
251.5000,1.21942,212.512,0.208279
251.4000,0.0462903,213.948,0.228429
251.3000,-0.0619369,212.039,0.201607
251.2000,-1.55033,213.827,0.226732
251.1000,0.721389,213.53,0.222572
251.0000,1.80958,214.195,0.231885
250.9000,0.441725,211.971,0.200648
250.8000,1.98647,213.35,0.220046
250.7000,0.227471,213.768,0.225907
250.6000,-0.148927,213.97,0.22873
250.5000,-0.0245077,212.778,0.212009
250.4000,0.906326,213.797,0.226319
250.3000,-0.0871853,213.282,0.219092
250.2000,-0.709629,213.686,0.224764
250.1000,0.165156,212.372,0.206301
250.0000,0.675257,214.026,0.229523
249.9000,-0.549577,213.453,0.221492
249.8000,-1.5335,213.553,0.22289
249.7000,1.04871,213.112,0.216706
249.6000,2.06133,213.582,0.223303
249.5000,1.60369,214.593,0.237442
249.4000,0.836273,214.163,0.231441
249.3000,-1.09896,213.438,0.221285
249.2000,0.212899,213.287,0.219171
249.1000,-0.225742,213.97,0.22873
249.0000,-0.546818,214.141,0.231124
248.9000,-1.57781,214.391,0.234625
248.8000,2.41914,213.843,0.226954
248.7000,0.984436,213.808,0.226462
248.6000,0.507631,213.762,0.225827
248.5000,-0.322716,213.619,0.223827
248.4000,0.766807,213.957,0.228556
248.3000,0.337145,213.856,0.227144
248.2000,0.815197,214.356,0.234134
248.1000,0.584802,213.135,0.217024
248.0000,-0.417903,214.926,0.24209
247.9000,-0.52371,212.835,0.212822
247.8000,-1.42599,214.415,0.234957
247.7000,0.200545,214.049,0.22984
247.6000,-1.22993,214.181,0.231695
247.5000,0.287459,213.687,0.224779
247.4000,0.476115,213.846,0.227001
247.3000,-0.676773,214.402,0.234783
247.2000,0.403338,214.608,0.237648
247.1000,-0.182926,213.922,0.228064
247.0000,-1.67456,214.776,0.240004
246.9000,-0.415095,214.172,0.231568
246.8000,-2.17132,214.768,0.239893
246.7000,-0.624999,214.188,0.23179
246.6000,0.436862,214.166,0.231473
246.5000,-1.4782,214.483,0.235907
246.4000,-0.108801,215.572,0.251085
246.3000,-0.519963,214.794,0.240257
246.2000,-0.792088,215.157,0.245312
246.1000,-1.04073,215.682,0.252613
246.0000,0.641383,215.392,0.248578
245.9000,-2.7133,215.875,0.255306
245.8000,-2.08958,214.941,0.242296
245.7000,-1.64937,213.848,0.227033
245.6000,-2.57413,215.566,0.251006
245.5000,-1.58383,214.783,0.240099
245.4000,-2.12777,214.751,0.239656
245.3000,-2.42282,214.943,0.242327
245.2000,-0.847318,214.774,0.239972
245.1000,-1.46692,215.069,0.24408
245.0000,-2.12706,215.213,0.246085
244.9000,-2.47179,214.797,0.240288
244.8000,-1.51999,214.822,0.240636
244.7000,-2.12514,215.257,0.246701
244.6000,-1.93555,216.273,0.260828
244.5000,-1.17391,216.121,0.258721
244.4000,-1.77352,215.222,0.246211
244.3000,-0.975985,215.626,0.251841
244.2000,-2.76211,215.517,0.250328
244.1000,-3.26444,216.109,0.258548
244.0000,-2.15942,215.115,0.244728
243.9000,-1.10331,216.126,0.258784
243.8000,-1.46558,216.884,0.269291
243.7000,-4.17274,216.56,0.264802
243.6000,-1.80519,216.637,0.26587
243.5000,-3.51802,216.097,0.258391
243.4000,-2.23206,216.122,0.258737
243.3000,-3.28113,216.19,0.25968
243.2000,-2.18992,216.105,0.258501
243.1000,-2.19195,216.526,0.264331
243.0000,-2.45273,216.531,0.26441
242.9000,-3.96952,216.886,0.269322
242.8000,-2.06757,216.559,0.264787
242.7000,-5.15754,216.863,0.269008
242.6000,-2.69647,218.339,0.289371
242.5000,-3.38655,217.008,0.271015
242.4000,-4.99723,217.261,0.274509
242.3000,-4.08823,217.893,0.283237
242.2000,-3.75033,217.521,0.278093
242.1000,-5.0334,217.235,0.274149
242.0000,-3.95076,217.223,0.273976
241.9000,-5.04028,216.645,0.26598
241.8000,-4.59434,217.904,0.283377
241.7000,-5.7408,217.345,0.275668
241.6000,-4.30506,218.165,0.286984
241.5000,-6.23638,218.137,0.286594
241.4000,-4.98016,217.684,0.280345
241.3000,-4.428,218.429,0.290619
241.2000,-5.12538,218.972,0.298079
241.1000,-5.98869,218.279,0.288545
241.0000,-7.0415,218.747,0.294981
240.9000,-5.56373,218.444,0.290821
240.8000,-7.60169,218.39,0.290073
240.7000,-6.26207,218.638,0.293486
240.6000,-3.1788,218.679,0.294047
240.5000,-4.81919,219.69,0.30793
240.4000,-4.70644,218.491,0.29146
240.3000,-6.05273,219.088,0.299666
240.2000,-6.04329,219.45,0.304639
240.1000,-6.33753,218.82,0.295993
240.0000,-7.36514,219.514,0.305509
239.9000,-6.36751,220.39,0.317492
239.8000,-7.07761,220.285,0.316068
239.7000,-7.22804,219.749,0.308737
239.6000,-6.03109,218.776,0.295386
239.5000,-7.95321,220.617,0.320601
239.4000,-8.32725,220.407,0.317724
239.3000,-9.40805,220.286,0.316083
239.2000,-9.27078,220.557,0.319781
239.1000,-8.21171,220.771,0.322704
239.0000,-7.04489,219.303,0.30262
238.9000,-8.77615,221.15,0.327862
238.8000,-8.49382,221.921,0.338356
238.7000,-9.38525,220.677,0.32142
238.6000,-8.33152,222.119,0.341033
238.5000,-10.0461,222.491,0.346088
238.4000,-11.0822,221.182,0.328294
238.3000,-9.63497,221.189,0.328402
238.2000,-8.37286,221.793,0.336617
238.1000,-10.2988,222.155,0.341525
238.0000,-10.6873,222.786,0.350079
237.9000,-8.85511,222.242,0.342708
237.8000,-11.827,221.06,0.326642
237.7000,-9.66716,222.26,0.342954
237.6000,-11.3242,222.914,0.351812
237.5000,-11.7655,222.628,0.347946
237.4000,-13.0987,222.953,0.352333
237.3000,-13.6972,222.626,0.347915
237.2000,-13.1374,223.134,0.354785
237.1000,-12.0516,222.619,0.347823
237.0000,-14.2583,223.019,0.353237
236.9000,-12.4385,224.608,0.374661
236.8000,-15.2103,223.528,0.360112
236.7000,-13.0857,223.486,0.359546
236.6000,-11.5911,222.886,0.351428
236.5000,-12.4388,223.436,0.358873
236.4000,-15.5522,223.977,0.366165
236.3000,-17.1403,224.593,0.374463
236.2000,-14.6925,225.314,0.384141
236.1000,-15.9568,225.3,0.383959
236.0000,-13.4648,225.337,0.384445
235.9000,-14.1148,226.007,0.39343
235.8000,-12.762,225.156,0.382028
235.7000,-16.6269,225.632,0.388409
235.6000,-16.9076,225.604,0.38803
235.5000,-17.113,225.618,0.388212
235.4000,-16.8068,226.229,0.3964
235.3000,-16.9419,226.395,0.39861
235.2000,-18.5755,226.125,0.395006
235.1000,-19.1678,226.232,0.39643
235.0000,-19.3027,226.861,0.404827
234.9000,-20.9981,226.337,0.397838
234.8000,-21.0054,227.46,0.412812
234.7000,-21.0937,227.35,0.411349
234.6000,-21.458,227.538,0.413852
234.5000,-20.5036,227.824,0.417649
234.4000,-20.8075,228.695,0.429211
234.3000,-21.0523,227.907,0.418763
234.2000,-21.6233,228.034,0.420449
234.1000,-22.5768,228.712,0.429436
234.0000,-24.7195,229.043,0.433816
233.9000,-20.8855,229.241,0.436439
233.8000,-22.5654,229.3,0.437218
233.7000,-21.3431,230.137,0.448271
233.6000,-22.0121,229.935,0.445597
233.5000,-23.544,229.792,0.443713
233.4000,-23.8177,229.154,0.435285
233.3000,-25.8557,231.049,0.460273
233.2000,-22.0672,230.431,0.452137
233.1000,-24.524,230.915,0.458501
233.0000,-24.4604,230.415,0.451928
232.9000,-27.3952,230.54,0.453568
232.8000,-26.46,231.588,0.467336
232.7000,-28.5435,231.028,0.45999
232.6000,-27.5027,231.496,0.466133
232.5000,-26.8923,231.362,0.464379
232.4000,-29.1298,231.667,0.468376
232.3000,-26.4817,231.891,0.471316
232.2000,-28.0665,232.03,0.473126
232.1000,-30.5662,233.132,0.48753
232.0000,-30.0385,232.671,0.481512
231.9000,-29.4334,232.144,0.474623
231.8000,-28.5472,233.483,0.492108
231.7000,-31.1136,233.08,0.48685
231.6000,-31.9169,235.616,0.519775
231.5000,-31.0332,234.932,0.510933
231.4000,-32.1484,235.111,0.513252
231.3000,-31.3833,234.181,0.501186
231.2000,-30.9769,234.704,0.507966
231.1000,-32.6149,235.235,0.514851
231.0000,-33.2127,235.343,0.516244
230.9000,-33.48,235.356,0.51642
230.8000,-32.5769,235.685,0.520669
230.7000,-34.2706,235.839,0.522659
230.6000,-36.0392,236.342,0.529151
230.5000,-34.1023,235.215,0.514587
230.4000,-35.6835,236.861,0.535837
230.3000,-33.6387,236.382,0.529663
230.2000,-34.9009,235.779,0.521884
230.1000,-33.2301,236.377,0.529604
230.0000,-37.4285,237.338,0.541971
229.9000,-36.0673,236.997,0.537586
229.8000,-36.9843,236.95,0.536988
229.7000,-36.8679,236.718,0.533999
229.6000,-36.4522,237.186,0.540019
229.5000,-38.2167,237.948,0.549795
229.4000,-40.4705,238.025,0.550782
229.3000,-38.5411,238.012,0.550623
229.2000,-36.3643,237.861,0.54869
229.1000,-38.9129,238.261,0.553817
229.0000,-39.9857,239.442,0.568907
228.9000,-39.2412,238.701,0.559443
228.8000,-40.7537,238.438,0.55608
228.7000,-39.7544,238.94,0.562499
228.6000,-39.5549,240.822,0.586468
228.5000,-42.5887,238.536,0.557327
228.4000,-39.5565,239.79,0.573341
228.3000,-40.2892,240.09,0.577165
228.2000,-40.558,240.862,0.586972
228.1000,-42.393,241.478,0.594787
228.0000,-42.73,242.723,0.610526
227.9000,-42.3028,240.258,0.579298
227.8000,-42.4255,241.006,0.588798
227.7000,-45.3669,243.608,0.621671
227.6000,-43.6467,241.282,0.592304
227.5000,-42.3258,241.304,0.592576
227.4000,-45.0171,242.071,0.602285
227.3000,-47.0618,242.512,0.607853
227.2000,-44.7437,242.482,0.607481
227.1000,-47.5744,243.647,0.622155
227.0000,-45.5018,243.421,0.619319
226.9000,-45.978,244.062,0.627365
226.8000,-46.8298,243.887,0.625174
226.7000,-48.9924,244.307,0.630451
226.6000,-45.8037,245.216,0.641833
226.5000,-44.7243,244.56,0.633619
226.4000,-47.0559,243.954,0.626014
226.3000,-46.6969,244.492,0.632767
226.2000,-48.4968,245.465,0.644949
226.1000,-48.9123,243.799,0.624063
226.0000,-50.2571,245.271,0.642513
225.9000,-51.1204,244.988,0.638984
225.8000,-48.8905,245.759,0.648614
225.7000,-50.2897,245.145,0.64094
225.6000,-47.1916,246.305,0.655426
225.5000,-51.753,246.282,0.655144
225.4000,-49.6283,247.827,0.674339
225.3000,-49.0765,246.375,0.656301
225.2000,-47.0643,248.592,0.683808
225.1000,-52.8108,245.706,0.64795
225.0000,-52.8756,248.741,0.685657
224.9000,-52.5087,248.109,0.677835
224.8000,-50.1908,248.67,0.684775
224.7000,-47.7778,248.796,0.686329
224.6000,-51.8528,249.656,0.696941
224.5000,-48.4403,248.465,0.682239
224.4000,-51.4227,247.638,0.671992
224.3000,-52.0894,249.534,0.695447
224.2000,-49.1981,249.167,0.690919
224.1000,-51.3363,251.293,0.717061
224.0000,-51.2606,249.665,0.697053
223.9000,-51.2508,250.198,0.703623
223.8000,-51.9281,250.375,0.705796
223.7000,-53.8296,250.213,0.703804
223.6000,-53.6527,250.921,0.712504
223.5000,-54.4555,250.933,0.712643
223.4000,-53.7218,251.326,0.717464
223.3000,-56.1302,250.77,0.710654
223.2000,-54.0663,251.38,0.71813
223.1000,-51.745,251.859,0.723998
223.0000,-50.1062,252.029,0.726076
222.9000,-53.3046,252.373,0.730271
222.8000,-52.8466,252.266,0.72897
222.7000,-53.9755,253.328,0.741917
222.6000,-55.2574,254.249,0.753115
222.5000,-54.1959,253.825,0.747968
222.4000,-55.1865,253.987,0.749937
222.3000,-55.6523,253.618,0.745447
222.2000,-53.5079,254.423,0.755232
222.1000,-51.547,253.593,0.745144
222.0000,-54.5954,254.91,0.761124
221.9000,-55.5541,254.7,0.758584
221.8000,-54.5989,255.623,0.769759
221.7000,-53.6154,255.686,0.770512
221.6000,-53.4032,256.282,0.777705
221.5000,-52.3317,256.665,0.78232
221.4000,-49.9046,255.261,0.765375
221.3000,-54.8697,256.413,0.779289
221.2000,-54.0635,256.814,0.784121
221.1000,-54.9149,257.322,0.790225
221.0000,-54.3387,257.603,0.793601
220.9000,-54.8898,258.304,0.802012
220.8000,-52.6188,257.858,0.79666
220.7000,-53.146,258.226,0.801075
220.6000,-52.4074,257.934,0.797571
220.5000,-54.2591,260.036,0.822694
220.4000,-52.1599,259.749,0.819278
220.3000,-52.8354,259.193,0.812638
220.2000,-53.8992,260.279,0.825595
220.1000,-57.7916,259.334,0.81433
220.0000,-54.5306,259.569,0.817129
219.9000,-53.6466,260.283,0.825635
219.8000,-53.628,260.144,0.82399
219.7000,-53.2044,260.841,0.832279
219.6000,-51.8093,261.348,0.838292
219.5000,-54.5956,260.814,0.831956
219.4000,-53.5623,261.23,0.836894
219.3000,-53.344,263.521,0.863985
219.2000,-52.6949,261.232,0.836921
219.1000,-52.2476,262,0.846027
219.0000,-51.9244,261.323,0.837997
218.9000,-57.0298,262.338,0.850022
218.8000,-52.4072,263.998,0.869601
218.7000,-50.2038,262.929,0.85701
218.6000,-54.5626,263.718,0.866307
218.5000,-52.8014,263.762,0.866828
218.4000,-52.2627,265.299,0.884873
218.3000,-52.0115,264.398,0.874304
218.2000,-52.5519,264.034,0.870028
218.1000,-53.7096,264.678,0.877591
218.0000,-51.2811,264.832,0.879399
217.9000,-52.2644,265.938,0.892353
217.8000,-54.3957,264.986,0.881207
217.7000,-54.9876,265.625,0.888694
217.6000,-53.5981,265.71,0.889689
217.5000,-54.1185,268.304,0.919915
217.4000,-52.8078,267.252,0.90769
217.3000,-56.5674,267.081,0.905697
217.2000,-50.2368,267.607,0.911818
217.1000,-54.6969,267.985,0.916218
217.0000,-54.1532,267.782,0.91386
216.9000,-51.115,268.624,0.923635
216.8000,-51.2583,268.726,0.924818
216.7000,-55.3883,269.602,0.934957
216.6000,-54.7387,267.502,0.910605
216.5000,-54.14,269.625,0.935219
216.4000,-54.0772,270.35,0.943593
216.3000,-52.9826,269.585,0.934761
216.2000,-52.8671,271.404,0.955728
216.1000,-54.0084,271.086,0.952078
216.0000,-53.8666,270.234,0.94226
215.9000,-51.8561,272.161,0.96442
215.8000,-52.348,270.997,0.951048
215.7000,-54.1634,271.996,0.962535
215.6000,-53.5556,272.149,0.96429
215.5000,-54.3842,272.537,0.968732
215.4000,-51.8347,273.067,0.974803
215.3000,-52.0728,272.387,0.967018
215.2000,-51.2152,273.802,0.983205
215.1000,-48.8744,272.81,0.97186
215.0000,-51.7019,273.089,0.975049
214.9000,-48.1228,274.024,0.985739
214.8000,-54.1813,274.406,0.990092
214.7000,-53.4625,274.835,0.994968
214.6000,-52.1415,274.896,0.995664
214.5000,-50.3667,274.853,0.995175
214.4000,-53.3847,275.64,1.00412
214.3000,-53.5229,275.339,1.0007
214.2000,-54.0337,275.785,1.00577
214.1000,-51.8602,276.652,1.01559
214.0000,-52.0599,277.186,1.02162
213.9000,-50.0055,277.301,1.02293
213.8000,-54.9192,278.211,1.03319
213.7000,-50.7286,278.779,1.03958
213.6000,-51.3653,278.783,1.03963
213.5000,-57.6071,277.885,1.02951
213.4000,-53.3573,278.773,1.03952
213.3000,-52.9549,279.374,1.04626
213.2000,-55.1412,280.511,1.05901
213.1000,-51.6699,280.047,1.05381
213.0000,-57.8031,278.477,1.03619
212.9000,-51.4022,279.059,1.04273
212.8000,-60.017,280.869,1.06301
212.7000,-51.0149,279.605,1.04886
212.6000,-53.1495,281.495,1.06999
212.5000,-53.4135,282.253,1.07844
212.4000,-55.1577,282.386,1.07993
212.3000,-56.25,282.981,1.08654
212.2000,-55.0584,281.813,1.07354
212.1000,-59.3568,283.014,1.0869
212.0000,-59.1351,284.071,1.09862
211.9000,-54.2049,284.56,1.10403
211.8000,-52.4545,284.842,1.10714
211.7000,-54.1253,285.399,1.1133
211.6000,-58.2298,285.402,1.11332
211.5000,-60.7709,286.631,1.12685
211.4000,-52.6794,286.97,1.13057
211.3000,-50.83,286.861,1.12938
211.2000,-54.6879,287.65,1.13803
211.1000,-55.9385,288.711,1.14964
211.0000,-58.185,288.345,1.14564
210.9000,-54.5572,288.573,1.14813
210.8000,-58.5436,288.959,1.15235
210.7000,-56.3591,289.826,1.1618
210.6000,-55.242,290.475,1.16886
210.5000,-54.1881,290.141,1.16522
210.4000,-60.3986,290.896,1.17342
210.3000,-55.2639,291.441,1.17933
210.2000,-59.4719,292.013,1.18553
210.1000,-50.5894,293.318,1.19962
210.0000,-59.8694,291.788,1.18309
209.9000,-56.2316,293.114,1.19743
209.8000,-54.2108,294.535,1.21272
209.7000,-64.3879,295.601,1.22415
209.6000,-56.0975,295.114,1.21893
209.5000,-63.0248,296.586,1.23468
209.4000,-60.1784,296.495,1.23371
209.3000,-55.9365,296.346,1.23212
209.2000,-60.3647,298.05,1.25028
209.1000,-62.1094,299.088,1.26131
209.0000,-62.6636,298.922,1.25955
208.9000,-57.7036,299.548,1.26618
208.8000,-56.4894,300.635,1.27767
208.7000,-57.2355,301.074,1.28231
208.6000,-58.9748,300.688,1.27824
208.5000,-53.7418,302.013,1.29221
208.4000,-56.2317,302.572,1.29808
208.3000,-60.2988,302.047,1.29256
208.2000,-58.8709,304.78,1.3212
208.1000,-58.6919,304.512,1.3184
208.0000,-58.1071,306.089,1.33484
207.9000,-55.1359,306.463,1.33873
207.8000,-54.5043,306.573,1.33987
207.7000,-52.4658,307.944,1.35408
207.6000,-53.3333,308.266,1.35741
207.5000,-54.9738,309.513,1.37029
207.4000,-53.0058,310.207,1.37743
207.3000,-60.9968,309.436,1.3695
207.2000,-57.0847,311.681,1.39257
207.1000,-51.9298,312.008,1.39592
207.0000,-49.3622,313.139,1.40748
206.9000,-50.1436,311.929,1.39511
206.8000,-48.6793,313.718,1.41338
206.7000,-50.7704,315.182,1.42827
206.6000,-54.0682,314.643,1.42279
206.5000,-54.8406,316.009,1.43666
206.4000,-49.6994,317.463,1.45136
206.3000,-44.2079,319.537,1.47223
206.2000,-52.3284,319.65,1.47336
206.1000,-49.2187,320.276,1.47964
206.0000,-48.732,321.915,1.49602
205.9000,-40.4529,322.47,1.50155
205.8000,-47.157,322.232,1.49918
205.7000,-44.5812,323.879,1.51556
205.6000,-47.1105,324.892,1.5256
205.5000,-40.0034,325.865,1.53521
205.4000,-50.6604,326.916,1.54558
205.3000,-41.1118,327.977,1.55601
205.2000,-38.8951,329.647,1.57237
205.1000,-37.9231,329.456,1.57051
205.0000,-41.9401,331.361,1.5891
204.9000,-41.9282,332.333,1.59855
204.8000,-35.577,333.62,1.61103
204.7000,-36.4878,334.278,1.61739
204.6000,-31.3547,335.636,1.63049
204.5000,-38.761,336.024,1.63422
204.4000,-31.9653,336.802,1.64171
204.3000,-35.8841,338.735,1.66023
204.2000,-25.7182,339.981,1.67212
204.1000,-30.8349,340.972,1.68155
204.0000,-30.288,341.909,1.69044
203.9000,-29.8904,342.953,1.70034
203.8000,-29.1534,344.695,1.71678
203.7000,-26.4806,345.694,1.72618
203.6000,-18.3253,347.156,1.73989
203.5000,-26.8761,349.296,1.75988
203.4000,-15.8695,350.434,1.77046
203.3000,-19.998,350.059,1.76698
203.2000,-18.5935,351.78,1.78295
203.1000,-24.6372,353.882,1.80236
203.0000,-12.1177,355.085,1.81343
202.9000,-10.261,355.978,1.82163
202.8000,-18.7445,357.81,1.83839
202.7000,-16.8174,358.039,1.84048
202.6000,-11.0934,359.914,1.85755
202.5000,-12.8198,360.7,1.86468
202.4000,-18.1009,362.791,1.8836
202.3000,-9.4218,363.178,1.88709
202.2000,-20.1251,364.81,1.90178
202.1000,-6.18432,366.11,1.91343
202.0000,-10.6396,368.249,1.93255
201.9000,2.14957,370.099,1.949
201.8000,4.50458,371.907,1.96501
201.7000,-12.2568,372.69,1.97192
201.6000,-4.65728,374.917,1.99152
201.5000,-7.11765,376.795,2.00797
201.4000,4.74747,377.347,2.01279
201.3000,-2.10615,379.972,2.03565
201.2000,2.48372,381.023,2.04476
201.1000,15.416,382.474,2.05731
201.0000,7.82651,384.517,2.0749
200.9000,4.0703,386.664,2.09331
200.8000,12.7636,387.06,2.0967
200.7000,6.21142,389.457,2.11713
200.6000,0.555118,390.453,2.12559
200.5000,11.5027,392.374,2.14186
200.4000,20.85,395.894,2.17149
200.3000,12.7173,396.796,2.17904
200.2000,14.8406,397.612,2.18586
200.1000,14.6605,400.685,2.21147
200.0000,22.5935,401.803,2.22073
199.9000,23.0955,404.21,2.24062
199.8000,10.6798,406.474,2.25924
199.7000,30.7408,407.773,2.26987
199.6000,9.75765,409.424,2.28335
199.5000,31.5767,412.056,2.30475
199.4000,30.2501,412.003,2.30432
199.3000,19.1638,414.588,2.32524
199.2000,41.0706,415.218,2.33031
199.1000,27.7881,416.629,2.34166
199.0000,34.8928,419.727,2.36647
198.9000,29.8302,421.998,2.38457
198.8000,30.9417,425.305,2.41076
198.7000,32.0743,425.367,2.41125
198.6000,38.582,427.365,2.42699
198.5000,29.7628,430.493,2.45151
198.4000,27.8695,432.257,2.46528
198.3000,35.0463,434.705,2.48429
198.2000,33.6415,436.242,2.49619
198.1000,38.4014,439.16,2.51868
198.0000,36.927,439.966,2.52486
197.9000,34.9966,442.097,2.54118
197.8000,40.1846,444.425,2.55894
197.7000,37.1524,446.22,2.57257
197.6000,30.4121,448.755,2.59174
197.5000,34.8893,451.237,2.61043
197.4000,28.2665,451.887,2.61531
197.3000,37.2383,455.076,2.63916
197.2000,29.2072,456.778,2.65183
197.1000,35.5654,458.634,2.66561
197.0000,44.1486,460.3,2.67793
196.9000,50.5703,462.553,2.69454
196.8000,44.5304,464.972,2.7123
196.7000,33.2989,466.938,2.72667
196.6000,32.1774,469.841,2.74779
196.5000,34.0858,473.202,2.77212
196.4000,41.7414,474.036,2.77813
196.3000,39.5443,476.644,2.79688
196.2000,32.6484,478.593,2.81083
196.1000,14.1069,480.592,2.82509
196.0000,25.4819,485.068,2.85685
195.9000,31.7906,484.688,2.85415
195.8000,44.0761,487.046,2.87079
195.7000,48.2834,490.49,2.89498
195.6000,33.1527,491.682,2.90331
195.5000,35.4725,493.296,2.91457
195.4000,35.3217,495.886,2.93257
195.3000,37.7563,497.265,2.94212
195.2000,45.6522,499.514,2.95765
195.1000,54.0599,501.538,2.97158
195.0000,29.3114,502.885,2.98082
194.9000,28.4453,504.753,2.99361
194.8000,50.4594,506.5,3.00553
194.7000,27.2915,507.803,3.01439
194.6000,35.498,509.751,3.02761
194.5000,37.5037,511.664,3.04055
194.4000,43.4373,512.701,3.04755
194.3000,30.8172,515.867,3.06884
194.2000,43.0252,518.631,3.08734
194.1000,41.165,519.976,3.09631
194.0000,33.3824,521.464,3.10621
193.9000,28.5238,523.916,3.12247
193.8000,44.6136,526.432,3.1391
193.7000,27.5572,528.269,3.15119
193.6000,17.2302,530.85,3.16812
193.5000,37.0499,532.226,3.17711
193.4000,33.8039,533.399,3.18477
193.3000,30.1679,534.231,3.19019
193.2000,41.5083,535.892,3.20099
193.1000,32.7571,537.756,3.21308
193.0000,48.7322,539.934,3.22716
192.9000,44.02,541.516,3.23735
192.8000,29.2572,541.874,3.23966
192.7000,19.1541,544.396,3.25585
192.6000,25.8661,546.857,3.27159
192.5000,29.7778,547.82,3.27773
192.4000,32.0521,551.883,3.30355
192.3000,37.8875,553.029,3.3108
192.2000,26.3439,555.643,3.3273
192.1000,26.4595,556.062,3.32994
192.0000,34.6926,558.604,3.34591
191.9000,35.5122,559.54,3.35177
191.8000,37.117,561.88,3.36639
191.7000,29.6569,563.45,3.37617
191.6000,39.8226,565.167,3.38685
191.5000,41.3582,566.176,3.3931
191.4000,29.8215,569.079,3.41106
191.3000,29.6328,569.661,3.41465
191.2000,30.3644,573.765,3.43988
191.1000,21.1818,576.488,3.45653
191.0000,19.6088,579.536,3.47509
190.9000,46.5606,580.823,3.48291
190.8000,25.4712,583.15,3.497
190.7000,31.0086,585.079,3.50864
190.6000,21.9574,588.474,3.52906
190.5000,18.5928,590.3,3.53999
190.4000,12.5509,592.377,3.5524
190.3000,26.1772,594.406,3.56448
190.2000,30.5519,595.845,3.57303
190.1000,31.8616,598.666,3.58974
190.0000,22.0878,601.233,3.60489

##### Extended Information
[Comments]
Sample name,KMGM_ADDATIVE&PROTEIN_928
Comment,ADDATIVE AND PROTEIN
User,KYLE MURPHY
Division
Company,Saint Mary's College

[Detailed Information]
Creation date,9/28/2022 3:27 PM

Data array type,Linear data array * 3
Horizontal axis,Wavelength [nm]
Vertical axis(1),CD [mdeg]
Vertical axis(2),HT [V]
Vertical axis(3),Abs
Start,320 nm
End,190 nm
Data interval,0.1 nm
Data points,1301    

[Measurement Information]
Instrument name,J-1500
Model name,J-1500
Serial No.,B051061638

Detector,PM-539
Detector S/N,B051061638
  Lock-in amp.,X mode
  HT volt,Auto

Accessory,PTC-517
Accessory S/N,B026561646
  Temperature,27.99 C
  Control sensor,Holder
  Monitor sensor,Holder

Measurement date,9/28/2022 3:27 PM

CD Overload detect,997
Photometric mode,CD, HT, Abs
Measure range,320 - 190 nm
Data pitch,0.1 nm
CD scale,20 mdeg/0.05 dOD
FL scale,20 mdeg/0.05 dOD
D.I.T.,8 msec
Bandwidth,2.00 nm
Start mode,Immediately
Scanning mode,Continuous
Scanning speed,200 nm/min
Baseline correction,None
Shutter control,Auto
No. of cycle,1/1
N2 Flowmeter,Manual

Solvent,NaPO4 buffer

