TITLE,KMGM_BUFFER_928_Averages,,
DATA TYPE,,,
ORIGIN,JASCO,,
OWNER,,,
DATE,22/09/28,,
TIME,15:01:07,,
SPECTROMETER/DATA SYSTEM,,,
LOCALE,1033,,
RESOLUTION,,,
DELTAX,-0.1,,
XUNITS,NANOMETERS,,
YUNITS,CD [mdeg],,
Y2UNITS,HT [V],,
Y3UNITS,ABSORBANCE,,
FIRSTX,320,,
LASTX,190,,
NPOINTS,1301,,
FIRSTY,1.54704,,
MAXY,6.02539,,
MINY,-5.83343,,
XYDATA,,,
320,1.628826667,208.41,0.150074
319.9,1.616463333,208.6773333,0.1538936667
319.8,1.45534,208.9643333,0.1579943333
319.7,1.739476667,208.3123333,0.1486796667
319.6,0.3439680667,208.1943333,0.1469866667
319.5,2.05959,208.455,0.150713
319.4,2.159523333,207.617,0.1386916667
319.3,1.969678,208.203,0.1471116667
319.2,2.071376667,208.5753333,0.1524323333
319.1,1.426519,208.2656667,0.1480096667
319,2.01083,208.729,0.1546326667
318.9,2.16328,208.16,0.146497
318.8,0.8460006667,208.629,0.1531976667
318.7,0.6717896667,208.2796667,0.1482156667
318.6,2.279353333,208.2036667,0.147121
318.5,1.00102188,208.0093333,0.1443173333
318.4,1.780651667,208.4983333,0.1513336667
318.3,1.179973333,208.4143333,0.1501333333
318.2,-0.759307,208.3843333,0.1497073333
318.1,1.459083333,208.1286667,0.1460533333
318,1.408332267,208.1773333,0.1467363333
317.9,0.4599076667,208.399,0.1499166667
317.8,1.943616667,207.8046667,0.1414023333
317.7,1.993963333,208.2816667,0.1482366667
317.6,1.267912333,208.27,0.1480716667
317.5,1.988803667,208.2476667,0.1477496667
317.4,1.443106667,208.482,0.1511013333
317.3,0.1283483333,208.4123333,0.1501066667
317.2,1.822196667,208.2516667,0.1478106667
317.1,1.152579567,207.9976667,0.14417
317,0.6045703333,208.015,0.1444096667
316.9,1.58926,208.204,0.1471246667
316.8,1.007061,208.0583333,0.1450403333
316.7,1.945112667,208.1346667,0.1461353333
316.6,1.145576667,207.873,0.1423846667
316.5,1.937593333,208.1833333,0.1468253333
316.4,1.576909,208.0043333,0.144261
316.3,0.9505783333,208.187,0.1468846667
316.2,1.143366667,207.833,0.141797
316.1,-0.05671533333,208.177,0.146739
316,0.4733533333,207.909,0.1429
315.9,1.527723333,207.829,0.141757
315.8,1.326902,208.0556667,0.1449936667
315.7,1.167238667,208.0893333,0.1454813333
315.6,1.545721333,207.475,0.136679
315.5,1.242033667,207.874,0.1423983333
315.4,1.466075667,207.9623333,0.1436663333
315.3,1.917755,208.5543333,0.1521313333
315.2,0.5019985,207.7736667,0.1409576667
315.1,1.209138667,207.816,0.1415656667
315,1.284608667,207.9416667,0.1433673333
314.9,1.997265667,207.9043333,0.142839
314.8,1.661048333,208.1023333,0.1456693333
314.7,1.646791333,207.9763333,0.1438533333
314.6,0.9615343333,207.7673333,0.140867
314.5,1.483840667,207.813,0.1415243333
314.4,1.68132,208.093,0.1455376667
314.3,1.562428667,207.4486667,0.136295
314.2,1.278469333,207.5736667,0.138087
314.1,1.181272667,208.055,0.1449913333
314,1.276754333,208.029,0.1446193333
313.9,0.995885,207.783,0.14109
313.8,1.022856667,207.7536667,0.1406736667
313.7,1.455381,207.6196667,0.1387503333
313.6,1.63089,207.6563333,0.1392816667
313.5,1.836226,207.5096667,0.1371716667
313.4,1.98199,208.3503333,0.1492166667
313.3,2.218253333,207.961,0.143644
313.2,1.500711667,207.9723333,0.1437996667
313.1,2.049748,207.7036667,0.1399576667
313,1.348337667,207.2376667,0.1332606667
312.9,1.175615667,207.2853333,0.1339553333
312.8,0.834782,207.631,0.1389156667
312.7,1.439403333,207.4243333,0.135946
312.6,0.7580776333,207.2943333,0.134082
312.5,0.7640783333,207.673,0.1395203333
312.4,0.9671333333,207.6706667,0.1394716667
312.3,1.716906667,207.8973333,0.1427263333
312.2,0.5417246667,208.0243333,0.144554
312.1,1.560826,207.371,0.1351836667
312,2.10721,207.4733333,0.1366533333
311.9,2.035124333,207.7063333,0.1399783333
311.8,0.6973866667,207.398,0.135568
311.7,1.894083333,207.7533333,0.1406646667
311.6,1.520346667,207.388,0.135428
311.5,0.672642,207.828,0.1417263333
311.4,1.168073,207.695,0.1398343333
311.3,0.9862883333,207.8883333,0.1426056667
311.2,0.75383,207.7936667,0.1412516667
311.1,0.7185826667,207.71,0.1400496667
311,1.9963,208.3323333,0.14896
310.9,1.107780667,207.9353333,0.1432776667
310.8,1.101421333,207.7993333,0.1413223333
310.7,1.181383,207.6423333,0.1390806667
310.6,2.614653333,207.8726667,0.142362
310.5,2.19648,207.9993333,0.1441863333
310.4,1.154380667,207.8283333,0.141746
310.3,0.556422,207.588,0.1382986667
310.2,1.498694667,207.9253333,0.1431366667
310.1,1.274052,208.0533333,0.1449636667
310,1.342162333,208.0516667,0.1449356667
309.9,0.4688506,208.0093333,0.144338
309.8,1.0949804,207.8163333,0.141571
309.7,1.949039,207.9706667,0.1437856667
309.6,1.105486333,207.9136667,0.142963
309.5,1.687946667,207.8093333,0.1414673333
309.4,0.9123913333,208.055,0.1449933333
309.3,1.192671667,207.6686667,0.1394513333
309.2,1.967273333,208.0023333,0.144218
309.1,0.6678083333,207.889,0.1426176667
309,0.448726,207.7326667,0.1403696667
308.9,0.6251233333,207.2183333,0.1329783333
308.8,0.726845,207.7623333,0.1407986667
308.7,2.3051,207.4413333,0.136197
308.6,1.803486667,207.61,0.1386143333
308.5,1.0792198,207.7376667,0.1404373333
308.4,1.692739333,207.7656667,0.1408386667
308.3,1.341025,207.2626667,0.1336223333
308.2,1.339862333,207.8243333,0.1416856667
308.1,1.302849667,207.3603333,0.1350223333
308,1.081354333,207.891,0.142644
307.9,0.8108315,207.644,0.139102
307.8,1.58255,207.4816667,0.1367713333
307.7,1.508823333,207.5876667,0.1382886667
307.6,1.154672333,207.411,0.1357573333
307.5,1.185399333,207.6863333,0.1397083333
307.4,1.851019,207.7926667,0.1412356667
307.3,1.803256667,207.212,0.1328936667
307.2,0.6297456667,207.7263333,0.140283
307.1,0.04858166667,207.2903333,0.1340286667
307,2.32329,207.279,0.1338503333
306.9,0.9005316667,207.315,0.1343666667
306.8,0.01201633333,207.5106667,0.137185
306.7,1.079171,208.255,0.1478453333
306.6,0.8754856667,207.6716667,0.139493
306.5,0.2973143333,207.5613333,0.137916
306.4,1.413693667,207.932,0.1432326667
306.3,1.259613667,207.604,0.1385263333
306.2,2.003516667,207.5816667,0.1382043333
306.1,1.062185667,207.675,0.1395463333
306,1.072377,207.374,0.135227
305.9,1.703625333,207.7093333,0.1400343333
305.8,0.713147,207.6156667,0.1386963333
305.7,0.7355903333,207.5683333,0.138011
305.6,0.4645633333,207.8756667,0.14242
305.5,1.570182667,207.4516667,0.136333
305.4,0.6940903333,207.258,0.1335573333
305.3,1.045797,207.314,0.13436
305.2,1.318125,207.598,0.138437
305.1,1.052936333,207.752,0.140649
305,1.491164333,207.5253333,0.1373936667
304.9,1.336816667,207.454,0.1363693333
304.8,1.684316667,207.6996667,0.1399036667
304.7,0.4690723333,207.4856667,0.1368306667
304.6,1.319929333,207.4403333,0.136176
304.5,1.443384333,207.278,0.1338476667
304.4,1.243151667,207.1633333,0.1321923333
304.3,1.349501,207.505,0.1370946667
304.2,0.8452586667,206.96,0.129276
304.1,1.427573667,207.6123333,0.1386443333
304,2.685626667,207.8906667,0.142639
303.9,1.251586333,207.3993333,0.1355876667
303.8,1.8234,207.5603333,0.1379016667
303.7,0.9651953333,206.8206667,0.127268
303.6,1.089726,207.0176667,0.1301023333
303.5,2.14688,207.0273333,0.1302443333
303.4,0.6718826667,207.154,0.1320543333
303.3,1.538283,207.4656667,0.1365446667
303.2,1.915912,207.311,0.1343183333
303.1,0.8953420667,207.569,0.1380233333
303,1.352463333,207.53,0.1374503333
302.9,1.131024333,207.1533333,0.1320553333
302.8,1.402773333,207.0653333,0.13079
302.7,0.3642325667,207.5636667,0.1379523333
302.6,1.333332,207.067,0.130814
302.5,1.065984333,207.3816667,0.135338
302.4,0.6678883333,207.2086667,0.1328466667
302.3,0.483865,206.835,0.1274736667
302.2,0.4810633667,207.5673333,0.138001
302.1,1.780033333,207.3936667,0.1355063333
302,1.603686667,207.2813333,0.133894
301.9,1.251302,207.6656667,0.1394076667
301.8,0.3989909667,207.5076667,0.137146
301.7,0.7709236667,207.181,0.132454
301.6,1.675515,206.9243333,0.128761
301.5,1.304459333,207.0456667,0.130509
301.4,1.729953333,207.0543333,0.1306256667
301.3,2.376493333,207.0233333,0.1301803333
301.2,0.7415816333,207.4003333,0.1356026667
301.1,1.172823667,207.147,0.13196
301,1.370628333,207.1906667,0.13259
300.9,1.169080667,206.685,0.12532
300.8,1.301381,207.275,0.133805
300.7,1.161124333,207.013,0.1300376667
300.6,1.8142657,207.4413333,0.1361833333
300.5,1.31978,207.0093333,0.1299793333
300.4,1.417053,206.8686667,0.1279606667
300.3,1.545085,206.7453333,0.126184
300.2,1.1272,207.282,0.1339026667
300.1,1.685894333,207.641,0.1390573333
300,0.5402676667,207.337,0.1346893333
299.9,1.731274,206.8953333,0.12834
299.8,1.645237,207.2173333,0.132965
299.7,0.3637593333,206.9303333,0.128848
299.6,0.9147976667,206.8243333,0.127326
299.5,1.029636,207.3306667,0.1346006667
299.4,0.7399348333,206.8893333,0.1282603333
299.3,1.760070333,207.2726667,0.1337706667
299.2,1.5209,207.209,0.1328553333
299.1,1.097923,207.138,0.1318226667
299,0.8044255333,206.5693333,0.123653
298.9,1.216700667,206.8453333,0.127622
298.8,1.094621667,207.125,0.1316493333
298.7,1.42727,206.8446667,0.127611
298.6,0.7933246667,206.896,0.12835
298.5,1.816601667,207.1166667,0.1315203333
298.4,1.600775667,207.4213333,0.135901
298.3,1.648961,206.437,0.1217416667
298.2,1.776246333,206.535,0.1231573333
298.1,1.003121,206.8483333,0.1276563333
298,1.639025333,206.7606667,0.1264063333
297.9,-0.324626,206.5346667,0.1231516667
297.8,0.08435486667,206.6906667,0.1253973333
297.7,1.897936667,206.627,0.1244733333
297.6,1.285223667,206.975,0.1294886667
297.5,1.309048667,207.1406667,0.1318696667
297.4,1.508188667,207.324,0.1345043333
297.3,0.6558755667,206.9826667,0.1295936667
297.2,1.138048,206.9026667,0.1284563333
297.1,1.708286333,206.856,0.1277763333
297,1.184479333,206.6696667,0.1250866667
296.9,1.080662267,206.6706667,0.1251116667
296.8,0.811973,206.6753333,0.1251643333
296.7,1.091847333,206.7023333,0.1255686667
296.6,1.729786667,206.8243333,0.1273193333
296.5,0.943898,207.104,0.131336
296.4,1.007483667,206.848,0.127661
296.3,0.8155643333,206.5183333,0.122914
296.2,1.395309667,206.6963333,0.1254753333
296.1,0.9473036667,206.7786667,0.1266683333
296,1.445607,206.4966667,0.1226033333
295.9,1.270806333,206.8376667,0.1275113333
295.8,0.6280123333,206.97,0.1294233333
295.7,0.9692516667,206.7073333,0.1256396667
295.6,0.44806,206.8326667,0.1274383333
295.5,1.137556333,207.026,0.1302103333
295.4,1.112047667,206.6013333,0.1241116667
295.3,1.257088333,206.737,0.126064
295.2,-0.029405,206.7186667,0.125798
295.1,0.1671001,206.773,0.1265763333
295,0.319258072,206.8086667,0.127095
294.9,0.6705246667,206.615,0.124308
294.8,1.97547,206.7876667,0.126794
294.7,1.395032667,207.2273333,0.1331213333
294.6,0.739188,206.92,0.1286933333
294.5,0.3906969333,206.5486667,0.1233543333
294.4,1.428539333,206.171,0.1179016667
294.3,0.5929523667,207.102,0.1313143333
294.2,1.234454867,206.3293333,0.1201863333
294.1,1.447299,206.4013333,0.1212263333
294,1.230636333,206.731,0.125966
293.9,0.4066196667,206.3136667,0.1199636667
293.8,1.469672333,206.5876667,0.123911
293.7,1.268635667,207.19,0.1325846667
293.6,2.373516667,206.865,0.1279073333
293.5,-0.02922333333,206.4566667,0.1220256667
293.4,1.524689667,206.874,0.1280366667
293.3,1.751073333,206.6513333,0.1248303333
293.2,1.707053667,206.476,0.1222993333
293.1,0.576141,206.5446667,0.1232963333
293,0.7084306667,206.8813333,0.1281433333
292.9,1.568198467,206.3596667,0.1206286667
292.8,1.319935667,206.5276667,0.1230483333
292.7,1.0911081,206.757,0.1263456667
292.6,1.654503,205.7956667,0.1124883333
292.5,1.466312333,206.5333333,0.1231306667
292.4,1.652989,206.019,0.115713
292.3,0.7194445333,206.48,0.1223646667
292.2,1.958405667,206.2656667,0.119275
292.1,1.89295,205.816,0.11278
292,0.2422066667,206.1946667,0.118248
291.9,1.037937333,205.8073333,0.112658
291.8,1.399240667,205.8336667,0.1130346667
291.7,-0.2925443333,206.216,0.118557
291.6,1.592225,206.307,0.119872
291.5,1.400447333,206.2623333,0.1192206667
291.4,1.052336333,205.9553333,0.11479
291.3,1.950103333,205.8953333,0.113924
291.2,1.869658,206.057,0.1162553333
291.1,2.002603,206.082,0.1166223333
291,1.475784,206.409,0.1213403333
290.9,2.00502,205.6096667,0.1098
290.8,-0.1646646667,205.574,0.109288
290.7,1.593133333,205.644,0.1102916667
290.6,0.30054871,206.0323333,0.1159086667
290.5,0.9586673333,205.8063333,0.1126403333
290.4,1.037146667,206.079,0.116578
290.3,1.040066333,206.0496667,0.1161473333
290.2,1.293204333,206.4853333,0.1224243333
290.1,0.822577,205.4903333,0.1080696667
290,1.189972,206.1916667,0.1182086667
289.9,1.654712333,206.202,0.118357
289.8,1.764857667,206.144,0.117523
289.7,0.5009033333,205.9156667,0.1142146667
289.6,1.357499,206.1973333,0.118288
289.5,1.565785,206.2576667,0.119156
289.4,0.8828354667,206.3953333,0.1211453333
289.3,1.492578333,206.6053333,0.1241683333
289.2,1.324268333,206.433,0.1216886667
289.1,1.411687667,206.356,0.1205763333
289,2.162854667,205.968,0.1149746667
288.9,0.691099,206.226,0.1186983333
288.8,0.5657256667,206.3813333,0.1209353333
288.7,1.532574667,205.8653333,0.1134923333
288.6,1.670903667,206.091,0.1167603333
288.5,1.180343,206.493,0.1225563333
288.4,1.146982333,206.339,0.1203313333
288.3,1.339470667,206.1626667,0.1177813333
288.2,1.031894667,206.216,0.1185553333
288.1,1.236190667,206.2423333,0.1189306667
288,1.904266667,206.1106667,0.117036
287.9,0.7347903333,206.2836667,0.119539
287.8,0.2491353333,206.754,0.126309
287.7,0.9953980667,206.1233333,0.117215
287.6,0.8075316667,205.9323333,0.1144573333
287.5,0.7165053333,206.215,0.1185386667
287.4,1.276609,205.9533333,0.1147643333
287.3,0.5700276667,206.2673333,0.119292
287.2,1.281287333,206.045,0.1160856667
287.1,0.4960966667,206.509,0.122781
287,0.7303846667,206.496,0.1225873333
286.9,1.0654617,206.7496667,0.126244
286.8,-0.552633,205.858,0.1133866667
286.7,1.189183,206.1903333,0.1181786667
286.6,1.022797333,206.5783333,0.1237833333
286.5,1.664997,206.593,0.123992
286.4,0.8429586667,206.3006667,0.1197786667
286.3,1.51759,206.1203333,0.1171803333
286.2,1.246602,206.2693333,0.119326
286.1,1.282126,206.141,0.117474
286,1.117162333,206.4093333,0.121341
285.9,1.899073333,206.4656667,0.122158
285.8,0.496277,206.6586667,0.1249373333
285.7,1.33333,206.4813333,0.1223753333
285.6,2.16909,206.3216667,0.1200783333
285.5,1.05028,206.457,0.1220246667
285.4,1.037540567,206.6493333,0.1248036667
285.3,0.872089,205.848,0.113246
285.2,0.3982783333,206.2493333,0.1190376667
285.1,1.283984333,206.23,0.1187596667
285,1.6285,206.4733333,0.1222546667
284.9,0.5285098667,206.417,0.121458
284.8,0.5485426667,206.096,0.116831
284.7,-0.8338016,205.776,0.112205
284.6,0.1848413333,205.5046667,0.1082823333
284.5,0.7095756667,206.1036667,0.116931
284.4,0.4454586667,206.5656667,0.123599
284.3,1.640546667,205.6496667,0.1103726667
284.2,1.417219667,206.1733333,0.117941
284.1,1.097906333,206.0923333,0.116771
284,1.382851333,205.8923333,0.1138843333
283.9,1.275735,206.5293333,0.123076
283.8,-0.1454097,205.9496667,0.1147143333
283.7,1.688703333,206.02,0.1157286667
283.6,0.9056146667,206.3823333,0.120953
283.5,1.000556333,206.0886667,0.116721
283.4,0.827958,206.358,0.1206016667
283.3,1.490759467,206.524,0.1230006667
283.2,1.422376667,205.989,0.1152796667
283.1,0.86628,206.1883333,0.118154
283,0.4598973333,206.2596667,0.1191803333
282.9,1.92038,205.9533333,0.1147696667
282.8,0.4686126667,205.9363333,0.114523
282.7,1.133018,206.1986667,0.1183056667
282.6,0.7000366667,206.38,0.1209226667
282.5,0.3332546667,205.8536667,0.1133045667
282.4,0.7977139,206.4176667,0.121463
282.3,0.8575493333,206.0816667,0.1166153333
282.2,0.3573873333,206.0133333,0.1156243333
282.1,1.17919,206.4873333,0.1224686667
282,0.7596126667,206.0916667,0.116755
281.9,1.026109333,206.0213333,0.1157453333
281.8,1.317246667,206.5803333,0.1238123333
281.7,0.4307356667,206.141,0.117468
281.6,0.7981886667,206.2003333,0.1183286667
281.5,0.183102,205.9406667,0.1145676667
281.4,0.6719626667,206.586,0.1238903333
281.3,0.5291663333,206.0513333,0.1161813333
281.2,1.411757,206.272,0.119362
281.1,1.072396433,206.1346667,0.1173806667
281,1.804275667,206.2406667,0.118911
280.9,0.8970483333,206.6916667,0.1254116667
280.8,1.470435333,206.4513333,0.1219506667
280.7,0.8544953333,206.327,0.1201326667
280.6,0.364925,206.535,0.1231596667
280.5,0.4188666667,205.8686667,0.1135466667
280.4,1.486001333,206.4923333,0.122514
280.3,0.961922,205.7913333,0.1124213333
280.2,1.322764667,206.3006667,0.119766
280.1,0.025398,206.2076667,0.118424
280,0.418895,206.8776667,0.1280906667
279.9,0.1093545,206.974,0.1294746667
279.8,-0.03208966667,206.4473333,0.1218833333
279.7,1.021197333,206.897,0.1283716667
279.6,1.319945,206.1566667,0.1177066667
279.5,0.6435492667,205.7103333,0.111251
279.4,0.4769040333,206.705,0.1256076667
279.3,1.03801,206.2786667,0.1194633333
279.2,1.395712,206.1906667,0.118186
279.1,0.149707,206.497,0.1226103333
279,1.844936667,206.7253333,0.125884
278.9,0.07977266667,206.7906667,0.126841
278.8,1.294723333,206.946,0.129066
278.7,1.413489333,206.0836667,0.1166436667
278.6,1.17387,206.1983333,0.118303
278.5,0.8872183333,206.3083333,0.1198833333
278.4,0.545138,205.8686667,0.113546
278.3,0.6283233333,206.673,0.1251246667
278.2,1.804246667,206.7986667,0.1269326667
278.1,-0.07254,206.335,0.1202693333
278,0.08560036667,206.5683333,0.123633
277.9,1.084649,206.2006667,0.1183396667
277.8,1.069866,205.9683333,0.1149776667
277.7,1.67575,206.288,0.119588
277.6,0.694894,206.2376667,0.1188653333
277.5,0.5782553333,206.7426667,0.1261363333
277.4,-0.4259683,205.945,0.1146242667
277.3,0.5310356667,205.9776667,0.1151183333
277.2,0.5164613333,206.169,0.117872
277.1,0.3473066667,206.4653333,0.1221533333
277,1.121140667,206.7093333,0.1256526667
276.9,1.436885667,206.4926667,0.122548
276.8,0.7800513333,205.8193333,0.1128233333
276.7,1.046752033,205.8803333,0.1137103333
276.6,1.516532667,206.349,0.120476
276.5,0.5106243333,206.4136667,0.1214063333
276.4,1.742506667,206.718,0.1257923333
276.3,0.708167,206.1763333,0.117988
276.2,0.7190243333,206.803,0.1270073333
276.1,0.761275,206.1373333,0.1174236667
276,0.6333324333,206.4833333,0.122401
275.9,1.120895667,207.079,0.1309613333
275.8,1.878757667,206.5043333,0.122713
275.7,0.816511,206.0096667,0.115581
275.6,0.04517666667,205.8003333,0.1125483333
275.5,0.942453,206.3586667,0.1206066667
275.4,0.7940183267,206.1386667,0.1174396667
275.3,0.4556362667,206.8273333,0.1273436667
275.2,0.6132526667,206.269,0.119318
275.1,0.991368,206.765,0.1264633333
275,0.5190323333,205.9306667,0.1144366667
274.9,0.2183333333,206.1006667,0.11688
274.8,0.209183,206.953,0.129166
274.7,1.396763333,205.8186667,0.1128103333
274.6,0.9380506667,206.8316667,0.127429
274.5,0.8612873333,206.448,0.121908
274.4,0.5146443333,206.3693333,0.1207696667
274.3,1.283186,206.384,0.1209793333
274.2,0.09099533333,206.97,0.1294143333
274.1,0.6873666667,206.557,0.1234746667
274,-0.5075736667,206.6126667,0.124273
273.9,0.7763163333,206.8196667,0.1272546667
273.8,1.222558667,206.715,0.125747
273.7,0.8157083333,206.314,0.1199723333
273.6,1.330038333,206.6426667,0.1247013333
273.5,0.139569,206.582,0.1238223333
273.4,1.325153333,206.74,0.12611
273.3,0.6370024333,206.5066667,0.1227496667
273.2,1.132647333,205.903,0.114032
273.1,0.4945029,206.4256667,0.1215756667
273,0.03891566667,206.7413333,0.1261273333
272.9,1.754821667,207.2093333,0.132859
272.8,1.036358,206.7503333,0.1262586667
272.7,0.8505876667,206.498,0.1226186667
272.6,1.302272667,206.5026667,0.1226836667
272.5,0.8150113333,206.363,0.1206716667
272.4,1.229765333,206.6683333,0.1250683333
272.3,1.248701333,206.5093333,0.122789
272.2,1.076510667,206.6136667,0.124285
272.1,1.012407,206.4423333,0.1218193333
272,1.489605667,206.704,0.1255893333
271.9,0.1051613333,206.7193333,0.1258116667
271.8,0.3920333333,206.6026667,0.1241316667
271.7,1.561833333,206.3233333,0.1201046667
271.6,0.996431,206.6333333,0.1245746667
271.5,1.267821333,207.1786667,0.1324183333
271.4,1.278709,206.519,0.122924
271.3,0.6279886667,206.609,0.12422
271.2,0.9885046667,206.5633333,0.1235686667
271.1,0.810681,206.549,0.1233556667
271,1.32101,206.6636667,0.125007
270.9,1.4223078,206.7136667,0.1257246667
270.8,1.103240333,206.819,0.1272186667
270.7,0.359769,207.0413333,0.1304353333
270.6,1.649169667,206.468,0.1221826667
270.5,0.6367144,207.155,0.1320753333
270.4,1.315168,206.479,0.1223473333
270.3,-0.027901,206.586,0.123884
270.2,1.817423333,206.859,0.1278153333
270.1,0.7070006667,207.02,0.130134
270,1.697153333,206.986,0.129646
269.9,0.39113,206.5976667,0.1240576667
269.8,0.5937459,206.5653333,0.1235953333
269.7,1.161545,206.4273333,0.1215933333
269.6,0.5845456667,206.9166667,0.128649
269.5,0.1830856667,207.1926667,0.1326223333
269.4,0.9297236667,207.1596667,0.1321276667
269.3,0.7481251,207.4406667,0.1361796667
269.2,0.241218,206.8373333,0.127514
269.1,0.1893296,207.1713333,0.1323163333
269,1.115113333,207.3743333,0.1352286667
268.9,1.509586,206.7516667,0.1262626667
268.8,1.224746333,207.2536667,0.133483
268.7,-0.04519666667,206.664,0.1250133333
268.6,0.634908,207.2226667,0.1330513333
268.5,1.327065,207.4163333,0.1358303333
268.4,-0.2031713333,207.302,0.134189
268.3,0.7357343333,207.4536667,0.1363663333
268.2,0.25202,207.08,0.131003
268.1,0.6602046667,207.4603333,0.1364693333
268,0.743748,207.6843333,0.1396806667
267.9,-0.2276982667,207.5516667,0.137773
267.8,-0.2737713333,207.534,0.1375256667
267.7,0.5438399333,207.469,0.136583
267.6,0.916731,207.713,0.1400843333
267.5,0.6019203333,207.078,0.1309646667
267.4,0.263991,207.215,0.1329366667
267.3,0.9328156667,207.782,0.1410716667
267.2,0.3791089333,207.732,0.1403553333
267.1,0.588872,207.712,0.1400743333
267,0.4028774967,207.659,0.1393183333
266.9,0.5156096667,207.4976667,0.1370036667
266.8,1.516131667,207.617,0.1387176667
266.7,0.4052113333,207.695,0.1398256667
266.6,0.7993606667,207.7213333,0.140206
266.5,0.5486513333,207.4386667,0.1361513333
266.4,0.6860786667,208.2023333,0.1471073333
266.3,1.097937667,207.898,0.1427466667
266.2,0.5521536667,207.927,0.1431553333
266.1,-0.1278094333,208.16,0.146491
266,1.521646667,208.38,0.149648
265.9,0.8854813333,208.2356667,0.147572
265.8,1.170611533,208.1226667,0.1459586667
265.7,0.457854,208.4833333,0.1511206667
265.6,0.5015013333,208.0373333,0.1447286667
265.5,1.61604,208.1303333,0.146068
265.4,-0.0308721,208.1793333,0.1467726667
265.3,1.832401,208.127,0.1460243333
265.2,-0.3133479,208.153,0.1463946667
265.1,0.07705493333,208.146,0.1462963333
265,0.4455838333,208.0516667,0.1449446667
264.9,-0.1679213333,208.595,0.1527193333
264.8,0.8389573333,208.193,0.146969
264.7,1.163393333,208.6193333,0.1530633333
264.6,0.5247686667,208.4526667,0.150684
264.5,0.5001455667,208.1233333,0.1459703333
264.4,0.730744,208.0346667,0.1446956667
264.3,0.368243,208.3936667,0.1498406667
264.2,0.6956993333,208.007,0.1443
264.1,-0.2315253333,208.401,0.1499426667
264,1.048361667,208.0356667,0.1447173333
263.9,0.5472782667,208.36,0.149356
263.8,0.67903,208.5193333,0.1516396667
263.7,0.6303283333,208.5063333,0.1514463333
263.6,1.246368667,208.4253333,0.150292
263.5,1.280817133,208.7226667,0.1545436667
263.4,0.6017771667,208.534,0.1518503333
263.3,0.9082946667,208.3953333,0.1498596667
263.2,-0.021875,208.5966667,0.152742
263.1,0.5600043333,209.05,0.1592183333
263,0.3127883333,208.7196667,0.154499
262.9,0.7211206667,208.4413333,0.150517
262.8,1.43728,208.5726667,0.152394
262.7,0.6844956667,208.886,0.1568796667
262.6,2.223213333,208.792,0.155537
262.5,0.3849696667,208.9816667,0.1582406667
262.4,1.302168,209.1693333,0.1609093333
262.3,0.5690695667,208.8403333,0.1562216667
262.2,0.55685,209.2843333,0.1625576667
262.1,1.759949667,209.0653333,0.1594296667
262,0.1946766667,209.1063333,0.1600113333
261.9,0.1328093333,209.377,0.1638756667
261.8,0.337944,208.9973333,0.158462
261.7,0.03189866667,209.19,0.161209
261.6,0.3931476667,209.178,0.161038
261.5,-0.683176,209.0033333,0.1585493333
261.4,0.3567736667,209.4933333,0.1655306667
261.3,0.560221,208.7856667,0.1554413333
261.2,0.7285586333,209.236,0.1618663333
261.1,0.7962913333,209.1253333,0.1602883333
261,0.516308,208.999,0.1584773333
260.9,0.8907103733,209.2553333,0.1621376667
260.8,1.042479667,209.2823333,0.1625286667
260.7,0.3003700333,209.5003333,0.1656336667
260.6,0.9189393333,209.494,0.165549
260.5,0.9408033333,209.1493333,0.1606316667
260.4,0.1266173333,209.613,0.1672433333
260.3,0.1455506667,209.119,0.1601966667
260.2,1.095269767,209.062,0.159382
260.1,0.125342,209.397,0.1641653333
260,0.372995,209.5663333,0.1665743333
259.9,-0.1709177067,209.2156667,0.1615763333
259.8,0.9484436667,209.7493333,0.1691786667
259.7,1.157194333,209.9026667,0.171357
259.6,0.8467073333,209.861,0.1707676667
259.5,0.2631346667,209.6576667,0.1678783333
259.4,0.5937346667,210.0593333,0.173582
259.3,-0.4960991333,210.078,0.173848
259.2,0.969194,209.533,0.166096
259.1,1.236255333,209.8156667,0.1701243333
259,0.7834853333,209.958,0.1721396667
258.9,0.4982533333,209.535,0.166128
258.8,1.119781,210.2666667,0.1765263333
258.7,1.338259333,209.8506667,0.1706143333
258.6,1.119914333,210.095,0.174092
258.5,1.090913333,209.937,0.1718483333
258.4,0.8019411,210.0493333,0.173448
258.3,0.712625,210.1246667,0.174508
258.2,1.049773333,210.2993333,0.1769846667
258.1,0.833479,209.9836667,0.172513
258,0.045032,210.0023333,0.172773
257.9,0.3603386667,210.156,0.174945
257.8,0.6134613,210.319,0.177277
257.7,0.9621763333,210.194,0.175496
257.6,0.06925166667,210.412,0.1785916667
257.5,2.317946667,210.652,0.1819983333
257.4,0.11986,210.8286667,0.1845023333
257.3,1.573717667,210.476,0.1795006667
257.2,0.566895,210.4943333,0.179758
257.1,0.4467476667,210.583,0.1810186667
257,0.2627933333,210.012,0.172904
256.9,0.5262396667,210.6416667,0.1818536667
256.8,0.21489812,210.5016667,0.1798653333
256.7,0.7303263333,210.32,0.177283
256.6,0.6359083333,210.5103333,0.1799883333
256.5,1.674559,210.6103333,0.1814003333
256.4,0.994211,210.6136667,0.181452
256.3,0.1708343333,210.9723333,0.1865356667
256.2,1.277765,210.536,0.180354
256.1,0.8002156667,210.9923333,0.1868246667
256,0.2215266667,211.1373333,0.1888706667
255.9,0.008432,210.7033333,0.182723
255.8,0.1225446667,210.9286667,0.1859213333
255.7,1.227130333,210.899,0.185498
255.6,2.143357333,210.6066667,0.1813486667
255.5,1.387606333,210.877,0.1851876667
255.4,0.2830883333,210.6793333,0.1823813333
255.3,1.134941,210.666,0.1821953333
255.2,1.236324933,211.05,0.187632
255.1,0.5243373333,211.1833333,0.189523
255,1.168369,211.5156667,0.1942193333
254.9,1.732903333,211.0376667,0.1874616667
254.8,0.928562,211.226,0.190128
254.7,0.2994768667,211.2573333,0.1905703333
254.6,1.145363667,210.914,0.1857086667
254.5,1.196456667,211.1166667,0.188583
254.4,0.859031,211.585,0.1951953333
254.3,0.04345633333,211.284,0.1909433333
254.2,0.6188466667,211.1306667,0.1887743333
254.1,0.745134,211.523,0.194325
254,0.8923066667,211.3936667,0.1924916667
253.9,1.007428667,211.451,0.1933076667
253.8,0.3829266667,211.354,0.191939
253.7,0.915881,211.6443333,0.1960413333
253.6,0.8238506667,211.5393333,0.1945536667
253.5,-0.01145933333,211.4603333,0.1934386667
253.4,-0.3061056667,211.8553333,0.1990146667
253.3,0.8027816667,211.936,0.200158
253.2,0.7218133333,211.801,0.198248
253.1,0.7520642667,212.05,0.201761
253,0.1515136667,211.5866667,0.195221
252.9,1.4676908,211.7526667,0.197572
252.8,0.5959116667,212.1726667,0.203483
252.7,1.021500333,211.8063333,0.198327
252.6,1.058352333,211.821,0.1985376667
252.5,1.060697333,212.413,0.2068753333
252.4,0.2975643333,212.1576667,0.203272
252.3,1.756523667,211.9886667,0.200903
252.2,1.223825,212.1623333,0.203341
252.1,0.6330363667,211.7186667,0.1970843333
252,0.302042,211.9503333,0.200354
251.9,1.288833333,212.1846667,0.2036613333
251.8,-0.1558686667,211.999,0.2010473333
251.7,-0.5029503333,212.538,0.20864
251.6,1.139748333,212.4806667,0.207832
251.5,1.984576667,212.555,0.2088786667
251.4,0.4353107333,212.082,0.2022186667
251.3,0.2185163333,212.3886667,0.2065366667
251.2,0.82109,212.8383333,0.2128603333
251.1,0.260297,212.3083333,0.2054066667
251,0.5970686667,212.1563333,0.2032623333
250.9,0.6477816667,212.4216667,0.207003
250.8,0.6236326667,212.3736667,0.2063223333
250.7,0.9132536667,212.4643333,0.207601
250.6,0.7324686667,212.49,0.2079646667
250.5,1.188075,213.196,0.2178876667
250.4,0.5774526667,212.757,0.2117166667
250.3,1.580666667,212.7776667,0.212014
250.2,1.399245667,213.059,0.215963
250.1,0.504268,212.879,0.2134316667
250,0.8531163333,212.5493333,0.2087926667
249.9,1.392068667,212.9806667,0.2148633333
249.8,0.4400706667,213.0986667,0.21652
249.7,0.8248696667,213.0156667,0.2153523333
249.6,0.911284,212.5636667,0.2090023333
249.5,-0.27436,213.037,0.215654
249.4,0.5005946667,213.381,0.2204736667
249.3,1.554905667,212.611,0.2096623333
249.2,1.394847667,212.9066667,0.213825
249.1,0.409205,213.0876667,0.2163653333
249,0.419173,212.833,0.212789
248.9,0.8644276667,212.928,0.214125
248.8,1.158557667,213.1213333,0.216835
248.7,1.870216667,213.1836667,0.2177123333
248.6,0.2782153333,213.5313333,0.2225873333
248.5,0.8990466667,213.3,0.2193453333
248.4,1.043238,212.6726667,0.2105273333
248.3,-0.326864,213.4626667,0.2216233333
248.2,1.211919667,213.1176667,0.2167796667
248.1,-0.148258,213.1403333,0.2171023333
248,0.6343613333,213.032,0.2155856667
247.9,0.5977323333,213.2656667,0.2188596667
247.8,0.588979,213.4196667,0.2210253333
247.7,0.955858,213.48,0.2218723333
247.6,1.388440667,213.583,0.2233046667
247.5,0.4280653333,213.4496667,0.2214436667
247.4,0.676301,213.7293333,0.225365
247.3,1.3964,213.6873333,0.2247713333
247.2,0.1510883333,213.541,0.2227223333
247.1,0.9432029667,213.8866667,0.2275676667
247,1.287378412,213.9613333,0.228612
246.9,0.9164233333,213.9413333,0.228332
246.8,-0.07989366667,213.991,0.2290213333
246.7,0.5340336667,214.1423333,0.231143
246.6,1.276827667,213.8033333,0.2264033333
246.5,0.5799274333,213.5,0.2221496667
246.4,0.4912499333,213.9633333,0.2286346667
246.3,1.37899,214.1903333,0.2318133333
246.2,1.093330667,214.713,0.2391156667
246.1,0.633124,213.655,0.2243223333
246,0.1885956667,213.9936667,0.2290586667
245.9,0.1449819667,213.967,0.2286826667
245.8,0.4839203333,214.4356667,0.2352446667
245.7,0.98259,213.6866667,0.224764
245.6,0.3829093333,214.201,0.2319616667
245.5,0.7730413333,214.353,0.234087
245.4,0.6741866667,214.3196667,0.233623
245.3,0.6034743333,214.4236667,0.2350766667
245.2,1.0122235,214.6713333,0.238538
245.1,1.089588333,213.992,0.2290463333
245,1.015348333,213.8853333,0.2275383333
244.9,1.247485,215.0656667,0.2440286667
244.8,0.3723126667,214.2003333,0.231954
244.7,0.9142913,214.544,0.236759
244.6,0.4464143333,214.5523333,0.236877
244.5,0.970744,214.8213333,0.24063
244.4,0.6416546667,214.9186667,0.241984
244.3,0.01370033333,214.6753333,0.238591
244.2,0.3303786667,214.6066667,0.2376316667
244.1,0.7463396667,214.714,0.2391343333
244,0.2702537,214.2673333,0.2328826667
243.9,0.7752576667,214.3826667,0.2345063333
243.8,1.142347,215.075,0.2441696667
243.7,0.9720463333,215.2153333,0.246122
243.6,1.687489667,214.8113333,0.240493
243.5,0.45347,215.303,0.2473386667
243.4,1.028852333,214.9456667,0.242363
243.3,-0.8275563333,215.529,0.2504846667
243.2,0.707193,215.1803333,0.245634
243.1,0.986673,215.075,0.2441643333
243,1.28899,215.281,0.247037
242.9,0.45656,214.766,0.239861
242.8,0.7135836667,215.1613333,0.2453683333
242.7,1.217543667,215.3233333,0.2476253333
242.6,0.9605683333,215.5853333,0.2512716667
242.5,1.032778467,215.2486667,0.2465873333
242.4,-0.0159095,215.4773333,0.2497696667
242.3,0.11006,215.4513333,0.249408
242.2,2.026678,215.7473333,0.253529
242.1,0.02453666667,215.9556667,0.256423
242,1.042483333,215.7346667,0.2533443333
241.9,0.5853356667,215.4606667,0.2495383333
241.8,-0.336815,215.99,0.256894
241.7,1.024428,215.698,0.252831
241.6,0.02629833333,215.8673333,0.2551943333
241.5,-0.09501433333,216.2016667,0.2598333333
241.4,0.076902,215.9163333,0.255872
241.3,-0.1495666667,216.2243333,0.260147
241.2,0.5782166667,216.515,0.2641746667
241.1,0.5685365667,216.7173333,0.2669763333
241,-0.006552666667,216.8803333,0.2692413333
240.9,0.1221043333,216.5363333,0.2644766667
240.8,0.5793936667,216.509,0.2640933333
240.7,-0.258967,216.5116667,0.2641343333
240.6,0.5499963333,216.628,0.265748
240.5,1.723776667,217.0256667,0.271255
240.4,1.050700667,216.5546667,0.2647263333
240.3,-0.04126033333,216.352,0.261914
240.2,0.5621811333,217.16,0.2731043333
240.1,0.789144,216.941,0.2700783333
240,0.180647,216.9663333,0.270429
239.9,0.954367,216.5783333,0.2650583333
239.8,1.656055,217.2616667,0.274511
239.7,0.135237,217.3086667,0.2751643333
239.6,0.38096,217.5386667,0.2783406667
239.5,1.512402667,217.4506667,0.2771276667
239.4,0.211452,217.4033333,0.27647
239.3,1.198941333,217.436,0.2769233333
239.2,0.8529736667,217.132,0.2727226667
239.1,0.9536073333,217.9053333,0.283398
239,0.4098653333,217.1496667,0.2729633333
238.9,0.07143726667,217.7936667,0.2818613333
238.8,1.682876,217.998,0.2846763333
238.7,1.056683,217.3476667,0.275702
238.6,0.7489283333,217.813,0.2821233333
238.5,0.461671,217.812,0.2821133333
238.4,0.351309,217.973,0.2843323333
238.3,1.601883333,218.2883333,0.2886733333
238.2,0.7136073333,218.037,0.2852046667
238.1,0.4221803333,217.999,0.284692
238,0.1471133333,218.5506667,0.2922913333
237.9,1.512029333,218.311,0.2889856667
237.8,0.7367173333,218.5406667,0.2921513333
237.7,0.659166,218.754,0.295079
237.6,0.971943,218.5443333,0.292197
237.5,1.003471333,218.698,0.294303
237.4,-0.2247223333,219.1036667,0.299888
237.3,0.914021,218.6646667,0.2938546667
237.2,1.516641333,219.0756667,0.2994903333
237.1,1.085414333,218.706,0.294426
237,2.085026667,219.269,0.302151
236.9,0.1581793333,219.505,0.305388
236.8,0.4130443333,219.7003333,0.3080456667
236.7,1.104954,219.384,0.3037283333
236.6,0.560132,219.395,0.303872
236.5,0.518162,219.6806667,0.307794
236.4,0.3389333333,219.6153333,0.3068973333
236.3,1.013082667,219.5736667,0.3063306667
236.2,-0.01403533333,219.63,0.3071013333
236.1,0.725027,219.672,0.307676
236,0.558954,219.9486667,0.311459
235.9,0.9809903333,219.6383333,0.3072153333
235.8,0.476397,219.5243333,0.3056503333
235.7,0.4119166667,219.6693333,0.3076446667
235.6,0.1933283333,220.143,0.3141103333
235.5,1.706063333,220.3616667,0.3171123333
235.4,-0.09299863333,220.3396667,0.31681
235.3,1.611121,220.33,0.31668
235.2,2.036866667,220.2396667,0.315442
235.1,1.366006,220.6783333,0.321434
235,1.287277,220.4583333,0.318434
234.9,0.7272343333,220.7393333,0.3222636667
234.8,1.134899,220.6313333,0.320781
234.7,1.257668,220.869,0.3240356667
234.6,1.066104667,220.914,0.324643
234.5,0.912576,220.6903333,0.321598
234.4,1.495938333,220.903,0.3244983333
234.3,1.230402333,221.3543333,0.330639
234.2,1.043513,221.552,0.3333253333
234.1,1.763448,221.141,0.3277416667
234,0.5080266667,221.093,0.3270826667
233.9,0.8932853333,221.4113333,0.3314226667
233.8,1.268105667,221.273,0.3295373333
233.7,0.3755676667,221.4173333,0.3315003333
233.6,1.696477,221.6773333,0.3350246667
233.5,1.910192333,222.0726667,0.340399
233.4,0.965742,221.5563333,0.33339
233.3,0.232857,222.0853333,0.340575
233.2,1.338459,221.5313333,0.3330463333
233.1,1.84136,222.1396667,0.3413183333
233,0.5177866667,222.5893333,0.34741
232.9,1.549012,222.1526667,0.3414896667
232.8,0.4146953333,222.7106667,0.349053
232.7,1.362856667,222.2366667,0.342633
232.6,-0.01742466667,222.7146667,0.3491046667
232.5,1.640392,222.347,0.344127
232.4,1.700652333,222.773,0.349904
232.3,0.6580686667,222.589,0.347412
232.2,0.790697,223.092,0.3542176667
232.1,1.914933667,222.813,0.3504456667
232,1.920341,223.4366667,0.3588766667
231.9,1.193947333,222.9693333,0.3525566667
231.8,0.8688043333,222.8376667,0.3507766667
231.7,2.125773667,223.6223333,0.361374
231.6,0.740551,223.777,0.3634656667
231.5,0.943569,223.217,0.3559076667
231.4,0.2683566667,223.313,0.357203
231.3,0.905699,223.491,0.3596063333
231.2,1.322788667,223.57,0.3606743333
231.1,0.424955,223.283,0.3568006667
231,0.08462333333,223.7943333,0.3637043333
230.9,0.324526,224.1336667,0.368275
230.8,0.3946252667,223.649,0.3617433333
230.7,0.8225016667,223.7923333,0.3636786667
230.6,1.441023333,223.722,0.3627253333
230.5,1.726313667,223.917,0.3653576667
230.4,0.8229366667,223.9406667,0.3656683333
230.3,0.1630866667,224.078,0.3675286667
230.2,0.9120131333,224.397,0.3718183333
230.1,0.994919,224.5066667,0.3732973333
230,-0.491515,224.0476667,0.3671123333
229.9,1.435568,224.569,0.374138
229.8,1.179918,224.8786667,0.3782976667
229.7,0.5667733333,224.4886667,0.3730506667
229.6,2.689,224.5423333,0.3737773333
229.5,0.3042443333,224.4806667,0.3729396667
229.4,1.159219667,223.8493333,0.364443
229.3,0.98043,224.6933333,0.375808
229.2,0.5958886333,224.652,0.3752473333
229.1,0.4940526667,224.7756667,0.3769153333
229,0.93442,225.0746667,0.3809323333
228.9,0.5658030667,225.164,0.3821296667
228.8,0.6336913333,225.2123333,0.3827796667
228.7,0.8313943333,225.3453333,0.3845626667
228.6,0.9685436667,225.1366667,0.3817633333
228.5,0.3879850333,225.0466667,0.380548
228.4,1.16214,225.926,0.3923436667
228.3,-0.04510206667,225.7416667,0.38987
228.2,1.161284,225.9523333,0.392691
228.1,1.583449333,226.158,0.3954446667
228,1.920567,226.3446667,0.3979366667
227.9,0.8123259333,226.1836667,0.3957936667
227.8,-0.05532333333,226.5363333,0.4004986667
227.7,1.073681,226.927,0.4057116667
227.6,1.38859,226.5563333,0.4007676667
227.5,0.6381836667,226.7683333,0.4035953333
227.4,-0.19738,227.266,0.4102166667
227.3,1.202204667,227.2676667,0.410242
227.2,1.034970333,226.6656667,0.402225
227.1,0.5073648,227.4923333,0.413241
227,1.56146,227.5516667,0.414028
226.9,-0.707871,227.5806667,0.4144193333
226.8,1.924063333,227.7516667,0.4166916667
226.7,-0.1849833333,228.2096667,0.4227686667
226.6,1.485119333,227.3843333,0.4118036667
226.5,-0.101234,227.5243333,0.4136696667
226.4,1.09348,228.3346667,0.4244266667
226.3,0.4084073333,227.907,0.418755
226.2,0.7209906667,227.9866667,0.4198136667
226.1,1.300166,228.2076667,0.4227483333
226,0.45193,228.66,0.428742
225.9,0.9555746667,228.345,0.424569
225.8,1.1078051,228.68,0.4289953333
225.7,1.322849,228.6903333,0.4291433333
225.6,0.9667060333,229.1876667,0.4357343333
225.5,0.7905696667,229.145,0.4351673333
225.4,0.8190765667,229.1233333,0.4348796667
225.3,1.034802667,229.5413333,0.4404056667
225.2,1.087719,229.1943333,0.4358236667
225.1,2.225958667,229.6496667,0.4418386667
225,1.096689,229.459,0.4393143333
224.9,1.913494,229.811,0.443966
224.8,0.7621666667,229.758,0.44326
224.7,0.9767156667,229.8306667,0.4442256667
224.6,1.014407,229.487,0.4396876667
224.5,1.4767102,230.2456667,0.4496926667
224.4,1.685071333,230.0136667,0.446637
224.3,0.6185173333,230.239,0.4496026667
224.2,0.4063866667,230.4926667,0.4529503333
224.1,1.060046,230.519,0.4532996667
224,1.250433,230.1776667,0.4487956667
223.9,2.376393333,230.0113333,0.4466033333
223.8,2.357646667,230.2236667,0.44941
223.7,1.025540333,230.717,0.455899
223.6,0.6764326667,230.7946667,0.4569256667
223.5,0.89809,231.3543333,0.464272
223.4,-0.135972,231.6293333,0.4678803333
223.3,1.623698,231.2173333,0.4624706667
223.2,0.9623373333,231.8216667,0.4704033333
223.1,1.421772333,231.7343333,0.469255
223,0.5483733333,230.67,0.455279
222.9,0.2572216667,231.7763333,0.469801
222.8,1.478209667,231.8513333,0.4707886667
222.7,0.6327973333,232.366,0.477527
222.6,1.273530667,231.257,0.4629933333
222.5,1.627713333,231.7966667,0.4700676667
222.4,2.13894,232.1793333,0.4750843333
222.3,0.481366,232.147,0.4746626667
222.2,2.517791,232.4126667,0.4781373333
222.1,0.1299706667,232.5323333,0.479699
222,1.016898333,232.2423333,0.475901
221.9,0.9192433333,233.1273333,0.4874693333
221.8,0.3432683333,232.6203333,0.4808503333
221.7,1.160630667,232.5546667,0.479984
221.6,1.204125667,232.7723333,0.482834
221.5,1.921025333,233.1843333,0.4882073333
221.4,0.980824,232.7763333,0.482889
221.3,1.54689,233.1156667,0.487309
221.2,0.277752,233.0203333,0.4860633333
221.1,0.8651553333,233.7346667,0.4953723333
221,0.8058403333,233.497,0.4922883333
220.9,1.705988333,233.9413333,0.4980613333
220.8,0.9711786667,234.0816667,0.4998913333
220.7,1.895524,234.0306667,0.4992273333
220.6,1.018943,233.6656667,0.4944726667
220.5,0.662457,233.8383333,0.4967193333
220.4,1.501436667,234.1873333,0.5012546667
220.3,1.109319333,234.6423333,0.5071723333
220.2,1.517517333,234.086,0.4999436667
220.1,2.527806667,234.3843333,0.503823
220,0.757665,234.7066667,0.508005
219.9,2.266734333,234.7293333,0.5083036667
219.8,1.982443333,234.923,0.5108063333
219.7,0.458051,234.776,0.5088956667
219.6,2.28114,235.129,0.5134743333
219.5,0.06548933333,234.8163333,0.5094213333
219.4,1.57408,235.028,0.51217
219.3,1.1922104,235.2143333,0.5145816667
219.2,2.611430233,235.2433333,0.514955
219.1,0.80652,235.471,0.517904
219,1.558143333,235.1976667,0.514367
218.9,1.724814667,235.445,0.5175676667
218.8,2.534793333,235.8473333,0.5227643333
218.7,1.059602667,235.564,0.519106
218.6,2.108463333,236.282,0.5283743333
218.5,0.8976696667,235.7686667,0.5217503333
218.4,0.92875,236.0176667,0.524951
218.3,1.292987333,236.063,0.5255476667
218.2,0.353609,236.432,0.5303146667
218.1,1.779611667,236.289,0.5284696667
218,2.207675667,236.7933333,0.534969
217.9,1.605826667,236.4676667,0.5307726667
217.8,2.124156333,236.8436667,0.5356123333
217.7,1.795306667,237.0983333,0.5388863333
217.6,3.28768,236.8533333,0.535734
217.5,2.201173333,237.275,0.541158
217.4,1.206471207,236.827,0.5353983333
217.3,2.34639,237.2456667,0.5407793333
217.2,2.060021933,237.5866667,0.545167
217.1,1.120431333,237.8143333,0.5480863333
217,0.6420726667,237.45,0.5434056667
216.9,0.515946,237.644,0.545898
216.8,-0.01042266667,238.0436667,0.551029
216.7,2.030770667,238.197,0.552989
216.6,2.34671,238.1126667,0.5519053333
216.5,0.50765,238.6193333,0.558397
216.4,1.646843333,238.61,0.5582763333
216.3,0.8666283667,238.411,0.5557266667
216.2,1.052511,238.595,0.558085
216.1,1.255103333,238.897,0.5619466667
216,-1.090743333,238.4173333,0.5558133333
215.9,1.862426667,238.3806667,0.555345
215.8,1.071269333,238.9576667,0.5627183333
215.7,-0.01635266667,238.975,0.5629416667
215.6,2.54943,239.2106667,0.5659556667
215.5,1.797787333,239.284,0.566892
215.4,0.57086,238.96,0.5627476667
215.3,2.102983333,239.4073333,0.5684603333
215.2,0.9654473333,239.1383333,0.5650253333
215.1,-0.3014389667,239.5776667,0.570635
215,-0.111134,239.9756667,0.5756956667
214.9,1.047093,239.816,0.573668
214.8,0.496056,239.7046667,0.5722526667
214.7,-0.3911433333,240.0603333,0.5767846667
214.6,1.35246,239.5366667,0.5701046667
214.5,2.336753333,239.9806667,0.57577
214.4,1.466830667,240.5253333,0.5826946667
214.3,1.43641,240.274,0.5794983333
214.2,0.01260366667,240.0556667,0.5767263333
214.1,1.005853,240.358,0.5805686667
214,0.3313963333,240.298,0.5797976667
213.9,0.8678773333,240.7923333,0.5860886667
213.8,0.1405133333,240.6903333,0.5847936667
213.7,0.3340113333,240.773,0.5858446667
213.6,1.446966667,241.0673333,0.5895833333
213.5,0.957764,241.1173333,0.5902113333
213.4,1.688717,241.1906667,0.5911443333
213.3,0.9259156667,241.6096667,0.596449
213.2,1.945031,241.656,0.597039
213.1,2.298204667,240.6463333,0.5842333333
213,2.80276,241.1066667,0.590077
212.9,0.3217166667,241.4486667,0.5944133333
212.8,1.766173333,241.1966667,0.591212
212.7,1.280515667,241.1213333,0.59026
212.6,0.9459006667,241.4523333,0.5944553333
212.5,1.538761333,241.992,0.6012836667
212.4,0.2394866667,241.7336667,0.5980173333
212.3,0.811948,242.2283333,0.604274
212.2,1.344385867,241.9343333,0.600555
212.1,0.6167696667,242.0026667,0.6014246667
212,1.057184667,242.4106667,0.6065793333
211.9,0.6327416667,242.6903333,0.6101053333
211.8,1.325585333,242.83,0.611873
211.7,1.105693333,243.0993333,0.6152626667
211.6,0.1358276667,243.3556667,0.618485
211.5,0.650777,243.3196667,0.6180333333
211.4,1.377746,242.9576667,0.6134813333
211.3,1.387780333,243.3246667,0.6180993333
211.2,1.287283667,243.452,0.6197033333
211.1,3.201633333,243.6096667,0.6216846667
211,-0.3352473333,243.5333333,0.6207216667
210.9,0.7419453333,243.6763333,0.622524
210.8,0.9732376667,243.8803333,0.625088
210.7,1.228913333,244.345,0.6309176667
210.6,1.478013333,244.0643333,0.6273973333
210.5,1.702566667,244.2683333,0.6299566667
210.4,0.7546056667,244.1336667,0.6282673333
210.3,1.053166667,244.776,0.636319
210.2,1.634953333,244.401,0.6316213333
210.1,0.4316153333,244.953,0.6385363333
210,1.814640333,245.373,0.6437926667
209.9,2.40725,245.638,0.6471
209.8,0.666498,245.378,0.6438473333
209.7,1.779336,245.1136667,0.640549
209.6,1.306222,245.5803333,0.646379
209.5,0.9933666667,245.7843333,0.6489276667
209.4,-0.6364203333,246.113,0.6530333333
209.3,1.760317333,245.7256667,0.648199
209.2,1.126372133,246.741,0.660853
209.1,3.419583333,246.4533333,0.6572733333
209,1.093993333,246.2686667,0.6549693333
208.9,0.5487766667,246.9746667,0.6637543333
208.8,1.088155667,246.7556667,0.66104
208.7,0.446749,246.6073333,0.6591883333
208.6,1.33708,246.9586667,0.6635623333
208.5,0.3627,247.0346667,0.664507
208.4,2.044967,247.144,0.66586
208.3,0.6174701333,247.4563333,0.6697326667
208.2,0.2377733333,248.1733333,0.6786236667
208.1,1.807254,247.4663333,0.669864
208,1.185761,248.14,0.6782196667
207.9,3.548773333,248.1603333,0.678469
207.8,0.08474766667,247.9136667,0.675415
207.7,1.624126667,248.501,0.6826866667
207.6,1.184606667,248.5153333,0.682862
207.5,0.5290689,248.431,0.6818213333
207.4,-0.2308332333,248.844,0.686924
207.3,1.97904,248.7713333,0.686028
207.2,0.2216503333,249.1773333,0.6910376667
207.1,0.898987,249.7556667,0.6981696667
207,1.750495733,249.349,0.6931503333
206.9,-0.2116436667,249.2853333,0.6923716667
206.8,2.480613333,248.562,0.6834373333
206.7,0.590584,249.4053333,0.6938543333
206.6,2.36971,250.2113333,0.7037843333
206.5,2.36734,250.3026667,0.7049066667
206.4,1.550511667,250.6053333,0.708625
206.3,1.937063333,250.9163333,0.7124426667
206.2,1.599726,250.6773333,0.709508
206.1,1.18112,250.9606667,0.712989
206,0.8662326667,251.066,0.7142733333
205.9,-0.1031053333,251.1066667,0.7147773333
205.8,1.393593333,251.426,0.7186886667
205.7,1.67128,251.932,0.7248823333
205.6,0.3454366667,251.6403333,0.721316
205.5,0.6212766667,252.3876667,0.7304503333
205.4,0.9250896667,252.0386667,0.7261903333
205.3,0.6442132,252.48,0.7315793333
205.2,0.839196,252.3036667,0.729422
205.1,2.781406667,252.9473333,0.7372786667
205,0.158796,252.981,0.7376933333
204.9,-0.3431743333,253.2523333,0.740994
204.8,0.8703846667,253.3723333,0.7424536667
204.7,2.609760333,253.3286667,0.7419246667
204.6,1.247452333,253.6073333,0.7453173333
204.5,2.248611667,253.6906667,0.7463306667
204.4,1.43389,253.5833333,0.7450286667
204.3,1.312681,253.8696667,0.748509
204.2,-0.443236,254.112,0.751442
204.1,1.269191,254.641,0.7578686667
204,4.554493333,254.7473333,0.759157
203.9,0.5231209,254.5546667,0.756821
203.8,2.089403333,255.0723333,0.7630843333
203.7,0.05459733333,255.647,0.770046
203.6,0.8218177667,255.7316667,0.7710673333
203.5,0.9481483333,256.101,0.775523
203.4,0.0492154,255.879,0.772847
203.3,0.2148986667,256.3916667,0.7790293333
203.2,0.3038043333,256.065,0.775088
203.1,1.141974,256.6303333,0.7819046667
203,1.036303333,256.644,0.782062
202.9,0.8283883333,256.952,0.7857776667
202.8,-0.322308,257.141,0.7880546667
202.7,0.5076873333,257.1673333,0.788368
202.6,0.4201966667,257.6363333,0.794004
202.5,0.4466933333,257.912,0.7973113333
202.4,2.083361333,257.403,0.7911956667
202.3,1.451106667,258.456,0.80383
202.2,2.026113,258.527,0.8046756667
202.1,1.836873333,258.144,0.8000913333
202,3.101093333,259.7033333,0.818732
201.9,1.137453333,259.799,0.819873
201.8,0.178043,259.6406667,0.8179836667
201.7,1.30795,259.608,0.8175966667
201.6,3.67566,259.9626667,0.8218256667
201.5,-1.088181667,260.215,0.8248296667
201.4,0.9218253333,260.2526667,0.825279
201.3,1.938587667,260.9643333,0.833739
201.2,1.816933333,259.998,0.8222416667
201.1,2.289247667,261.7023333,0.842495
201,-0.3609153333,261.1606667,0.8360713333
200.9,1.530453333,261.579,0.8410356667
200.8,-0.4541233333,262.159,0.8479036667
200.7,-0.4945296667,262.238,0.8488376667
200.6,1.947957667,262.2716667,0.849225
200.5,2.293609,262.6746667,0.853999
200.4,3.480976667,262.9276667,0.856981
200.3,2.586056667,263.5213333,0.863986
200.2,2.117196667,262.9886667,0.8577046667
200.1,-0.8639013333,263.853,0.8678926667
200,1.509107,264.0076667,0.8697133333
199.9,2.426234967,264.0716667,0.8704673333
199.8,0.6999773333,264.0923333,0.87071
199.7,0.163393,264.4036667,0.874358
199.6,1.588458,265.1703333,0.8833673333
199.5,1.83939,264.717,0.8780456667
199.4,1.682838333,265.7716667,0.8904076667
199.3,2.513173,265.1926667,0.883628
199.2,2.224736667,266.208,0.895503
199.1,1.142619333,266.1896667,0.8952893333
199,-1.280309333,266.158,0.8949063333
198.9,1.471049333,266.0816667,0.8940283333
198.8,-0.1037782333,267.3153333,0.9084243333
198.7,3.027531333,267.471,0.9102336667
198.6,1.139,266.706,0.901317
198.5,2.384929,267.248,0.9076416667
198.4,-0.225353,267.6996667,0.9128933333
198.3,2.28003,268.0323333,0.9167613333
198.2,0.9785906667,268.0786667,0.9173013333
198.1,2.204453,268.1846667,0.918534
198,0.7128555,268.5063333,0.922268
197.9,1.475280667,269.0703333,0.9288006667
197.8,1.981056667,269.3606667,0.9321616667
197.7,-0.1769336667,269.6063333,0.9350033333
197.6,-0.9028666667,269.6463333,0.9354696667
197.5,1.697190667,269.944,0.938905
197.4,1.348743967,270.1006667,0.9407143333
197.3,1.561863333,270.7236667,0.9478966667
197.2,1.148096667,270.9366667,0.9503433333
197.1,0.5659876667,271.0336667,0.9514643333
197,3.751383333,271.341,0.9550053333
196.9,0.3828816667,272.0466667,0.9631126667
196.8,0.02009333333,271.6853333,0.958965
196.7,-0.4775333333,272.3486667,0.9665696667
196.6,-0.1777416667,272.506,0.9683806667
196.5,-0.09506466667,272.8033333,0.9717883333
196.4,0.804626,272.4816667,0.9680953333
196.3,1.615153333,273.5433333,0.9802443333
196.2,-0.3499136667,274.1693333,0.987391
196.1,-0.4997266667,274.6216667,0.9925466667
196,2.805706667,274.2823333,0.9886753333
195.9,2.398126667,275.188,0.9989816667
195.8,-1.444339,275.1206667,0.99822
195.7,-1.542676667,275.8476667,1.006476667
195.6,1.499243,276.1163333,1.009523333
195.5,1.054266667,276.633,1.015376667
195.4,1.886116667,276.7003333,1.016136667
195.3,0.8052056,277.102,1.02067
195.2,1.821124,277.0933333,1.020583333
195.1,0.4413723333,277.4016667,1.024063333
195,-0.1300876667,277.8893333,1.02956
194.9,0.9958826667,278.7653333,1.039423333
194.8,1.356959333,279.0333333,1.042443333
194.7,0.08243939333,278.864,1.04053
194.6,-0.5148796667,279.517,1.047876667
194.5,-0.8048,279.9766667,1.05302
194.4,0.3118233333,281.143,1.066063333
194.3,-1.576351467,281.3953333,1.06888
194.2,-0.347254,281.1536667,1.06619
194.1,-0.7832953333,281.282,1.06761
194,-0.0184938,282.2216667,1.07809
193.9,1.470154,283.488,1.092166667
193.8,-1.022584,284.0916667,1.098853333
193.7,1.59261,284.815,1.106846667
193.6,-0.47344,286.1146667,1.121163333
193.5,1.314698667,285.8643333,1.11842
193.4,-0.86954,286.6443333,1.126996667
193.3,0.392282,286.887,1.129666667
193.2,0.4648196667,287.0466667,1.131423333
193.1,1.82066,288.122,1.143193333
193,0.7310936667,288.1333333,1.143323333
192.9,-0.66621,289.2633333,1.155666667
192.8,0.04906333333,290.051,1.164243333
192.7,0.7963546667,291.1226667,1.175883333
192.6,-0.200472,291.595,1.181
192.5,-2.799032333,293.116,1.197443333
192.4,2.124236667,293.7096667,1.203836667
192.3,3.078843333,294.9933333,1.217636667
192.2,0.4729116667,294.9596667,1.21727
192.1,1.632164,295.4986667,1.223053333
192,0.6269206667,296.5563333,1.23436
191.9,2.391323333,297.472,1.244126667
191.8,-1.599536667,299.0453333,1.260833333
191.7,0.8277566667,298.571,1.255816667
191.6,2.16629,300.9036667,1.28051
191.5,1.026224733,300.7903333,1.27932
191.4,-2.713603333,302.3193333,1.295416667
191.3,-2.108698333,303.183,1.304483333
191.2,-0.3167586667,304.902,1.322466667
191.1,-0.66018,305.9686667,1.333583333
191,-0.56124,307.6766667,1.351313333
190.9,-1.661926667,308.3706667,1.358496667
190.8,3.745313333,310.2823333,1.37821
190.7,0.760603,311.775,1.393533333
190.6,-1.568512,313.1526667,1.407616667
190.5,-1.248169333,314.5903333,1.422256667
190.4,3.18258,316.4423333,1.441036667
190.3,1.945433333,317.6843333,1.45359
190.2,-0.2725626667,318.8063333,1.46489
190.1,1.329592667,319.761,1.474476667
190,1.344636667,321.8023333,1.494896667
,,,
##### Extended Information,,,
[Comments],,,
Sample name,KMGM_BUFFER_928,KMGM_BUFFER_928,KMGM_BUFFER_928
Comment,BUFFER ALONE,BUFFER ALONE,BUFFER ALONE
User,KYLE MURPHY,KYLE MURPHY,KYLE MURPHY
Division,,,
Company,Saint Mary's College,Saint Mary's College,Saint Mary's College
,,,
[Detailed Information],,,
Creation date,9/28/2022 3:01 PM,9/28/2022 3:02 PM,9/28/2022 3:03 PM
,,,
Data array type,Linear data array * 3,Linear data array * 3,Linear data array * 3
Horizontal axis,Wavelength [nm],Wavelength [nm],Wavelength [nm]
Vertical axis(1),CD [mdeg],CD [mdeg],CD [mdeg]
Vertical axis(2),HT [V],HT [V],HT [V]
Vertical axis(3),Abs,Abs,Abs
Start,320 nm,320 nm,320 nm
End,190 nm,190 nm,190 nm
Data interval,0.1 nm,0.1 nm,0.1 nm
Data points,1301,1301,1301
,,,
[Measurement Information],,,
Instrument name,J-1500,J-1500,J-1500
Model name,J-1500,J-1500,J-1500
Serial No.,B051061638,B051061638,B051061638
,,,
Detector,PM-539,PM-539,PM-539
Detector S/N,B051061638,B051061638,B051061638
Lock-in amp.,X mode,X mode,X mode
HT volt,Auto,Auto,Auto
,,,
Accessory,PTC-517,PTC-517,PTC-517
Accessory S/N,B026561646,B026561646,B026561646
Temperature,27.65 C,27.67 C,27.70 C
Control sensor,Holder,Holder,Holder
Monitor sensor,Holder,Holder,Holder
,,,
Measurement date,9/28/2022 3:00 PM,9/28/2022 3:02 PM,9/28/2022 3:03 PM
,,,
CD Overload detect,1275,1236,1276
Photometric mode,CD,CD,CD
Measure range,320 - 190 nm,320 - 190 nm,320 - 190 nm
Data pitch,0.1 nm,0.1 nm,0.1 nm
CD scale,20 mdeg/0.05 dOD,20 mdeg/0.05 dOD,20 mdeg/0.05 dOD
FL scale,20 mdeg/0.05 dOD,20 mdeg/0.05 dOD,20 mdeg/0.05 dOD
D.I.T.,8 msec,8 msec,8 msec
Bandwidth,2.00 nm,2.00 nm,2.00 nm
Start mode,Immediately,Immediately,Immediately
Scanning mode,Continuous,Continuous,Continuous
Scanning speed,200 nm/min,200 nm/min,200 nm/min
Baseline correction,None,None,None
Shutter control,Auto,Auto,Auto
No. of cycle,1/1,1/1,1/1
N2 Flowmeter,Manual,Manual,Manual
,,,
Solvent,NaPO4 buffer,NaPO4 buffer,NaPO4 buffer