TITLE,KMGM_BUFFER&PROTEIN_928_Averages,,
DATA TYPE,,,
ORIGIN,JASCO,,
OWNER,,,
DATE,22/09/28,,
TIME,15:18:43,,
SPECTROMETER/DATA SYSTEM,,,
LOCALE,1033,,
RESOLUTION,,,
DELTAX,-0.1,,
XUNITS,NANOMETERS,,
YUNITS,CD [mdeg],,
Y2UNITS,HT [V],,
Y3UNITS,ABSORBANCE,,
FIRSTX,320,,
LASTX,190,,
NPOINTS,1301,,
FIRSTY,1.27862,,
MAXY,49.95761,,
MINY,-56.57431,,
XYDATA,,,
320,1.031673333,208.5396667,0.151928
319.9,1.131210667,208.333,0.1489703333
319.8,2.480633333,208.6393333,0.153347
319.7,1.330963667,208.1946667,0.1469826667
319.6,1.284054,208.3746667,0.1495666667
319.5,1.088181333,208.34,0.149074
319.4,1.535578667,208.3336667,0.148975
319.3,0.911373,208.3296667,0.1489236667
319.2,1.0139314,208.1763333,0.1467326667
319.1,2.476366667,208.3563333,0.149307
319,1.170685667,208.311,0.148654
318.9,2.180376667,208.1306667,0.1460746667
318.8,0.9117166667,208.309,0.14862
318.7,1.656856667,208.3496667,0.149209
318.6,1.438208,207.9536667,0.1435363333
318.5,1.677475333,208.652,0.153535
318.4,1.461003333,208.4686667,0.1509103333
318.3,1.980813333,208.3093333,0.1486373333
318.2,2.320863333,208.4793333,0.1510626667
318.1,1.472183333,208.1533333,0.1464046667
318,2.2794,208.0283333,0.144608
317.9,1.79726,208.373,0.1495366667
317.8,2.07659,207.7426667,0.1405133333
317.7,1.526927,208.193,0.1469683333
317.6,1.896456667,208.1766667,0.1467323333
317.5,1.086286667,207.386,0.1353976667
317.4,1.435466667,207.849,0.1420403333
317.3,2.028266667,207.6366667,0.138995
317.2,1.32933,208.337,0.1490263333
317.1,1.321613667,208.26,0.1479103333
317,1.510458,207.8296667,0.1417513333
316.9,1.2808816,207.4076667,0.1357013333
316.8,1.214930333,208.1243333,0.145983
316.7,1.402043333,208.047,0.1448733333
316.6,1.711997,208.1866667,0.146878
316.5,2.404746667,207.9456667,0.1434223333
316.4,1.460977,207.9786667,0.1438843333
316.3,2.119594333,208.126,0.14601
316.2,1.942666667,208.0876667,0.145456
316.1,1.273456,208.3003333,0.1484943333
316,1.437751333,208.173,0.1466806667
315.9,2.031413333,207.7936667,0.141246
315.8,2.46409,208.06,0.1450616667
315.7,1.688480333,208.687,0.1540356667
315.6,1.610456333,208.4193333,0.150203
315.5,1.813096667,208.3186667,0.1487663333
315.4,2.227393333,208.007,0.144304
315.3,1.0863,207.882,0.142515
315.2,1.193016667,208.0276667,0.144597
315.1,2.344383333,207.6323333,0.1389296667
315,1.79286,208.3773333,0.149602
314.9,1.430272333,208.1863333,0.1468736667
314.8,0.189037,207.8696667,0.1423246667
314.7,1.025275,208.029,0.1446146667
314.6,2.194193333,207.8543333,0.142096
314.5,0.9284383333,207.4166667,0.1358336667
314.4,1.056138667,207.9533333,0.1435353333
314.3,0.7124346667,207.777,0.1409656667
314.2,1.664063333,208.166,0.1465826667
314.1,1.240247333,208.1196667,0.145914
314,1.785242333,207.4963333,0.1369813333
313.9,1.492496667,207.9016667,0.1427933333
313.8,1.770012667,207.759,0.1407483333
313.7,2.071196667,207.7213333,0.1402076667
313.6,1.746866667,207.0793333,0.130986
313.5,1.406368,207.4106667,0.1357556667
313.4,1.563989,208.0126667,0.1443813333
313.3,1.863966667,207.4246667,0.1359526667
313.2,1.437446333,207.6466667,0.1391363333
313.1,2.072873333,207.3463333,0.134831
313,1.379975,207.0356667,0.130366
312.9,2.410153333,207.2426667,0.1333386667
312.8,1.582269667,206.9926667,0.129733
312.7,2.50558,207.96,0.143625
312.6,1.7226,207.5976667,0.1384343333
312.5,0.778648,207.123,0.1316176667
312.4,1.782159333,207.8726667,0.1423766667
312.3,1.614451667,207.6853333,0.1396976667
312.2,2.2533,207.03,0.13028
312.1,1.628341667,207.3953333,0.1355183333
312,0.8845063333,207.1513333,0.1320213333
311.9,1.53079,207.9916667,0.1440863333
311.8,1.81005,207.333,0.134635
311.7,0.62897,207.623,0.1387976667
311.6,1.522186667,207.9036667,0.1428286667
311.5,1.236606667,207.826,0.1417066667
311.4,1.472342333,208.3093333,0.1486256667
311.3,1.015442667,208.0196667,0.1444886667
311.2,2.66092,207.5433333,0.137654
311.1,1.11687,207.856,0.1421373333
311,2.866426667,207.4576667,0.1364253333
310.9,1.677976667,207.6356667,0.1389716667
310.8,1.674276667,207.3896667,0.1354543333
310.7,1.2288,207.613,0.1386556667
310.6,0.864687,207.5596667,0.1378926667
310.5,1.666233667,207.6963333,0.1398496667
310.4,1.073365333,207.716,0.1401376667
310.3,0.8700373333,207.6773333,0.1395766667
310.2,1.502008333,208.2276667,0.1474643333
310.1,1.369796167,207.922,0.1430816667
310,0.866053,207.754,0.1406746667
309.9,1.082759,207.1966667,0.1326753333
309.8,2.199573333,208.3753333,0.1495663333
309.7,1.233787,207.7546667,0.1406816667
309.6,1.292313667,207.364,0.1350646667
309.5,2.31675,207.858,0.1421666667
309.4,1.811606667,207.7073333,0.1400116667
309.3,1.603683,207.7866667,0.1411403333
309.2,1.392853,207.9383333,0.1433256667
309.1,1.94,207.462,0.1364893333
309,1.817416667,207.8506667,0.1420606667
308.9,1.677883,207.3773333,0.135261
308.8,1.846,207.9483333,0.1434613333
308.7,1.244948333,207.4793333,0.136736
308.6,0.7372849333,207.66,0.1393356667
308.5,2.404563333,207.4383333,0.136148
308.4,1.76469,207.255,0.1335136667
308.3,1.573330767,207.796,0.1412846667
308.2,2.085723333,207.6573333,0.139293
308.1,2.016223333,207.5456667,0.1376833333
308,1.813523333,207.1866667,0.1325213333
307.9,2.510243333,207.4803333,0.1367543333
307.8,1.80376,207.8076667,0.1414463333
307.7,1.71215,207.7676667,0.1408683333
307.6,1.81617,207.594,0.138387
307.5,1.841946667,207.5226667,0.1373586667
307.4,0.941478,207.151,0.132017
307.3,1.036146667,207.2586667,0.1335703333
307.2,0.7851676667,207.536,0.1375506667
307.1,1.206495333,207.8693333,0.1423343333
307,2.60415,207.7196667,0.140186
306.9,1.642630667,207.5953333,0.1383986667
306.8,0.11097,208.0733333,0.145251
306.7,1.28062,207.229,0.133135
306.6,2.141121667,207.8423333,0.1419426667
306.5,2.073986667,207.8066667,0.1414356667
306.4,1.61876,207.4473333,0.136279
306.3,1.222642,208.375,0.1495546667
306.2,1.732346667,207.5373333,0.1375723333
306.1,1.131550667,207.4576667,0.13643
306,0.4335564,207.929,0.143188
305.9,0.021041,208.0016667,0.1442296667
305.8,1.309167667,207.8223333,0.141648
305.7,1.78233,208.2586667,0.147903
305.6,1.73628,206.8933333,0.1283116667
305.5,0.3931563333,207.5656667,0.1379723333
305.4,2.374823333,207.5223333,0.1373566667
305.3,1.542775333,207.579,0.1381586667
305.2,1.433856667,207.534,0.1375236667
305.1,1.045269333,207.556,0.1378406667
305,1.68469,207.567,0.13799
304.9,1.426178667,207.1116667,0.1314526667
304.8,0.8012733333,207.505,0.137107
304.7,0.9329593333,207.765,0.140827
304.6,1.486,207.575,0.1381006667
304.5,0.8340386667,207.096,0.1312136667
304.4,1.000796333,207.8573333,0.142143
304.3,1.94362,206.7723333,0.126571
304.2,2.836436667,207.3803333,0.1353166667
304.1,1.99415,207.6196667,0.138749
304,0.5699727,207.331,0.134596
303.9,2.585603333,207.3193333,0.1344333333
303.8,0.925026,207.321,0.1344476667
303.7,2.035013333,207.246,0.1333873333
303.6,0.8268456667,207.307,0.1342553333
303.5,0.750736,207.5713333,0.1380516667
303.4,1.805965333,207.393,0.1354956667
303.3,0.5051186667,207.2833333,0.1339146667
303.2,0.3855173333,207.5036667,0.137092
303.1,1.506528333,207.293,0.134065
303,1.856073333,207.2056667,0.1327903333
302.9,1.244700667,207.164,0.132204
302.8,0.9321476667,207.0023333,0.129882
302.7,1.727026667,207.113,0.131473
302.6,0.4339903333,207.5123333,0.1372023333
302.5,2.004923333,207.1716667,0.1323176667
302.4,1.058221,207.6856667,0.1396903333
302.3,1.949416667,208.3816667,0.1496476667
302.2,1.710055,207.088,0.1311166667
302.1,2.823663333,207.515,0.137247
302,1.176936667,207.116,0.131513
301.9,1.629775333,207.3423333,0.1347693333
301.8,1.003886233,207.1956667,0.1326623333
301.7,1.184737333,207.316,0.1343906667
301.6,1.815563333,207.4073333,0.135701
301.5,0.3663628333,207.807,0.141443
301.4,1.730946667,206.697,0.1254856667
301.3,0.6961376667,207.7326667,0.1403643333
301.2,1.855493333,207.176,0.132384
301.1,2.095543333,207.2796667,0.1338756667
301,1.073874667,207.154,0.1320623333
300.9,-0.06754696667,206.9993333,0.12984
300.8,1.522436667,207.275,0.1338043333
300.7,1.662016667,207.1343333,0.1317823333
300.6,1.423896667,206.5433333,0.1232666667
300.5,1.447102333,207.278,0.1338456667
300.4,1.038448,207.37,0.1351633333
300.3,1.141074,207.2973333,0.1341213333
300.2,1.916396667,207.271,0.133751
300.1,2.53806,207.2206667,0.1330136667
300,1.264877667,207.0246667,0.1301993333
299.9,1.396906667,206.9666667,0.1293696667
299.8,1.667123333,206.7153333,0.1257366667
299.7,0.4059033333,206.9263333,0.128779
299.6,1.992333333,206.9186667,0.128678
299.5,1.249636333,207.432,0.1360586667
299.4,2.280486667,207.4096667,0.13574
299.3,2.25443,207.0886667,0.1311296667
299.2,0.5617418667,207.2836667,0.1339253333
299.1,0.3963766667,207.17,0.1322753333
299,1.13529,206.755,0.126326
298.9,1.353597333,206.946,0.1290763333
298.8,0.8521273333,207.0626667,0.1307493333
298.7,1.613463333,207.3803333,0.135312
298.6,1.478628333,206.861,0.1278556667
298.5,0.6926756667,206.727,0.1259236667
298.4,1.455429,206.7973333,0.126931
298.3,1.386656667,206.8123333,0.1271456667
298.2,1.81517,206.7223333,0.1258556667
298.1,1.921826667,206.7576667,0.126368
298,1.517988333,207.0113333,0.130015
297.9,1.339865,207.0763333,0.1309456667
297.8,1.697979333,206.7693333,0.1265233333
297.7,1.83418,207.52,0.1373063333
297.6,2.053233333,206.704,0.1255906667
297.5,2.007926667,207.149,0.1319926667
297.4,1.186836333,207.02,0.1301386667
297.3,1.021741667,207.2343333,0.1332186667
297.2,1.6461116,207.3883333,0.135431
297.1,0.8900306667,207.482,0.136776
297,1.72074,207.544,0.1376666667
296.9,0.2169894,207.0113333,0.1300143333
296.8,1.556066667,207.1986667,0.1327093333
296.7,2.023133333,206.868,0.1279516667
296.6,0.3582663333,206.8036667,0.127027
296.5,1.769316667,207.1726667,0.132335
296.4,1.73769,207.3636667,0.135078
296.3,1.370419,207.1723333,0.132327
296.2,2.299873333,206.82,0.127257
296.1,1.851583333,206.741,0.1261163333
296,1.75766,207.0533333,0.1306176667
295.9,2.074246667,207.1573333,0.1321096667
295.8,1.62486,207.6693333,0.139455
295.7,0.670365,206.8573333,0.1277936667
295.6,1.089722,206.9666667,0.1293633333
295.5,1.751133333,207.2413333,0.1333203333
295.4,1.5541958,207.257,0.1335483333
295.3,1.468168333,206.9136667,0.1286076667
295.2,1.767963333,206.982,0.1295843333
295.1,1.846634333,206.761,0.1264086667
295,1.292933333,207.6446667,0.1391046667
294.9,1.081606333,206.889,0.128256
294.8,1.734122667,206.5486667,0.1233443333
294.7,0.5841636667,206.9963333,0.1297963333
294.6,0.7492386,206.6046667,0.1241536667
294.5,1.083325333,207.044,0.130481
294.4,1.407809333,206.825,0.127331
294.3,1.809433333,207.1576667,0.132103
294.2,1.423837333,207.2146667,0.1329336667
294.1,2.12213,206.86,0.127819
294,2.180583333,207.1413333,0.1318816667
293.9,1.165908733,206.993,0.129754
293.8,1.182802333,207.0666667,0.130797
293.7,1.146678333,205.9133333,0.1141856667
293.6,1.05401,206.7253333,0.1258913333
293.5,1.712113,206.865,0.1279063333
293.4,-0.110978,206.8443333,0.1276116667
293.3,0.9288606667,207.2496667,0.1334363333
293.2,0.622671,206.8146667,0.127184
293.1,1.121479,206.9393333,0.128969
293,1.517492667,206.329,0.1201856667
292.9,1.282384333,206.9843333,0.1296236667
292.8,0.7473873333,206.7953333,0.1268913333
292.7,2.675926667,206.6326667,0.1245623333
292.6,0.8798356667,206.4916667,0.1225186667
292.5,0.1736450333,206.5836667,0.1238506667
292.4,1.800183333,206.8033333,0.1270183333
292.3,1.611926667,206.05,0.1161583333
292.2,1.254696,206.769,0.1265246667
292.1,0.8575923333,206.151,0.1176203333
292,1.400804333,207.0683333,0.1308033333
291.9,0.9591743333,206.3223333,0.1200766667
291.8,0.774022,206.9163333,0.12864
291.7,1.527562667,206.3976667,0.121176
291.6,1.42261,206.699,0.1255203333
291.5,0.4305096667,206.349,0.1204673333
291.4,1.568409,205.8213333,0.1128463333
291.3,1.609344,206.184,0.118089
291.2,1.296549,206.6976667,0.1254936667
291.1,1.420453333,206.121,0.117185
291,1.197985,206.0736667,0.1165023333
290.9,1.84625,206.5286667,0.1230616667
290.8,0.9589686667,206.8583333,0.1278116667
290.7,0.5148615333,206.1896667,0.1181686667
290.6,1.018621933,206.3983333,0.1211866667
290.5,1.279305667,206.6953333,0.1254613333
290.4,0.4037493333,206.4543333,0.1219826667
290.3,1.089385667,206.706,0.1256173333
290.2,1.225591453,207.0276667,0.130245
290.1,1.753437667,206.8816667,0.1281523333
290,0.5076826667,206.522,0.1229683333
289.9,0.9427546667,206.9163333,0.12865
289.8,1.592481667,206.6783333,0.1252216667
289.7,2.028426667,206.5843333,0.123866
289.6,2.414886667,206.5746667,0.1237296667
289.5,1.494307667,207.2106667,0.1328753333
289.4,1.303718,206.727,0.125918
289.3,1.008029667,207.1946667,0.132646
289.2,0.966322,207.0253333,0.130213
289.1,1.205442333,206.9443333,0.1290426667
289,1.115649667,206.9746667,0.1294826667
288.9,0.7859573333,207.2726667,0.13377
288.8,1.382964333,207.0023333,0.1298856667
288.7,0.5443223333,206.7446667,0.1261723333
288.6,0.07643866667,207.1966667,0.1326823333
288.5,1.713983333,206.8563333,0.1277816667
288.4,1.657139667,207.0003333,0.129853
288.3,0.7087466667,206.5363333,0.1231723333
288.2,1.302321667,206.976,0.129504
288.1,0.6147405,207.0326667,0.1303256667
288,1.135298,206.8426667,0.127587
287.9,1.350613333,207.1593333,0.1321416667
287.8,2.304103333,207.215,0.132945
287.7,0.6775474,207.1656667,0.1322316667
287.6,1.693716667,207.3446667,0.1347966667
287.5,1.093272667,207.38,0.1353133333
287.4,1.444008667,207.3483333,0.1348536667
287.3,1.638073333,206.864,0.127889
287.2,1.499099333,206.957,0.1292183333
287.1,1.497662667,207.0453333,0.130505
287,0.137207,207.3246667,0.134521
286.9,1.257912333,206.667,0.1250516667
286.8,1.206153667,207.102,0.131312
286.7,1.48521,207.2286667,0.1331436667
286.6,0.6404613333,206.828,0.1273743333
286.5,1.986249333,207.0493333,0.130556
286.4,0.9454246667,207.293,0.1340653333
286.3,1.258389,207.0263333,0.1302333333
286.2,0.7200287333,207.2453333,0.1333746667
286.1,0.830123,207.439,0.136159
286,1.762606667,207.4276667,0.1360026667
285.9,1.697813333,206.892,0.1282976667
285.8,2.051536667,207.5633333,0.1379436667
285.7,0.6611896667,206.8083333,0.1270953333
285.6,1.229636,206.9143333,0.1286136667
285.5,0.5742676667,207.0396667,0.130418
285.4,1.161359333,206.748,0.12622
285.3,1.73778,207.0323333,0.1303046667
285.2,0.7421833333,207.3726667,0.135208
285.1,1.4451,207.622,0.1387786667
285,1.055795667,207.5536667,0.137796
284.9,0.27104,206.9336667,0.128893
284.8,1.042542667,207.462,0.1364866667
284.7,0.6779093333,207.3213333,0.134465
284.6,1.897586333,207.501,0.1370286667
284.5,0.7225356667,207.0083333,0.1299723333
284.4,1.165177667,207.1213333,0.1315886667
284.3,0.81075,207.1436667,0.1319206667
284.2,1.848747667,206.7313333,0.1259833333
284.1,0.828481,206.887,0.1282213333
284,0.9781766667,207.032,0.130313
283.9,0.84551,207.0366667,0.1303713333
283.8,0.8716276667,207.13,0.131719
283.7,0.6992100333,206.9433333,0.129003
283.6,1.375837333,206.8186667,0.1272343333
283.5,1.524146667,207.0813333,0.131013
283.4,1.530404,207.6563333,0.13928
283.3,1.240637,207.4296667,0.1360203333
283.2,2.06251,206.8516667,0.1277163333
283.1,1.047807,207.5263333,0.1374123333
283,1.182349667,207.3093333,0.134297
282.9,0.581173,208.035,0.144693
282.8,0.661353,207.326,0.1345373333
282.7,0.783771,207.4093333,0.1357313333
282.6,0.1926246667,206.931,0.1288636667
282.5,1.221917167,207.2603333,0.1335923333
282.4,1.060487667,207.3933333,0.1355036667
282.3,1.5617,207.1233333,0.1316213333
282.2,1.885075,207.0216667,0.1301623333
282.1,0.9606123333,207.2753333,0.1338013333
282,0.943794,207.4016667,0.1356216667
281.9,0.025809,207.0306667,0.130273
281.8,0.3635717667,207.0436667,0.1304696667
281.7,0.2341163333,208.1496667,0.1463476667
281.6,1.797052333,207.717,0.1401466667
281.5,1.420318667,207.4103333,0.1357463333
281.4,0.2083696667,206.9336667,0.12888
281.3,1.583181333,207.582,0.1382123333
281.2,0.5122183333,207.273,0.1337783333
281.1,1.616546667,207.0793333,0.1309906667
281,1.37186,207.049,0.130553
280.9,0.80305,207.5103333,0.1371733333
280.8,1.758102167,206.854,0.1277476667
280.7,0.4774686667,207.4216667,0.1359133333
280.6,0.643435,207.1953333,0.1326586667
280.5,0.514617,207.4663333,0.136531
280.4,1.740406667,207.5946667,0.1383936667
280.3,0.99725,207.8593333,0.1421813333
280.2,0.7343859333,207.4223333,0.1359146667
280.1,1.214137667,207.2353333,0.133235
280,0.8806053333,206.889,0.1282483333
279.9,1.371586667,207.3633333,0.1350726667
279.8,0.754029,207.604,0.1385273333
279.7,0.1774433,207.8246667,0.1416906667
279.6,1.220908333,206.951,0.1291456667
279.5,0.849957,207.474,0.1366633333
279.4,0.3518066667,207.4016667,0.135622
279.3,0.3508943333,207.5516667,0.13777
279.2,1.655937,207.589,0.138308
279.1,0.5418486667,207.4303333,0.1360346667
279,0.4466463333,207.98,0.143918
278.9,0.8862916667,207.2256667,0.1330896667
278.8,1.260008,207.116,0.1315183333
278.7,1.08647,206.7263333,0.1258883333
278.6,1.597123667,207.31,0.134292
278.5,0.7560609333,207.0676667,0.1308193333
278.4,0.692757,206.795,0.1268936667
278.3,1.23255,207.1596667,0.1321416667
278.2,-0.3401233333,207.0673333,0.1308133333
278.1,0.7987016667,207.5826667,0.138225
278,0.893087,207.804,0.1413926667
277.9,0.9834176667,207.8106667,0.1414896667
277.8,1.603553333,207.4383333,0.1361473333
277.7,1.704939,206.7976667,0.1269356667
277.6,2.0188,207.7886667,0.1411616667
277.5,0.6068153333,207.6433333,0.1390893333
277.4,0.895535,207.487,0.136848
277.3,0.900881,207.4236667,0.135941
277.2,1.229578667,207.5546667,0.1378203333
277.1,-0.3490286333,207.3763333,0.1352516667
277,1.004199,207.6263333,0.1388476667
276.9,1.087246,207.25,0.1334413333
276.8,1.87877,207.9283333,0.143174
276.7,1.290848667,207.65,0.1391886667
276.6,0.352567,208.09,0.145484
276.5,0.71897,207.7163333,0.140137
276.4,-0.01727403333,207.4646667,0.136507
276.3,1.929986667,207.0176667,0.1301073333
276.2,1.431018667,207.8443333,0.141953
276.1,-0.1587416667,207.1873333,0.1325416667
276,0.9030543333,207.4646667,0.1365263333
275.9,1.795906667,206.821,0.1272756667
275.8,1.076470333,207.357,0.1349776667
275.7,0.038739,207.4316667,0.136056
275.6,0.8225613,207.922,0.143087
275.5,0.4153866667,207.303,0.1342046667
275.4,0.850288,207.351,0.134894
275.3,0.81881,206.9703333,0.1294166667
275.2,0.03298,208.081,0.1453636667
275.1,0.06323366667,207.683,0.1396526667
275,1.621323333,207.5763333,0.1381276667
274.9,0.98986,207.307,0.1342583333
274.8,0.9172883333,207.5216667,0.137343
274.7,1.391181,207.1793333,0.13241
274.6,-0.1840806667,207.754,0.1406686667
274.5,0.837401,207.3916667,0.135475
274.4,0.562303,207.1856667,0.132522
274.3,1.040216,207.06,0.1307126667
274.2,0.9194841333,207.6796667,0.139615
274.1,0.9862336667,207.542,0.137635
274,1.497245333,207.364,0.1350856667
273.9,0.74554,207.4253333,0.1359596667
273.8,0.976762,207.4553333,0.1363916667
273.7,0.4503905667,207.4636667,0.136511
273.6,1.096019,207.2396667,0.133301
273.5,1.303337,207.33,0.134588
273.4,0.8102823333,207.3136667,0.1343633333
273.3,0.2864616667,207.5036667,0.1370923333
273.2,1.53529321,207.5073333,0.1371393333
273.1,0.5413953333,207.965,0.143699
273,0.5910733333,207.6476667,0.139155
272.9,1.184616333,207.6843333,0.1396806667
272.8,0.1441106667,207.8053333,0.1414106667
272.7,1.022098333,207.6296667,0.1388956667
272.6,0.9052076667,207.2973333,0.134125
272.5,0.1059706667,207.729,0.1403206667
272.4,1.347836667,207.7883333,0.1411613333
272.3,0.5142466667,207.6563333,0.13928
272.2,0.832025,207.6353333,0.1389753333
272.1,1.935107667,208.192,0.146947
272,0.4329630667,207.4446667,0.136239
271.9,0.6892533333,207.7996667,0.141333
271.8,0.396033,206.9776667,0.1295303333
271.7,0.4570766667,206.9266667,0.1287896667
271.6,0.01231003333,207.2103333,0.132877
271.5,0.9523846667,207.2793333,0.1338566667
271.4,1.082088967,207.168,0.1322603333
271.3,0.8765487,207.598,0.138416
271.2,0.1215283667,207.9776667,0.1438893333
271.1,0.190014,207.412,0.1357576667
271,-0.6153267633,207.8026667,0.1413776667
270.9,0.5416830667,207.831,0.141783
270.8,1.2201483,207.3976667,0.1355653333
270.7,0.560617,207.921,0.14307
270.6,0.2692393033,208.117,0.1458773333
270.5,0.437978,207.3046667,0.1342226667
270.4,1.696827333,207.8296667,0.1417613333
270.3,0.7606313333,207.9783333,0.1438926667
270.2,1.017366333,207.6276667,0.138833
270.1,1.272002333,208.2793333,0.148203
270,0.5796213333,207.6473333,0.1391446667
269.9,0.76304,207.7403333,0.1404843333
269.8,0.1569363333,207.9946667,0.144124
269.7,0.3170073333,208.1236667,0.1459756667
269.6,1.647063,207.9163333,0.1430033333
269.5,1.899376667,208.1436667,0.1462643333
269.4,0.827796,208.0253333,0.144565
269.3,1.036666,207.8466667,0.142006
269.2,0.1537896667,207.8943333,0.142693
269.1,0.1569161333,208.4383333,0.1504586667
269,1.136179167,208.0686667,0.1451863333
268.9,0.285347026,208.551,0.1520833333
268.8,1.175991333,208.5876667,0.152611
268.7,1.062903667,208.5573333,0.152174
268.6,-0.01173486667,207.7756667,0.1409936667
268.5,-0.3103162333,208.099,0.1456163333
268.4,-0.006278666667,208.2096667,0.1472096667
268.3,1.332811333,208.0976667,0.1456036667
268.2,1.419413333,208.629,0.153195
268.1,0.6997176667,208.1963333,0.1470083333
268,1.944126667,208.1246667,0.1459813333
267.9,0.3243491333,208.7396667,0.1547743333
267.8,0.4372456,208.8406667,0.1562213333
267.7,0.5519246667,208.2876667,0.1483193333
267.6,0.2375,208.087,0.1454496667
267.5,-0.4134393333,208.192,0.1469556667
267.4,-0.06353666667,208.5046667,0.1514243333
267.3,0.204379,207.6846667,0.1396863333
267.2,0.3489431667,208.3723333,0.1495183333
267.1,0.3266126667,208.2216667,0.147383
267,0.9200619367,208.332,0.1489543333
266.9,0.1606493333,208.829,0.15606
266.8,1.334645333,208.3266667,0.1488773333
266.7,-0.2482733333,208.7213333,0.1545153333
266.6,0.6004575667,208.3893333,0.1497763333
266.5,-0.395648,208.3393333,0.149061
266.4,0.2064173333,208.4763333,0.151025
266.3,0.73135,208.3846667,0.1497126667
266.2,0.5359726667,208.729,0.1546346667
266.1,-0.1094456667,208.3496667,0.1492073333
266,0.5313066667,208.4516667,0.150665
265.9,1.100314,208.9593333,0.1579203333
265.8,0.8582813667,208.843,0.1562646667
265.7,0.293165,208.9746667,0.1581386667
265.6,0.4337302667,208.684,0.1539863333
265.5,0.1431973333,208.9453333,0.15772
265.4,-0.1857886667,208.8773333,0.1567486667
265.3,-0.489359,208.8906667,0.1569443333
265.2,0.06435666667,208.9866667,0.1583053333
265.1,0.04884133333,208.6953333,0.154148
265,0.4845163667,209.053,0.1592506667
264.9,0.2818066667,208.6103333,0.1529353333
264.8,0.5688476667,208.97,0.1580736667
264.7,0.3401696667,209.1173333,0.1601766667
264.6,-0.3412513333,208.9373333,0.1576066667
264.5,-0.4032047,208.6693333,0.1537806667
264.4,0.86005,208.414,0.1501326667
264.3,-0.7880816667,208.881,0.156803
264.2,0.852014,209.0676667,0.1594676667
264.1,0.2453563333,209.424,0.164544
264,0.0556437,209.0943333,0.159844
263.9,0.771812,209.4993333,0.1656153333
263.8,-0.362125,209.0073333,0.1586086667
263.7,0.01433533333,209.5016667,0.165644
263.6,0.3865043333,209.168,0.160896
263.5,-0.4819931333,209.675,0.1681196667
263.4,-0.4613488667,209.5356667,0.1661336667
263.3,1.195899533,209.431,0.16464
263.2,0.6512446667,209.1656667,0.160867
263.1,-0.2430696667,209.55,0.1663336667
263,-0.1751223333,209.51,0.1657683333
262.9,0.1273443333,209.2936667,0.162685
262.8,0.8202523333,209.5056667,0.165707
262.7,1.137981667,209.0946667,0.159852
262.6,0.1342237733,209.8776667,0.1710016667
262.5,0.7932476667,209.281,0.1625073333
262.4,-0.2335942,209.649,0.1677436667
262.3,0.05971726667,209.7396667,0.169043
262.2,0.6000613333,209.546,0.1662823333
262.1,0.008805333333,209.4976667,0.1655916667
262,-0.3283003667,209.5413333,0.16622
261.9,-0.3836700333,210.2026667,0.175618
261.8,0.0436078,209.3463333,0.163424
261.7,0.1703889,209.8636667,0.170803
261.6,1.123085,209.2693333,0.1623483333
261.5,0.138777,209.1446667,0.1605573333
261.4,1.231302667,209.3283333,0.1631803333
261.3,1.596624667,209.863,0.1707953333
261.2,0.371337,210.155,0.1749376667
261.1,1.188677333,210.0506667,0.1734616667
261,0.7925676667,209.7896667,0.1697533333
260.9,0.09846166667,210.0673333,0.1736966667
260.8,-0.228247,209.9143333,0.171526
260.7,0.627219,210.0733333,0.173777
260.6,0.5702216667,209.8876667,0.171148
260.5,0.8938071,209.798,0.1698716667
260.4,0.693993,210.4256667,0.178783
260.3,-0.9142792333,209.93,0.1717446667
260.2,1.003693333,210.242,0.176179
260.1,0.2551566667,210.6763333,0.1823396667
260,0.496261,210.1636667,0.175074
259.9,0.1901303333,210.4313333,0.1788396667
259.8,1.741038667,210.368,0.1779683333
259.7,0.182382,210.248,0.1762676667
259.6,0.3159983333,210.3366667,0.1775133333
259.5,0.6910347,210.1173333,0.174408
259.4,0.1858716667,209.9816667,0.1724803333
259.3,0.1874226667,210.0763333,0.1738286667
259.2,0.04438966667,210.137,0.174684
259.1,0.01413473333,210.362,0.1778863333
259,0.01431566667,210.2156667,0.175791
258.9,2.163968,210.413,0.178613
258.8,0.8506466667,210.146,0.174813
258.7,0.1696436667,210.1416667,0.1747513333
258.6,-0.002772666667,210.076,0.1738233333
258.5,1.574660333,210.542,0.1804373333
258.4,0.875665,210.4313333,0.178869
258.3,0.4243937333,210.7236667,0.183015
258.2,1.036029,210.6406667,0.181836
258.1,0.4446,210.9726667,0.1865343333
258,1.002813,210.4986667,0.179818
257.9,0.8037153333,210.782,0.1838313333
257.8,0.057044,210.6793333,0.182384
257.7,1.556458667,210.769,0.183635
257.6,0.878713,211.1,0.188339
257.5,0.5457733333,211.3256667,0.191531
257.4,0.2681016667,210.2876667,0.1768236667
257.3,-0.496966,210.9676667,0.1864636667
257.2,0.56534,210.8146667,0.184305
257.1,1.0259982,211.0136667,0.1871016667
257,0.7157776667,211.2863333,0.1909763333
256.9,0.9114926667,210.6133333,0.1814523333
256.8,2.55914,210.83,0.1845183333
256.7,1.076140333,210.773,0.1837103333
256.6,0.755774,211.1696667,0.1893223333
256.5,-0.1851833333,210.803,0.1841376667
256.4,0.4812059567,210.777,0.183772
256.3,-0.02655426667,211.1116667,0.188508
256.2,1.599076667,211.246,0.1904113333
256.1,-0.01424333333,210.6413333,0.1818156667
256,0.718817,211.3123333,0.191346
255.9,0.7400036667,211.2133333,0.1899403333
255.8,0.9680143,211.7783333,0.1979273333
255.7,1.53745,211.1753333,0.189409
255.6,0.129018,210.983,0.1866873333
255.5,0.3732732667,211.509,0.1941273333
255.4,-0.3909663333,211.656,0.1961976667
255.3,2.600900667,211.686,0.1966236667
255.2,-0.2862327667,211.4823333,0.193739
255.1,0.7885233333,211.685,0.1966136667
255,-0.08411866667,211.93,0.200067
254.9,0.5517271,211.4103333,0.192728
254.8,-0.2460153,212.0146667,0.2012473333
254.7,1.20933622,211.7683333,0.197791
254.6,0.7774303333,211.4863333,0.193806
254.5,0.22468434,211.7366667,0.1973256667
254.4,-0.05217,211.4883333,0.1938336667
254.3,-0.9223866667,211.6646667,0.1963236667
254.2,1.033615,211.7823333,0.1979826667
254.1,0.325425,211.9996667,0.201045
254,0.8679775933,212.064,0.2019583333
253.9,1.089118833,212.4833333,0.207867
253.8,0.9784393333,211.5163333,0.1942133333
253.7,-0.2293486667,212.0963333,0.2024206667
253.6,0.217424,211.839,0.198786
253.5,0.354993,212.0493333,0.2017536667
253.4,-0.1067604333,212.2926667,0.2051823333
253.3,0.5979536667,211.8063333,0.1983113333
253.2,0.6683376667,212.629,0.2099176667
253.1,1.360337333,212.0263333,0.201427
253,-0.2326498333,212.065,0.2019783333
252.9,1.093757667,212.888,0.213557
252.8,0.7188656667,212.6596667,0.2103326667
252.7,1.087591,212.4286667,0.207094
252.6,0.3401313333,211.9866667,0.200872
252.5,1.213907767,213.0196667,0.2154003333
252.4,1.3433222,212.395,0.2066196667
252.3,1.054670667,213.0873333,0.216359
252.2,0.492559,212.5543333,0.2088676667
252.1,0.7064623333,212.8206667,0.2126193333
252,0.444539,213.153,0.2172813333
251.9,0.205856,213.1466667,0.217186
251.8,0.6816054667,212.5886667,0.209336
251.7,-0.007288333333,212.2556667,0.204657
251.6,0.652237,212.373,0.206312
251.5,1.564276667,212.079,0.2021636667
251.4,-0.1726446667,212.537,0.208615
251.3,-0.8458866667,213.001,0.2151446667
251.2,0.9736643333,212.6746667,0.2105636667
251.1,0.1249353333,213.1646667,0.217438
251,0.3483786667,212.3286667,0.2056853333
250.9,1.378832,213.2286667,0.2183483333
250.8,-0.3636998333,213.457,0.2215476667
250.7,-0.02084733333,212.968,0.214689
250.6,0.8964406667,212.501,0.208101
250.5,-0.083446,213.3583333,0.2201666667
250.4,0.56930334,213.2533333,0.2186926667
250.3,0.588271,213.2473333,0.2186076667
250.2,-0.4189696667,212.835,0.212816
250.1,1.007642333,212.98,0.2148426667
250,-0.0494,212.9916667,0.2150116667
249.9,-0.04390066667,213.9166667,0.227987
249.8,1.403586,213.464,0.221641
249.7,0.2850823333,213.3346667,0.2198316667
249.6,0.3854746667,213.1216667,0.2168406667
249.5,0.028325,213.1713333,0.2175413333
249.4,-0.6770746667,213.3986667,0.220728
249.3,0.007676766667,213.1413333,0.2171193333
249.2,-0.1865283333,213.3786667,0.220448
249.1,-0.3369533333,213.136,0.2170353333
249,0.14472,213.0893333,0.2163873333
248.9,-0.135557,213.495,0.222084
248.8,0.2228026333,213.1366667,0.21705
248.7,-0.6964353333,213.364,0.2202456667
248.6,-0.6270786667,213.3213333,0.2196476667
248.5,0.239121,213.2453333,0.218577
248.4,0.1086113333,213.349,0.220026
248.3,-0.2735641,214.0306667,0.2295783333
248.2,0.2366423333,213.7243333,0.2252943333
248.1,-0.4743036667,214.0826667,0.2303096667
248,-0.7658733333,213.935,0.228242
247.9,0.1132140667,213.4053333,0.2208233333
247.8,-0.4645443333,213.9203333,0.2280333333
247.7,-0.1780803333,214.1293333,0.2309626667
247.6,-0.5094466667,213.9776667,0.2288466667
247.5,-1.352148,214.6876667,0.2387686667
247.4,-0.9007473867,214.157,0.231354
247.3,-0.02499233333,213.98,0.2288623333
247.2,-1.237649467,214.1423333,0.2311446667
247.1,-0.559319,214.642,0.238132
247,-0.2393472,214.606,0.2376146667
246.9,-1.088579667,214.285,0.233141
246.8,-1.204958333,214.5153333,0.2363596667
246.7,-0.1658823333,215.0103333,0.2432676667
246.6,0.276765,214.79,0.2401823333
246.5,-1.113944333,214.8146667,0.2405393333
246.4,-0.573145,214.568,0.2370833333
246.3,-0.2024501667,214.546,0.2367916667
246.2,-1.194616667,214.808,0.240444
246.1,-0.2798936667,214.621,0.237837
246,-0.1729873333,214.91,0.24186
245.9,-1.521731,215.1113333,0.2446736667
245.8,-1.272033167,214.7876667,0.2401583333
245.7,-0.9993363333,214.6956667,0.238879
245.6,-0.4548246667,215.0613333,0.243979
245.5,-2.061918,215.1813333,0.245652
245.4,-1.532016667,214.651,0.2382336667
245.3,-0.9844556667,215.5323333,0.250531
245.2,-0.91813,215.2953333,0.2472076667
245.1,-2.084253333,215.4796667,0.2497903333
245,-1.000322,214.9636667,0.242607
244.9,-1.421557667,215.1483333,0.245174
244.8,-1.396846833,215.2493333,0.2465903333
244.7,-2.037992667,215.8223333,0.2545653333
244.6,-0.7992043333,215.425,0.2490336667
244.5,-0.987339,216.3433333,0.2617556667
244.4,-1.71591,215.5376667,0.250605
244.3,-0.7423773333,215.771,0.253851
244.2,-1.496177,215.6056667,0.2515566667
244.1,-0.9021143333,215.5756667,0.2511416667
244,-1.184044667,215.604,0.2515226667
243.9,-1.072042,215.906,0.2557306667
243.8,-2.67029,215.5893333,0.2513173333
243.7,-2.467406667,215.554,0.2508376667
243.6,-2.537916667,215.726,0.253232
243.5,-2.293748333,216.1003333,0.2584236667
243.4,-1.308508293,216.2546667,0.2605713333
243.3,-2.661896667,216.382,0.262341
243.2,-1.865500333,216.1713333,0.259417
243.1,-1.394007667,216.2303333,0.260228
243,-0.6512636,216.215,0.2600193333
242.9,-2.524076667,216.3763333,0.2622573333
242.8,-2.777693333,216.3653333,0.262102
242.7,-2.310243333,216.734,0.267204
242.6,-2.939333333,216.7553333,0.267508
242.5,-2.57447,216.639,0.265892
242.4,-2.368113333,217.096,0.272219
242.3,-4.32739,217.5583333,0.2786036667
242.2,-3.317956667,217.236,0.2741586667
242.1,-2.930303333,217.4426667,0.2770146667
242,-2.910256667,217.0643333,0.2717883333
241.9,-3.134,217.1063333,0.2723626667
241.8,-4.02918,217.3416667,0.2756193333
241.7,-4.020693333,217.3966667,0.276375
241.6,-2.881086667,217.0163333,0.2711236667
241.5,-3.481136667,217.9996667,0.2846966667
241.4,-2.897983333,218.0413333,0.2852713333
241.3,-4.42997,217.9093333,0.2834533333
241.2,-4.11397,218.2886667,0.2886663333
241.1,-5.12572,218.1226667,0.2863956667
241,-4.468183333,217.9006667,0.283335
240.9,-4.36312,217.9116667,0.283479
240.8,-4.570773333,218.221,0.2877456667
240.7,-4.51014,218.1953333,0.2873796667
240.6,-4.70688,217.996,0.2846436667
240.5,-5.310313333,218.553,0.292316
240.4,-3.887373333,218.6383333,0.293487
240.3,-6.849376667,219.167,0.3007533333
240.2,-4.79662,219.071,0.299436
240.1,-5.465793333,219.089,0.299681
240,-6.780406667,218.7063333,0.294426
239.9,-6.508826667,219.1096667,0.2999653333
239.8,-5.08003,219.0216667,0.2987573333
239.7,-5.732806667,219.5473333,0.3059676667
239.6,-6.70922,219.5286667,0.3057136667
239.5,-6.194233333,219.4993333,0.3053106667
239.4,-5.801026667,219.4206667,0.3042336667
239.3,-7.64316,220.026,0.312524
239.2,-6.37217,220.2226667,0.315209
239.1,-7.161116667,220.4686667,0.3185686667
239,-6.844273333,220.511,0.319147
238.9,-7.222863333,220.5293333,0.319398
238.8,-7.39541,220.2946667,0.316195
238.7,-7.054893333,220.6973333,0.3216883333
238.6,-7.770446667,221.278,0.3296066667
238.5,-8.529336667,221.1243333,0.3275113333
238.4,-8.047943333,221.02,0.326091
238.3,-9.191073333,221.1643333,0.3280506667
238.2,-8.19539,221.6956667,0.335275
238.1,-10.08570667,221.9876667,0.339253
238,-9.591726667,221.908,0.3381706667
237.9,-8.621576667,221.586,0.3337953333
237.8,-9.798903333,222.255,0.3428813333
237.7,-9.787566667,222.178,0.3418306667
237.6,-9.09227,221.7526667,0.3360663333
237.5,-11.22086667,222.5186667,0.3464603333
237.4,-10.35654,222.449,0.345512
237.3,-10.42191667,222.342,0.3440456667
237.2,-11.88496667,222.8676667,0.351181
237.1,-10.72657667,222.5376667,0.3466996667
237,-10.71334667,223.041,0.353528
236.9,-10.92026667,223.339,0.3575553333
236.8,-11.30696667,223.224,0.3560013333
236.7,-12.59646667,223.4923333,0.359625
236.6,-12.6608,223.4123333,0.3585326667
236.5,-13.5834,223.819,0.3640353333
236.4,-13.27966667,224.216,0.369373
236.3,-13.54246667,223.7246667,0.362757
236.2,-13.5749,224.3693333,0.3714473333
236.1,-14.02283333,224.7636667,0.376752
236,-13.9754,224.071,0.36743
235.9,-13.45829333,224.7206667,0.3761726667
235.8,-13.4917,224.7803333,0.3769746667
235.7,-14.9442,225.019,0.3801823333
235.6,-13.55763333,225.1683333,0.3821856667
235.5,-16.36843333,225.5076667,0.3867346667
235.4,-16.44153333,225.3553333,0.3846686667
235.3,-14.66526667,225.4983333,0.386611
235.2,-18.2213,225.7886667,0.3904956667
235.1,-16.42243333,225.9076667,0.392092
235,-16.65176667,225.9943333,0.3932523333
234.9,-16.92953333,226.1273333,0.395036
234.8,-16.2689,226.663,0.402188
234.7,-17.72993333,226.466,0.399551
234.6,-16.98143333,226.765,0.4035453333
234.5,-17.8129,226.8746667,0.405018
234.4,-16.6691,227.3626667,0.4115163333
234.3,-17.3565,227.8536667,0.4180393333
234.2,-18.45413333,227.6176667,0.414909
234.1,-19.32083333,227.896,0.418608
234,-19.027,228.036,0.4204686667
233.9,-19.15033333,228.379,0.4250193333
233.8,-20.68653333,228.4773333,0.426326
233.7,-20.10703333,228.6876667,0.429114
233.6,-20.92726667,228.4773333,0.426323
233.5,-20.57063333,229.0746667,0.434239
233.4,-22.22066667,229.1276667,0.4349406667
233.3,-22.0751,229.133,0.435004
233.2,-21.43273333,229.3793333,0.4382643333
233.1,-21.79716667,229.38,0.4382763333
233,-23.19326667,229.757,0.443249
232.9,-23.4313,229.5926667,0.4410836667
232.8,-23.96316667,230.0996667,0.4477636667
232.7,-23.62516667,229.9923333,0.4463546667
232.6,-24.29496667,230.5736667,0.4540186667
232.5,-23.98376667,230.7316667,0.4560926667
232.4,-24.3403,231.437,0.4653543333
232.3,-25.46116667,231.3636667,0.464398
232.2,-24.17293333,230.9686667,0.4592083333
232.1,-24.8789,231.8863333,0.4712493333
232,-25.37926667,231.9976667,0.4726953333
231.9,-27.33293333,232.141,0.4745773333
231.8,-26.97883333,232.15,0.474694
231.7,-27.5806,233.0973333,0.487073
231.6,-26.27696667,233.178,0.4881286667
231.5,-27.8428,233.143,0.487667
231.4,-27.07943333,232.5053333,0.4793443333
231.3,-28.55666667,233.6856667,0.494741
231.2,-28.2982,233.734,0.4953706667
231.1,-28.64536667,233.2726667,0.4893663333
231,-29.7973,233.3713333,0.4906443333
230.9,-29.1731,233.8,0.4962266667
230.8,-30.5626,233.8576667,0.4969756667
230.7,-28.8834,234.0906667,0.5000053333
230.6,-30.02816667,234.284,0.5025203333
230.5,-31.21643333,234.134,0.5005666667
230.4,-29.95666667,234.3646667,0.5035556667
230.3,-31.06646667,235.4156667,0.5171823333
230.2,-31.52473333,234.7673333,0.508791
230.1,-30.49976667,234.756,0.508646
230,-32.07663333,235.1066667,0.5131856667
229.9,-31.62516667,235.3516667,0.516356
229.8,-33.1886,235.7356667,0.521326
229.7,-32.51163333,235.2573333,0.515135
229.6,-32.95303333,235.7016667,0.5208876667
229.5,-33.53266667,236.0106667,0.5248763333
229.4,-33.36256667,236.462,0.5306816667
229.3,-34.89916667,236.417,0.5301133333
229.2,-32.75953333,236.9023333,0.5363663333
229.1,-35.6644,236.7516667,0.5344303333
229,-34.8664,236.9933333,0.5375393333
228.9,-35.40676667,237.627,0.5456796667
228.8,-34.52536667,237.085,0.5387203333
228.7,-36.7849,238.1843333,0.5528276667
228.6,-36.8391,237.9166667,0.549402
228.5,-36.89293333,238.3996667,0.5555836667
228.4,-36.3065,238.3966667,0.5555433333
228.3,-36.89326667,238.93,0.5623623333
228.2,-37.4521,239.762,0.5729746667
228.1,-38.16643333,239.325,0.5673963333
228,-39.33873333,239.354,0.567783
227.9,-38.51523333,239.673,0.571845
227.8,-38.86643333,240.3193333,0.580072
227.7,-40.3788,240.6403333,0.584161
227.6,-38.84323333,240.902,0.5874796667
227.5,-40.60263333,240.9973333,0.5886916667
227.4,-40.5418,241.107,0.590082
227.3,-40.29883333,241.0963333,0.589942
227.2,-41.42666667,241.264,0.5920736667
227.1,-40.46596667,241.691,0.5974823333
227,-39.82003333,241.4626667,0.5945796667
226.9,-41.161,242.258,0.604648
226.8,-40.5912,242.4823333,0.6074856667
226.7,-41.57493333,242.4466667,0.6070286667
226.6,-41.4071,243.001,0.614024
226.5,-41.79353333,243.0146667,0.614192
226.4,-43.19173333,242.9343333,0.6131826667
226.3,-43.6574,242.7656667,0.6110486667
226.2,-43.07093333,243.6036667,0.621613
226.1,-40.8235,243.632,0.6219606667
226,-42.26953333,243.9416667,0.6258566667
225.9,-44.26413333,243.8813333,0.6250853333
225.8,-41.65776667,244.564,0.6336686667
225.7,-44.04816667,244.634,0.63454
225.6,-45.06803333,244.0893333,0.627713
225.5,-43.8422,245.1413333,0.6408926667
225.4,-45.29433333,244.948,0.6384593333
225.3,-44.0212,244.732,0.6357723333
225.2,-43.947,245.3736667,0.643798
225.1,-44.22096667,245.8283333,0.6494806667
225,-45.5182,246.14,0.6533683333
224.9,-46.02466667,246.179,0.6538466667
224.8,-45.8004,246.3333333,0.655776
224.7,-45.44013333,246.6456667,0.659663
224.6,-45.06113333,246.505,0.6579193333
224.5,-46.39503333,246.6203333,0.6593493333
224.4,-47.4765,247.2526667,0.6672106667
224.3,-46.12573333,247.137,0.665777
224.2,-47.11726667,248.1903333,0.6788393333
224.1,-46.24586667,247.578,0.6712516667
224,-46.60453333,248.1603333,0.6784703333
223.9,-46.98073333,247.8716667,0.6748956667
223.8,-47.85556667,248.059,0.677211
223.7,-48.17486667,248.7033333,0.6851766667
223.6,-46.44733333,248.5483333,0.683262
223.5,-46.82736667,248.9296667,0.6879833333
223.4,-47.4501,249.61,0.6963753333
223.3,-47.54366667,249.6416667,0.6967683333
223.2,-48.3214,249.9303333,0.700324
223.1,-47.50973333,249.967,0.7007773333
223,-48.29233333,250.419,0.7063306667
222.9,-47.07313333,251.0703333,0.7143326667
222.8,-47.22436667,250.5776667,0.7082826667
222.7,-47.3569,251.659,0.7215386667
222.6,-48.82713333,251.4143333,0.7185466667
222.5,-47.73736667,251.2703333,0.7167826667
222.4,-48.3844,252.0403333,0.7262016667
222.3,-50.32713333,251.3133333,0.717304
222.2,-47.84503333,251.819,0.72349
222.1,-48.73416667,252.3843333,0.730411
222,-48.45556667,252.101,0.7269476667
221.9,-45.89983333,252.7303333,0.7346246667
221.8,-47.4743,253.61,0.74535
221.7,-47.75886667,253.398,0.7427673333
221.6,-46.8525,253.8863333,0.7487096667
221.5,-49.71396667,253.8963333,0.7488346667
221.4,-46.71856667,253.9276667,0.749209
221.3,-50.4238,254.1783333,0.7522506667
221.2,-48.47473333,254.2803333,0.7534863333
221.1,-49.04246667,254.576,0.7570753333
221,-48.53193333,255.039,0.7626906667
220.9,-48.91586667,255.032,0.7626036667
220.8,-48.65303333,255.618,0.769694
220.7,-48.76626667,255.6696667,0.7703183333
220.6,-49.4119,256.0476667,0.7748803333
220.5,-47.3541,256.6096667,0.781653
220.4,-50.1667,256.8903333,0.785028
220.3,-48.71866667,256.4836667,0.7801356667
220.2,-49.13943333,256.8753333,0.7848513333
220.1,-47.0325,257.162,0.7883046667
220,-48.05606667,256.9693333,0.785981
219.9,-49.7228,257.8013333,0.7959776667
219.8,-49.26873333,257.482,0.7921443333
219.7,-46.8074,258.5603333,0.805076
219.6,-46.83136667,258.339,0.802428
219.5,-47.81923333,258.5526667,0.8049856667
219.4,-50.17636667,259.07,0.8111706667
219.3,-48.9997,258.993,0.8102456667
219.2,-47.99286667,259.469,0.8159273333
219.1,-48.13206667,259.2323333,0.8131106667
219,-49.7661,259.9493333,0.821666
218.9,-48.71006667,259.5033333,0.8163483333
218.8,-46.6263,260.406,0.827095
218.7,-47.86036667,259.9683333,0.8218926667
218.6,-46.64293333,260.661,0.8301313333
218.5,-47.71976667,260.6853333,0.8304216667
218.4,-47.39163333,260.3856667,0.8268353333
218.3,-47.85703333,261.3183333,0.8379393333
218.2,-46.95693333,261.48,0.839857
218.1,-47.32746667,261.33,0.8380766667
218,-48.11926667,261.622,0.8415423333
217.9,-46.83423333,262.1883333,0.8482483333
217.8,-47.85546667,262.5513333,0.852542
217.7,-48.4392,262.75,0.85489
217.6,-46.32306667,262.6473333,0.8536766667
217.5,-47.4026,263.6243333,0.865196
217.4,-48.18463333,263.774,0.866964
217.3,-47.06643333,263.9646667,0.8692086667
217.2,-48.36526667,264.1036667,0.870843
217.1,-47.78986667,264.659,0.8773726667
217,-46.2547,264.3626667,0.8738726667
216.9,-48.0575,265.3943333,0.8859916667
216.8,-46.354,265.401,0.8860716667
216.7,-47.84896667,265.7196667,0.8897986667
216.6,-46.19756667,265.3426667,0.8853856667
216.5,-46.88523333,265.9693333,0.8927176667
216.4,-47.66656667,266.3043333,0.8966306667
216.3,-47.825,266.565,0.8996716667
216.2,-47.88676667,266.2516667,0.8960183333
216.1,-46.9281,267.2833333,0.9080493333
216,-48.00143333,267.822,0.9143193333
215.9,-46.84826667,267.7993333,0.9140573333
215.8,-47.30093333,268.319,0.920085
215.7,-46.70673333,267.8006667,0.9140576667
215.6,-48.09596667,268.4766667,0.921922
215.5,-45.78673333,268.643,0.9238476667
215.4,-48.35816667,269.0066667,0.9280683333
215.3,-47.8654,269.2616667,0.931015
215.2,-46.44136667,269.625,0.935222
215.1,-46.09683333,269.9796667,0.939315
215,-46.55013333,269.8516667,0.9378363333
214.9,-46.84996667,270.59,0.946362
214.8,-47.08913333,271.01,0.9512003333
214.7,-45.87583333,270.9296667,0.9502716667
214.6,-45.5274,271.348,0.955088
214.5,-48.8424,271.2613333,0.9540896667
214.4,-46.08756667,271.633,0.9583623333
214.3,-47.0363,271.7056667,0.9591933333
214.2,-46.88983333,272.288,0.9658786667
214.1,-49.3117,272.8163333,0.971937
214,-47.12796667,272.5726667,0.969139
213.9,-48.0453,272.8446667,0.972257
213.8,-48.95206667,273.581,0.9806773333
213.7,-48.43586667,274.2406667,0.9882063333
213.6,-48.59276667,273.5833333,0.9807033333
213.5,-48.69983333,274.284,0.988693
213.4,-48.4226,274.3863333,0.989861
213.3,-47.43943333,275.027,0.9971543333
213.2,-47.27893333,275.657,1.004302333
213.1,-46.85733333,275.971,1.00787
213,-47.84653333,275.98,1.00797
212.9,-45.892,275.963,1.007775
212.8,-49.9479,277.022,1.019756667
212.7,-47.8755,277.0093333,1.019623333
212.6,-50.89553333,277.641,1.02676
212.5,-48.7852,277.8236667,1.02882
212.4,-48.95726667,278.3723333,1.035003333
212.3,-47.36143333,278.7006667,1.038696667
212.2,-48.65776667,278.3726667,1.03501
212.1,-49.82543333,279.559,1.04834
212,-49.87726667,279.5966667,1.048763333
211.9,-47.95876667,280.173,1.05522
211.8,-50.30203333,280.4266667,1.058063333
211.7,-50.22496667,280.6416667,1.06047
211.6,-49.83496667,280.8693333,1.06301
211.5,-48.8804,281.7673333,1.073033333
211.4,-50.16343333,282.449,1.080616667
211.3,-50.40096667,282.298,1.078943333
211.2,-52.45176667,283.3143333,1.09023
211.1,-48.47913333,283.5516667,1.092866667
211,-50.30016667,283.1746667,1.08868
210.9,-47.98383333,283.747,1.09503
210.8,-50.21933333,284.758,1.106216667
210.7,-52.21846667,285.1836667,1.110913333
210.6,-49.5031,285.2643333,1.1118
210.5,-50.33983333,285.865,1.11843
210.4,-51.34216667,286.406,1.124376667
210.3,-51.34706667,286.2053333,1.12217
210.2,-52.0271,287.0716667,1.13169
210.1,-51.37293333,287.3453333,1.134696667
210,-53.4057,287.9283333,1.14108
209.9,-52.30853333,288.355,1.14575
209.8,-51.13173333,289.3703333,1.156826667
209.7,-52.06,290.244,1.16634
209.6,-53.4014,290.343,1.167423333
209.5,-49.83416667,290.9193333,1.17368
209.4,-51.55,291.5663333,1.18069
209.3,-51.5011,292.154,1.187056667
209.2,-53.8427,292.694,1.192886667
209.1,-51.42283333,293.2336667,1.19871
209,-53.76516667,293.5536667,1.202156667
208.9,-51.8859,293.836,1.20519
208.8,-52.39316667,294.8256667,1.215833333
208.7,-52.50803333,295.2046667,1.219896667
208.6,-50.37996667,295.757,1.225816667
208.5,-49.62706667,295.998,1.228393333
208.4,-49.6961,296.9186667,1.23823
208.3,-52.20456667,297.312,1.24243
208.2,-52.55876667,298.291,1.252843333
208.1,-50.73883333,298.5523333,1.25562
208,-52.77503333,299.4916667,1.265583333
207.9,-53.16066667,300.66,1.277933333
207.8,-51.549,301.2623333,1.284296667
207.7,-51.9196,301.4186667,1.285943333
207.6,-48.86096667,302.198,1.294136667
207.5,-48.12676667,302.84,1.300886667
207.4,-51.2966,303.597,1.308826667
207.3,-50.098,304.0823333,1.313906667
207.2,-49.18106667,304.793,1.321333333
207.1,-45.9138,305.949,1.333376667
207,-48.1185,306.1713333,1.335693333
206.9,-45.2613,306.643,1.340596667
206.8,-43.98973333,307.3473333,1.3479
206.7,-45.78763333,308.596,1.360826667
206.6,-47.08146667,308.9193333,1.36416
206.5,-47.44023333,309.3353333,1.368456667
206.4,-43.60293333,310.772,1.383236667
206.3,-47.72033333,311.0743333,1.386343333
206.2,-45.19586667,312.388,1.399803333
206.1,-40.6673,313.1426667,1.407513333
206,-43.3589,313.998,1.416236667
205.9,-40.0539,314.3963333,1.42029
205.8,-42.9778,315.0516667,1.426953333
205.7,-44.96183333,316.2776667,1.439373333
205.6,-41.88846667,317.0013333,1.44669
205.5,-34.67503333,317.9733333,1.456506667
205.4,-35.75526667,318.1763333,1.458543333
205.3,-41.92613333,319.0986667,1.467826667
205.2,-39.5315,320.7936667,1.48482
205.1,-30.08853333,321.7503333,1.49438
205,-34.3712,322.1163333,1.49802
204.9,-38.64386667,323.7546667,1.51432
204.8,-32.1559,324.3853333,1.52058
204.7,-36.55393333,325.4596667,1.53121
204.6,-32.2663,326.795,1.54439
204.5,-32.1323,326.9723333,1.546126667
204.4,-25.9744,327.9626667,1.555866667
204.3,-29.72926667,329.9796667,1.575626667
204.2,-27.35816667,330.3696667,1.57943
204.1,-26.11106667,331.385,1.58933
204,-28.1566,332.5906667,1.60105
203.9,-25.07303333,334.104,1.615706667
203.8,-19.32423333,334.856,1.62297
203.7,-23.99546667,336.1816667,1.635743333
203.6,-27.74116667,337.1786667,1.64532
203.5,-21.62433333,338.977,1.662533333
203.4,-15.06865667,339.6796667,1.66924
203.3,-20.16963333,340.6993333,1.67895
203.2,-17.58196667,341.625,1.68775
203.1,-20.60296667,342.807,1.69894
203,-17.62916667,343.942,1.709676667
202.9,-16.49023333,343.944,1.709693333
202.8,-12.5394,346.273,1.731606667
202.7,-14.00969,346.6246667,1.73491
202.6,-11.18666667,348.384,1.751366667
202.5,-7.592923333,349.3176667,1.760066667
202.4,-10.00780667,350.4786667,1.770873333
202.3,-11.21393333,352.4716667,1.78934
202.2,-2.913294333,353.2973333,1.79697
202.1,-5.54619,354.062,1.804016667
202,-4.97609,356.766,1.828843333
201.9,-3.15275,357.0953333,1.831843333
201.8,-1.816696667,360.3846667,1.86181
201.7,-0.8718866667,361.0316667,1.867676667
201.6,0.1554166667,361.705,1.873783333
201.5,3.941523333,362.476,1.88075
201.4,0.571807,364.9566667,1.903086667
201.3,6.656306667,366.3526667,1.91561
201.2,2.14764,367.626,1.92699
201.1,3.728875,369.6973333,1.94543
201,9.11367,371.205,1.9588
200.9,9.384113333,372.0566667,1.96633
200.8,14.1528,373.4816667,1.9789
200.7,11.97721,374.883,1.991223333
200.6,13.53225,376.2793333,2.003463333
200.5,10.48717,377.6136667,2.01512
200.4,9.810743333,380.3006667,2.0385
200.3,15.3617,381.6583333,2.05026
200.2,13.54263667,382.9523333,2.061433333
200.1,25.16023333,385.5636667,2.083886667
200,20.93383333,386.6616667,2.093293333
199.9,18.34363333,388.1666667,2.10614
199.8,19.2245,389.746,2.119583333
199.7,27.0069,391.9723333,2.13846
199.6,21.2006,393.2086667,2.148903333
199.5,23.45786667,395.3663333,2.167056667
199.4,27.66903333,396.063,2.172903333
199.3,23.64773333,398.1196667,2.190106667
199.2,24.76216667,399.0673333,2.19801
199.1,35.48773333,400.82,2.212583333
199,31.23723333,402.7386667,2.228473333
198.9,31.37663333,403.7663333,2.236956667
198.8,34.1553,406.972,2.263313333
198.7,34.52953333,408.221,2.273533333
198.6,38.16813333,409.762,2.28611
198.5,35.75713333,411.5323333,2.3005
198.4,35.9798,413.6216667,2.31743
198.3,33.8819,416.0703333,2.33717
198.2,34.19346667,417.7586667,2.35073
198.1,32.94733333,418.9696667,2.360423333
198,30.67523333,420.3006667,2.371053333
197.9,39.0809,422.714,2.39025
197.8,34.43233333,424.6656667,2.40571
197.7,46.71936667,426.2886667,2.41852
197.6,37.09296667,428.0093333,2.432056667
197.5,43.05393333,429.953,2.44729
197.4,31.04436667,432.167,2.464573333
197.3,35.35593333,433.918,2.47819
197.2,35.34626667,435.341,2.48922
197.1,37.12293333,437.3503333,2.504743333
197,43.1512,439.81,2.523666667
196.9,46.89283333,440.8826667,2.531896667
196.8,42.70486667,443.9133333,2.555036667
196.7,38.4135,445.4443333,2.566683333
196.6,38.3684,447.2546667,2.580406667
196.5,46.31696667,449.076,2.594166667
196.4,42.459,451.0723333,2.60919
196.3,48.45976667,453.1516667,2.624773333
196.2,38.85406667,455.4796667,2.64217
196.1,45.2045,457.217,2.655096667
196,41.1423,459.1413333,2.669366667
195.9,43.1383,461.6313333,2.687743333
195.8,40.666,464.123,2.70607
195.7,48.2685,465.2893333,2.714616667
195.6,38.26946667,467.5916667,2.73143
195.5,38.43383333,468.736,2.739763333
195.4,44.17546667,470.4336667,2.752093333
195.3,39.32816667,472.7536667,2.768883333
195.2,38.48713333,474.246,2.77964
195.1,39.09396667,475.4746667,2.78848
195,41.32506667,477.865,2.80562
194.9,43.39303333,478.821,2.812456667
194.8,43.24503333,480.0963333,2.821556667
194.7,42.81116667,482.0486667,2.835453333
194.6,44.40046667,483.389,2.84496
194.5,43.16503333,485.3256667,2.858656667
194.4,40.9355,487.5446667,2.874303333
194.3,45.37096667,489.0916667,2.885173333
194.2,37.276,490.2503333,2.893293333
194.1,31.50806667,493.2636667,2.91434
194,35.62533333,494.594,2.9236
193.9,34.80013333,497.377,2.9429
193.8,42.44126667,499.7406667,2.959213333
193.7,39.81986667,501.295,2.969906667
193.6,40.95776667,503.0233333,2.981773333
193.5,39.08386667,504.493,2.991826667
193.4,35.40533333,506.042,3.002403333
193.3,39.10346667,506.695,3.00685
193.2,39.1751,508.949,3.022173333
193.1,35.29803333,510.3256667,3.0315
193,38.80383333,512.0343333,3.043046667
192.9,33.1614,513.5353333,3.053163333
192.8,35.82206667,515.8346667,3.068616667
192.7,37.83053333,517.0286667,3.076623333
192.6,32.7867,519.5976667,3.09378
192.5,36.8605,521.4066667,3.105823333
192.4,39.76303333,523.2626667,3.118146667
192.3,29.52356667,525.57,3.133406667
192.2,37.01973333,527.831,3.148306667
192.1,35.58283333,528.5643333,3.153123333
192,36.40236667,530.3106667,3.164586667
191.9,32.34826667,533.5086667,3.18548
191.8,26.70183333,534.41,3.191356667
191.7,27.59673333,535.54,3.198703333
191.6,26.35486667,537.564,3.21183
191.5,32.65326667,539.453,3.224053333
191.4,31.5617,541.4303333,3.2368
191.3,29.19173333,543.3643333,3.249236667
191.2,31.0997,545.632,3.26376
191.1,34.06233333,548.0393333,3.279126667
191,23.3257,550.5846667,3.295316667
190.9,27.9096,553.52,3.313906667
190.8,29.6747,555.776,3.328133333
190.7,26.74896667,558.6033333,3.345893333
190.6,25.0724,560.6753333,3.35887
190.5,27.03846667,563.123,3.374136667
190.4,26.07103333,565.777,3.390633333
190.3,23.8472,568.0586667,3.40475
190.2,15.88783333,569.9556667,3.416463333
190.1,22.56873333,572.107,3.4297
190,24.19393333,574.796,3.44619
,,,
##### Extended Information,,,
[Comments],,,
Sample name,KMGM_BUFFER&PROTEIN_928_Averages,,
Comment,BUFFER  AND PROTEIN,,
User,KYLE MURPHY,,
Division,,,
Company,Saint Mary's College,,
,,,
[Detailed Information],,,
Creation date,9/28/2022 3:18 PM,,
,,,
Data array type,Linear data array * 3,,
Horizontal axis,Wavelength [nm],,
Vertical axis(1),CD [mdeg],,
Vertical axis(2),HT [V],,
Vertical axis(3),Abs,,
Start,320 nm,,
End,190 nm,,
Data interval,0.1 nm,,
Data points,1301,,
,,,
[Measurement Information],,,
Instrument name,J-1500,,
Model name,J-1500,,
Serial No.,B051061638,,
,,,
Detector,PM-539,,
Detector S/N,B051061638,,
Lock-in amp.,X mode,,
HT volt,Auto,,
,,,
Accessory,PTC-517,,
Accessory S/N,B026561646,,
Temperature,27.94 C,,
Control sensor,Holder,,
Monitor sensor,Holder,,
,,,
Measurement date,9/28/2022 3:18 PM,,
,,,
CD Overload detect,1021,,
Photometric mode,CD,HT,Abs
Measure range,320 - 190 nm,,
Data pitch,0.1 nm,,
CD scale,20 mdeg/0.05 dOD,,
FL scale,20 mdeg/0.05 dOD,,
D.I.T.,8 msec,,
Bandwidth,2.00 nm,,
Start mode,Immediately,,
Scanning mode,Continuous,,
Scanning speed,200 nm/min,,
Baseline correction,None,,
Shutter control,Auto,,
No. of cycle,1/1,,
N2 Flowmeter,Manual,,
,,,
Solvent,NaPO4 buffer,,