TITLE,KMGM_BUFFER_928
DATA TYPE,
ORIGIN,JASCO
OWNER,
DATE,22/09/28
TIME,15:02:10
SPECTROMETER/DATA SYSTEM,
LOCALE,1033
RESOLUTION,
DELTAX,-0.1
XUNITS,NANOMETERS
YUNITS,CD [mdeg]
Y2UNITS,HT [V]
Y3UNITS,ABSORBANCE
FIRSTX,  320.0000
LASTX,  190.0000
NPOINTS,    1301
FIRSTY,     1.05770
MAXY,     6.70856
MINY,    -5.18966
XYDATA
320.0000,1.0577,208.444,0.150555
319.9000,1.96461,208.518,0.151625
319.8000,1.6803,208.82,0.155931
319.7000,1.27186,208.237,0.147605
319.6000,0.578433,208.031,0.144653
319.5000,1.76218,208.299,0.148481
319.4000,2.15268,208.27,0.148075
319.3000,0.971254,207.964,0.143695
319.2000,2.06861,208.198,0.147037
319.1000,2.12277,208.31,0.148643
319.0000,1.55943,208.363,0.149405
318.9000,1.90223,208.154,0.146405
318.8000,1.33954,207.946,0.143435
318.7000,0.159834,208.169,0.146632
318.6000,1.9336,208.415,0.15015
318.5000,1.19723,208.661,0.153665
318.4000,2.90758,208.154,0.146405
318.3000,1.85103,208.447,0.150604
318.2000,-0.870231,208.418,0.150183
318.1000,1.67039,208.006,0.144296
318.0000,2.88885,208.047,0.14488
317.9000,0.717604,208.08,0.145351
317.8000,1.87195,208.081,0.145367
317.7000,1.53788,208.5,0.151366
317.6000,1.99786,208.757,0.155041
317.5000,1.53747,208.422,0.150248
317.4000,2.14526,208.464,0.150847
317.3000,-0.510585,208.463,0.150831
317.2000,1.85357,208.228,0.147476
317.1000,1.56453,208.257,0.147881
317.0000,1.92372,208.548,0.152046
316.9000,1.28179,208.679,0.153924
316.8000,1.03668,207.713,0.140089
316.7000,1.79758,208.092,0.145529
316.6000,1.72678,208.023,0.144539
316.5000,2.34391,207.73,0.140333
316.4000,0.399957,208.163,0.146535
316.3000,1.96488,207.886,0.142574
316.2000,0.8425,207.068,0.130831
316.1000,-0.360225,208.454,0.150701
316.0000,0.127499,208.033,0.144685
315.9000,1.13122,207.756,0.140707
315.8000,0.938431,208.015,0.144425
315.7000,3.70424,208.311,0.148659
315.6000,1.1147,207.138,0.131841
315.5000,0.429731,208.225,0.147427
315.4000,1.23483,208.163,0.146535
315.3000,1.77822,207.89,0.142623
315.2000,-0.0715225,208.054,0.144977
315.1000,1.52717,207.441,0.136187
315.0000,0.778522,208.188,0.146892
314.9000,0.573717,208.117,0.145886
314.8000,2.03384,208.02,0.14449
314.7000,2.49896,207.03,0.130277
314.6000,1.64864,207.802,0.141373
314.5000,0.749502,207.862,0.142234
314.4000,2.53068,207.718,0.140171
314.3000,0.132396,207.407,0.135699
314.2000,2.01487,207.143,0.131906
314.1000,2.35242,208.302,0.148529
314.0000,2.0976,208.054,0.144977
313.9000,1.50947,207.703,0.139943
313.8000,1.23169,207.711,0.140057
313.7000,1.26092,207.071,0.13088
313.6000,1.15983,207.589,0.138318
313.5000,2.60144,207.143,0.131906
313.4000,3.17825,208.218,0.14733
313.3000,1.67253,207.703,0.139943
313.2000,0.306065,208.575,0.152434
313.1000,2.68149,207.588,0.138301
313.0000,2.73376,207.115,0.131499
312.9000,1.09444,207.715,0.140122
312.8000,1.1576,207.417,0.135846
312.7000,0.83724,207.679,0.139602
312.6000,0.0803229,207.324,0.134511
312.5000,1.029,207.803,0.141389
312.4000,0.675765,206.81,0.127115
312.3000,1.85009,207.314,0.134365
312.2000,1.0155,207.812,0.141519
312.1000,0.705268,207.365,0.135097
312.0000,1.25897,207.331,0.134609
311.9000,0.657733,207.151,0.13202
311.8000,0.762205,207.379,0.135292
311.7000,2.29947,207.22,0.133014
311.6000,1.06153,207.448,0.136285
311.5000,-0.221293,207.159,0.132134
311.4000,0.449131,207.863,0.14225
311.3000,0.874125,207.639,0.139033
311.2000,0.620151,207.633,0.138952
311.1000,1.17469,207.355,0.134951
311.0000,2.51165,208.685,0.154005
310.9000,0.857822,207.74,0.140479
310.8000,1.18984,208.491,0.151236
310.7000,1.63783,207.402,0.135634
310.6000,2.45508,206.756,0.126348
310.5000,1.82621,207.526,0.137407
310.4000,1.23478,207.757,0.140723
310.3000,1.32024,207.145,0.131939
310.2000,0.894703,207.784,0.141113
310.1000,1.57821,208.446,0.150588
310.0000,1.22892,207.515,0.137244
309.9000,1.33776,207.892,0.142656
309.8000,2.74844,207.526,0.137407
309.7000,2.75012,207.701,0.139927
309.6000,-0.818101,208.433,0.15041
309.5000,1.677,208.282,0.148238
309.4000,1.04734,208.174,0.146697
309.3000,2.51916,208.048,0.144896
309.2000,1.29454,209.125,0.16028
309.1000,1.18232,207.955,0.143565
309.0000,0.644225,208.373,0.149551
308.9000,-0.291092,207.704,0.139959
308.8000,0.867053,207.706,0.139992
308.7000,3.57843,207.632,0.138935
308.6000,2.29979,207.362,0.135048
308.5000,2.2987,207.492,0.136919
308.4000,3.99498,208.159,0.146486
308.3000,1.13388,206.819,0.127245
308.2000,2.28882,207.61,0.13861
308.1000,2.12385,207.737,0.14043
308.0000,1.53043,207.854,0.14212
307.9000,-0.0997655,207.844,0.141974
307.8000,1.48255,207.222,0.133046
307.7000,1.06299,207.784,0.141113
307.6000,0.986363,207.705,0.139975
307.5000,1.64055,208.024,0.144555
307.4000,2.6169,207.486,0.136838
307.3000,2.52127,207.731,0.140349
307.2000,-0.685449,208.014,0.144409
307.1000,-0.897614,207.281,0.133893
307.0000,3.30577,207.125,0.131646
306.9000,0.896311,207.243,0.133339
306.8000,0.117303,208.086,0.145432
306.7000,1.31548,207.789,0.141178
306.6000,1.13266,207.797,0.141292
306.5000,0.559617,207.59,0.138334
306.4000,3.70711,208.236,0.147589
306.3000,0.716354,207.96,0.14363
306.2000,2.2844,207.914,0.14298
306.1000,-0.430973,207.734,0.140398
306.0000,0.870301,207.425,0.135959
305.9000,2.95003,207.609,0.138594
305.8000,0.474536,207.61,0.13861
305.7000,1.95342,208.001,0.144215
305.6000,-1.19466,207.464,0.136512
305.5000,0.505608,207.551,0.137765
305.4000,1.18285,206.701,0.125549
305.3000,-0.131559,207.814,0.141535
305.2000,0.706405,207.253,0.133486
305.1000,0.949393,208.242,0.14767
305.0000,0.650033,207.125,0.131646
304.9000,0.15357,207.728,0.1403
304.8000,1.65188,207.495,0.136968
304.7000,-0.363396,207.606,0.138561
304.6000,0.826161,207.439,0.136154
304.5000,0.562231,207.207,0.132835
304.4000,0.391825,206.87,0.127979
304.3000,0.873992,207.2,0.13272
304.2000,1.10072,207.224,0.133079
304.1000,0.741981,207.556,0.137846
304.0000,3.46155,207.679,0.139602
303.9000,1.87696,207.261,0.1336
303.8000,2.02676,207.12,0.13158
303.7000,-0.203198,206.619,0.124374
303.6000,1.25113,206.861,0.127848
303.5000,1.85842,207.093,0.131189
303.4000,0.548671,207.943,0.143386
303.3000,1.53714,207.304,0.134218
303.2000,2.04572,207.283,0.133925
303.1000,1.94096,207.246,0.133388
303.0000,1.49685,207.563,0.137943
302.9000,0.243653,207.589,0.138318
302.8000,1.48509,206.609,0.124227
302.7000,-0.0431093,207.394,0.13552
302.6000,1.24205,207.253,0.133486
302.5000,0.230579,207.383,0.135357
302.4000,1.45633,207.456,0.136398
302.3000,2.70821,206.644,0.124733
302.2000,0.0313651,207.18,0.132444
302.1000,1.525,207.347,0.134837
302.0000,1.25373,207.188,0.132557
301.9000,2.27855,208.186,0.146875
301.8000,0.470806,207.624,0.138821
301.7000,0.192906,207.317,0.134413
301.6000,0.984046,206.897,0.12837
301.5000,0.912408,206.733,0.126006
301.4000,1.78441,206.999,0.129837
301.3000,1.18342,207.141,0.131874
301.2000,0.354102,207.684,0.139683
301.1000,1.22188,206.972,0.129446
301.0000,1.10344,207.135,0.131792
300.9000,1.94818,206.688,0.125369
300.8000,2.46664,207.313,0.134348
300.7000,1.92495,207.183,0.132476
300.6000,-0.0907429,206.66,0.124961
300.5000,1.57187,207.362,0.135048
300.4000,0.952269,207.261,0.1336
300.3000,2.22393,206.878,0.128093
300.2000,1.1933,207.068,0.130831
300.1000,1.83228,207.34,0.134739
300.0000,1.88645,207.796,0.141275
299.9000,1.87971,207.345,0.134804
299.8000,0.708201,207.618,0.138724
299.7000,0.700723,206.795,0.126903
299.6000,1.13269,207.009,0.129984
299.5000,2.52105,207.665,0.139407
299.4000,-0.0438355,206.727,0.125924
299.3000,0.229831,207.231,0.133176
299.2000,1.92696,207.118,0.131548
299.1000,1.66278,206.747,0.126217
299.0000,-0.0753864,206.864,0.127897
298.9000,1.69321,207.138,0.131841
298.8000,1.55733,206.849,0.127685
298.7000,0.75637,206.342,0.120373
298.6000,0.715473,206.418,0.121467
298.5000,2.97177,206.494,0.122562
298.4000,2.07616,206.96,0.129283
298.3000,0.992493,206.471,0.122235
298.2000,2.28654,206.226,0.118706
298.1000,0.717476,207.679,0.139602
298.0000,1.62237,206.657,0.124912
297.9000,0.452209,207.015,0.130065
297.8000,0.642158,207.011,0.130016
297.7000,1.85049,205.85,0.113275
297.6000,2.52577,207.545,0.137683
297.5000,1.01929,206.727,0.125924
297.4000,2.53537,207.279,0.13386
297.3000,0.881586,206.854,0.127751
297.2000,2.31364,206.84,0.127555
297.1000,0.918519,206.567,0.123623
297.0000,-0.155292,207.516,0.137261
296.9000,1.72766,206.736,0.126054
296.8000,0.552565,207.646,0.13913
296.7000,1.05026,206.395,0.121141
296.6000,2.09717,207.1,0.131287
296.5000,0.686798,206.741,0.12612
296.4000,0.763967,206.742,0.126136
296.3000,0.693242,206.233,0.118804
296.2000,0.812069,205.955,0.114797
296.1000,-0.275254,206.688,0.125369
296.0000,1.94563,206.6,0.124096
295.9000,0.604279,207.427,0.135992
295.8000,0.978018,207.198,0.132704
295.7000,1.10512,206.958,0.129251
295.6000,0.528458,206.902,0.128436
295.5000,1.00549,206.664,0.12501
295.4000,0.445419,206.623,0.124423
295.3000,2.23559,206.045,0.11609
295.2000,0.641511,206.528,0.123052
295.1000,0.735899,206.52,0.122937
295.0000,0.560496,206.7,0.125532
294.9000,-0.136816,206.462,0.122104
294.8000,1.73131,206.759,0.126381
294.7000,2.11852,207.053,0.130619
294.6000,1.46938,206.479,0.122349
294.5000,0.321074,206.258,0.119164
294.4000,1.67182,205.511,0.108377
294.3000,0.308584,207.418,0.135862
294.2000,1.09209,205.907,0.114093
294.1000,0.666837,206.046,0.116106
294.0000,1.8844,207.316,0.134397
293.9000,0.308507,206.479,0.122349
293.8000,2.52339,206.57,0.123656
293.7000,1.76159,207.312,0.134332
293.6000,2.92551,207.058,0.130684
293.5000,-0.772454,206.099,0.116875
293.4000,2.35101,206.7,0.125532
293.3000,1.60468,207.086,0.131092
293.2000,2.5309,206.162,0.117774
293.1000,-0.372352,206.525,0.123019
293.0000,0.190625,207.062,0.13075
292.9000,-0.0184036,206.285,0.119556
292.8000,0.558097,206.334,0.120258
292.7000,2.19735,207.508,0.137147
292.6000,2.55028,205.727,0.11149
292.5000,0.862886,206.938,0.128957
292.4000,0.200007,206.009,0.115566
292.3000,-0.0406384,206.523,0.122986
292.2000,0.920857,206.691,0.125402
292.1000,1.24026,205.382,0.106507
292.0000,1.22535,206.138,0.117431
291.9000,1.6477,205.836,0.113079
291.8000,0.489262,205.814,0.112751
291.7000,-1.49185,205.946,0.114666
291.6000,1.31651,206.244,0.118968
291.5000,0.362421,206.454,0.12199
291.4000,0.639279,206.567,0.123623
291.3000,1.25679,206.044,0.116073
291.2000,0.893804,206.844,0.127604
291.1000,2.00702,205.908,0.11411
291.0000,2.042,206.644,0.124733
290.9000,1.80755,205.979,0.115141
290.8000,0.63827,205.308,0.105441
290.7000,1.73305,205.71,0.111244
290.6000,0.543079,205.844,0.113193
290.5000,0.780657,206.112,0.117055
290.4000,0.955859,206.104,0.11694
290.3000,1.78966,205.463,0.107672
290.2000,1.76628,207.598,0.138448
290.1000,0.695821,205.279,0.105014
290.0000,0.749036,205.928,0.114404
289.9000,1.44508,206.342,0.120373
289.8000,3.27382,206.185,0.118117
289.7000,0.706573,205.865,0.113488
289.6000,1.63579,205.748,0.111801
289.5000,2.07084,205.895,0.11393
289.4000,1.35036,206.175,0.11797
289.3000,1.9317,207.077,0.130962
289.2000,2.35002,206.812,0.127147
289.1000,0.323953,205.891,0.113864
289.0000,2.19943,205.577,0.109327
288.9000,1.70457,205.929,0.114421
288.8000,-1.46109,207.175,0.132362
288.7000,1.83489,205.341,0.105917
288.6000,2.41652,206.211,0.118494
288.5000,-0.290451,206.633,0.12457
288.4000,0.346377,205.843,0.113177
288.3000,2.3423,205.46,0.107639
288.2000,0.138308,205.802,0.112587
288.1000,2.0662,206.079,0.11658
288.0000,1.33935,205.813,0.112735
287.9000,0.376006,206.219,0.118608
287.8000,-0.455625,207.206,0.132818
287.7000,0.0787772,206.894,0.128321
287.6000,0.359242,206.004,0.115501
287.5000,1.12496,206.695,0.125467
287.4000,1.79546,205.913,0.114192
287.3000,1.97344,206.609,0.124227
287.2000,0.377982,206.478,0.122333
287.1000,1.41762,206.537,0.123182
287.0000,0.211473,206.17,0.117888
286.9000,0.0711121,206.604,0.124145
286.8000,0.122453,205.653,0.110425
286.7000,0.361039,205.754,0.111883
286.6000,-0.373298,206.15,0.117611
286.5000,0.811051,206.481,0.122382
286.4000,1.81655,206.341,0.120357
286.3000,1.18648,206.16,0.117758
286.2000,0.384115,206.477,0.122317
286.1000,1.73727,206.142,0.117496
286.0000,1.53054,206.587,0.1239
285.9000,2.16163,206.349,0.120471
285.8000,-0.151394,206.688,0.125369
285.7000,0.34729,206.844,0.127604
285.6000,1.19109,205.706,0.111195
285.5000,0.67878,206.128,0.117284
285.4000,-0.0475083,207.224,0.133079
285.3000,1.10527,205.698,0.11108
285.2000,0.948927,206.204,0.118379
285.1000,1.85988,206.055,0.116237
285.0000,2.02127,207.348,0.134853
284.9000,1.44063,206.585,0.123884
284.8000,-0.216178,206.225,0.11869
284.7000,-1.44793,205.648,0.11036
284.6000,0.394814,205.201,0.103882
284.5000,0.71486,205.476,0.107868
284.4000,0.188218,206.931,0.128859
284.3000,1.45193,205.16,0.103291
284.2000,2.1842,206.554,0.123427
284.1000,1.15466,206.068,0.116417
284.0000,1.3026,205.672,0.110704
283.9000,1.72209,206.47,0.122219
283.8000,0.978178,205.918,0.114257
283.7000,2.00209,205.785,0.112342
283.6000,0.730815,206.796,0.126919
283.5000,0.921828,206.174,0.117954
283.4000,0.57686,206.962,0.129299
283.3000,-0.0878716,206.679,0.125239
283.2000,1.05512,206.106,0.116973
283.1000,1.3872,206.138,0.117431
283.0000,-0.755482,206.281,0.119491
282.9000,2.35241,205.953,0.114764
282.8000,0.297534,205.623,0.109999
282.7000,0.965983,206.53,0.123084
282.6000,0.569459,206.27,0.119343
282.5000,-1.03785,204.699,0.0966037
282.4000,0.0954117,206.916,0.128647
282.3000,1.23238,205.29,0.105179
282.2000,1.90241,205.585,0.109442
282.1000,1.42313,205.952,0.114748
282.0000,0.354268,205.414,0.106967
281.9000,1.34928,205.371,0.106343
281.8000,0.69009,206.579,0.123786
281.7000,0.507399,205.775,0.112194
281.6000,1.17609,206.324,0.120112
281.5000,0.643163,205.106,0.102503
281.4000,1.9057,206.267,0.119295
281.3000,-1.016,205.988,0.115272
281.2000,1.86839,206.656,0.124896
281.1000,1.09454,206.281,0.119491
281.0000,0.394867,205.865,0.113488
280.9000,1.15711,206.461,0.122088
280.8000,2.67325,206.132,0.117349
280.7000,0.583948,205.359,0.106179
280.6000,1.59526,206.454,0.12199
280.5000,-1.57955,206.158,0.117725
280.4000,2.33505,205.235,0.104374
280.3000,0.965547,205.775,0.112194
280.2000,0.451124,206.358,0.120602
280.1000,0.273451,205.472,0.107803
280.0000,1.85451,206.543,0.12328
279.9000,0.0607845,206.589,0.123933
279.8000,0.211631,205.695,0.111032
279.7000,0.253562,207.111,0.13145
279.6000,1.70825,206.21,0.118477
279.5000,0.722495,205.166,0.103373
279.4000,0.0302821,206.793,0.12687
279.3000,1.2511,206.225,0.11869
279.2000,0.720196,206.296,0.119719
279.1000,-1.36585,206.636,0.124619
279.0000,2.25899,206.656,0.124896
278.9000,-1.36259,206.763,0.126446
278.8000,1.04444,206.635,0.124602
278.7000,0.94605,206.409,0.121337
278.6000,0.991847,205.587,0.109475
278.5000,0.570378,206.537,0.123182
278.4000,-0.478016,206.143,0.117513
278.3000,0.925883,206.29,0.119621
278.2000,1.06916,206.354,0.120553
278.1000,-1.00113,206.273,0.119376
278.0000,1.01326,207.073,0.130896
277.9000,0.991537,206.497,0.122611
277.8000,1.27835,206.554,0.123427
277.7000,1.0345,205.593,0.109557
277.6000,0.416611,206.699,0.125516
277.5000,1.09952,206.008,0.11555
277.4000,-0.407089,206.906,0.1285
277.3000,1.94198,206.158,0.117725
277.2000,-0.336251,206.008,0.11555
277.1000,0.408165,206.496,0.122594
277.0000,0.763236,205.62,0.10995
276.9000,2.83124,206.566,0.123606
276.8000,0.190868,206.56,0.123525
276.7000,2.41358,206.107,0.116989
276.6000,0.725358,206.453,0.121974
276.5000,1.72137,206.632,0.124553
276.4000,1.76431,206.452,0.121957
276.3000,1.12782,205.716,0.111343
276.2000,1.49285,207.609,0.138594
276.1000,1.24246,206.377,0.120879
276.0000,1.0705,206.674,0.125157
275.9000,0.864508,205.855,0.11334
275.8000,0.881143,206.443,0.121827
275.7000,0.845128,206.21,0.118477
275.6000,-0.90429,205.372,0.10636
275.5000,0.398819,206.719,0.12581
275.4000,1.60255,206.488,0.12248
275.3000,0.0927778,207.757,0.140723
275.2000,1.52422,205.649,0.110376
275.1000,2.15423,206.217,0.118575
275.0000,-0.892034,206.06,0.116302
274.9000,0.124147,206.165,0.117823
274.8000,-0.599692,206.852,0.127718
274.7000,1.23246,205.941,0.114584
274.6000,-0.541671,206.624,0.124439
274.5000,0.243018,206.304,0.119834
274.4000,1.63907,206.191,0.118199
274.3000,3.11357,206.123,0.117218
274.2000,-0.586683,206.763,0.126446
274.1000,0.891404,206.863,0.127881
274.0000,-0.291394,206.298,0.119736
273.9000,1.53144,206.795,0.126903
273.8000,1.03118,206.397,0.121174
273.7000,1.96122,205.93,0.114437
273.6000,2.15927,206.153,0.117643
273.5000,1.09843,207.188,0.132557
273.4000,1.43338,207.274,0.133795
273.3000,1.49067,206.261,0.119213
273.2000,1.22532,205.223,0.10421
273.1000,-0.24033,205.764,0.112031
273.0000,-0.118022,206.47,0.122219
272.9000,2.24275,206.889,0.128256
272.8000,0.300694,206.337,0.120308
272.7000,0.879329,206.902,0.128436
272.6000,0.228208,205.748,0.111801
272.5000,1.05383,206.795,0.126903
272.4000,2.14336,206.817,0.127213
272.3000,0.256214,206.688,0.125369
272.2000,1.84189,205.936,0.114519
272.1000,0.691003,206.713,0.125728
272.0000,2.14567,206.337,0.120308
271.9000,-0.921921,206.234,0.118821
271.8000,1.02733,206.159,0.117742
271.7000,1.30014,206.061,0.116319
271.6000,0.7539,206.491,0.122529
271.5000,1.60991,206.811,0.127131
271.4000,2.22062,206.938,0.128957
271.3000,1.34928,206.721,0.125842
271.2000,1.64354,206.522,0.12297
271.1000,0.732666,206.444,0.121843
271.0000,1.16121,206.83,0.127408
270.9000,1.34206,206.25,0.119049
270.8000,0.869635,206.181,0.118052
270.7000,1.73835,206.264,0.119245
270.6000,0.864359,205.996,0.115386
270.5000,0.0570732,206.827,0.127359
270.4000,1.36193,205.767,0.11208
270.3000,-0.179873,206.905,0.128484
270.2000,0.40981,207.439,0.136154
270.1000,0.581859,207.1,0.131287
270.0000,2.29097,206.834,0.127457
269.9000,0.984181,206.747,0.126217
269.8000,1.26942,206.568,0.123639
269.7000,2.14645,206.324,0.120112
269.6000,-0.255386,206.871,0.127995
269.5000,0.881597,207.119,0.131564
269.4000,1.79457,208.105,0.145707
269.3000,1.5798,207.056,0.130652
269.2000,-0.258608,206.813,0.127164
269.1000,0.519414,207.35,0.134885
269.0000,1.48904,206.873,0.128028
268.9000,3.13615,207.159,0.132134
268.8000,1.19825,207.827,0.14173
268.7000,0.408621,206.657,0.124912
268.6000,-0.430141,207.213,0.132916
268.5000,0.717127,207.866,0.142282
268.4000,-0.583215,207.652,0.139212
268.3000,0.755605,207.057,0.130668
268.2000,0.795325,207.335,0.134674
268.1000,-0.172371,207.4,0.135602
268.0000,0.84464,207.971,0.143792
267.9000,-0.514591,207.589,0.138318
267.8000,-0.335648,207.658,0.139309
267.7000,0.69441,208.064,0.145123
267.6000,2.1622,207.272,0.133762
267.5000,1.30632,207.415,0.135813
267.4000,0.614689,206.979,0.129544
267.3000,1.01481,207.308,0.134283
267.2000,0.0867618,207.9,0.14277
267.1000,1.2743,207.351,0.134902
267.0000,0.843241,207.312,0.134332
266.9000,2.26619,207.229,0.133144
266.8000,2.86962,207.513,0.137228
266.7000,-0.915486,208.284,0.14827
266.6000,1.19981,207.66,0.139325
266.5000,1.6366,207.68,0.139618
266.4000,0.856065,208.398,0.149907
266.3000,0.663972,208.084,0.145415
266.2000,-1.11717,208.437,0.150458
266.1000,1.23099,208.127,0.146032
266.0000,1.56192,208.287,0.148319
265.9000,1.05398,207.868,0.142315
265.8000,2.43582,207.766,0.140853
265.7000,0.734686,208.7,0.154215
265.6000,-0.22453,207.507,0.13713
265.5000,1.21928,207.848,0.142023
265.4000,-0.876661,208.19,0.146924
265.3000,0.934913,208.049,0.144912
265.2000,-0.423274,207.588,0.138301
265.1000,1.01637,208.305,0.148578
265.0000,1.24707,208.098,0.14561
264.9000,-1.64516,208.354,0.149275
264.8000,-0.280978,207.954,0.143549
264.7000,-0.18737,208.702,0.154248
264.6000,1.28571,208.682,0.153957
264.5000,-0.0212053,208.445,0.150572
264.4000,-0.279766,208.617,0.153034
264.3000,-0.425543,208.073,0.145253
264.2000,1.51119,208.325,0.148854
264.1000,-0.575304,208.291,0.148367
264.0000,2.15504,208.134,0.146129
263.9000,1.46237,208.351,0.149226
263.8000,0.976377,208.791,0.155526
263.7000,1.01051,208.589,0.152629
263.6000,1.03501,207.997,0.144166
263.5000,1.79349,208.89,0.156934
263.4000,0.350206,208.424,0.15028
263.3000,1.84086,207.866,0.142282
263.2000,0.629855,208.496,0.151301
263.1000,-0.790498,208.935,0.157581
263.0000,-1.10998,208.648,0.153471
262.9000,1.63221,208.81,0.155785
262.8000,1.1775,208.197,0.147021
262.7000,0.973603,208.832,0.156109
262.6000,2.54072,208.858,0.156481
262.5000,-0.504718,208.653,0.153552
262.4000,0.668254,208.734,0.154701
262.3000,1.38075,208.642,0.15339
262.2000,1.77361,209.055,0.159295
262.1000,0.823159,209.027,0.158891
262.0000,-0.555035,208.714,0.154426
261.9000,-0.306006,209.397,0.164157
261.8000,-0.768725,209.214,0.161557
261.7000,0.912631,209.611,0.167207
261.6000,0.719676,209.495,0.165561
261.5000,-0.629464,208.857,0.156465
261.4000,0.335931,209.234,0.161848
261.3000,0.899667,209.207,0.16146
261.2000,1.91046,209.568,0.166593
261.1000,1.64266,209.587,0.166868
261.0000,0.300345,208.618,0.15305
260.9000,1.00753,208.697,0.154183
260.8000,2.20582,209.642,0.167658
260.7000,0.484164,209.777,0.169577
260.6000,1.30893,209.199,0.161347
260.5000,2.01575,209.513,0.165819
260.4000,-1.14366,209.702,0.168513
260.3000,1.13222,209.554,0.1664
260.2000,-0.0933477,208.565,0.152289
260.1000,0.910457,208.986,0.158309
260.0000,1.26366,209.136,0.160442
259.9000,0.00917088,208.853,0.1564
259.8000,1.01911,209.604,0.16711
259.7000,0.832592,210.178,0.175278
259.6000,1.60676,210.176,0.175246
259.5000,-2.05606,209.548,0.166319
259.4000,-0.39046,209.968,0.172284
259.3000,-0.0504624,209.767,0.169431
259.2000,-0.114103,209.41,0.16435
259.1000,2.10291,209.692,0.168367
259.0000,-0.463992,209.925,0.171671
258.9000,0.450711,209.802,0.169931
258.8000,1.69396,210.025,0.173105
258.7000,0.594508,210.243,0.176195
258.6000,0.331831,209.97,0.172316
258.5000,2.81539,210.073,0.173781
258.4000,1.59236,209.93,0.171752
258.3000,1.47588,209.375,0.16385
258.2000,2.20308,210.19,0.175439
258.1000,0.963541,209.912,0.171494
258.0000,1.31119,209.849,0.170592
257.9000,-0.138826,211.06,0.187777
257.8000,0.0388839,210.63,0.181694
257.7000,3.28714,210.572,0.180858
257.6000,1.00222,210.429,0.178833
257.5000,2.66867,210.515,0.180054
257.4000,0.419765,211.137,0.188867
257.3000,0.513103,210.851,0.184825
257.2000,0.458225,210.114,0.174361
257.1000,1.32382,210.49,0.179701
257.0000,0.314528,210.688,0.182513
256.9000,0.139844,210.518,0.180103
256.8000,-0.396612,210.472,0.179444
256.7000,1.1421,210.952,0.186253
256.6000,0.267961,210.477,0.179524
256.5000,2.23263,211.136,0.188851
256.4000,2.19317,210.43,0.178849
256.3000,1.07797,210.721,0.182979
256.2000,1.82361,210.347,0.177675
256.1000,1.17139,210.826,0.184472
256.0000,0.60489,210.959,0.186349
255.9000,1.27526,210.988,0.186766
255.8000,0.568714,211.013,0.187119
255.7000,2.44783,210.677,0.182352
255.6000,0.383172,210.428,0.178817
255.5000,1.75679,210.68,0.1824
255.4000,-0.324578,210.216,0.175809
255.3000,0.921466,210.371,0.178013
255.2000,2.4379,210.887,0.185322
255.1000,0.306268,211.163,0.189236
255.0000,1.78321,212.063,0.201943
254.9000,3.621,210.957,0.186317
254.8000,0.41677,211.322,0.19148
254.7000,0.385707,210.915,0.185724
254.6000,1.44073,210.371,0.178013
254.5000,1.2592,210.826,0.184472
254.4000,0.682863,212.098,0.202438
254.3000,-0.300176,211.288,0.190999
254.2000,1.36532,210.723,0.183011
254.1000,1.07648,211.502,0.194026
254.0000,0.83009,211.595,0.195339
253.9000,0.649816,211.529,0.19441
253.8000,2.30353,211.418,0.192841
253.7000,0.378222,211.974,0.200696
253.6000,0.49348,211.535,0.194491
253.5000,-0.474501,211.639,0.195963
253.4000,0.794037,212.33,0.205711
253.3000,0.114755,211.742,0.197419
253.2000,1.4537,212.238,0.204418
253.1000,2.0449,212.08,0.202183
253.0000,0.768843,211.399,0.192569
252.9000,0.909112,211.481,0.193738
252.8000,2.12606,211.997,0.201016
252.7000,0.738478,211.536,0.194507
252.6000,0.160907,211.686,0.196635
252.5000,0.438052,212.369,0.206254
252.4000,0.144882,211.475,0.193642
252.3000,2.16926,211.948,0.200329
252.2000,0.860575,211.781,0.197963
252.1000,1.5524,211.919,0.199913
252.0000,1.6571,211.767,0.197771
251.9000,1.16754,212.365,0.206206
251.8000,-1.13042,212.143,0.203077
251.7000,-0.777921,212.337,0.205807
251.6000,0.500561,212.26,0.204721
251.5000,3.04308,212.444,0.207323
251.4000,1.6634,212.204,0.203939
251.3000,-0.125451,211.856,0.199034
251.2000,1.25222,212.33,0.205711
251.1000,0.769785,212.06,0.201911
251.0000,2.13025,211.893,0.199546
250.9000,1.71757,212.324,0.205631
250.8000,0.303737,212.199,0.203859
250.7000,0.687916,212.027,0.201447
250.6000,-0.434999,212.381,0.206429
250.5000,0.9417,213.363,0.220236
250.4000,0.493539,212.341,0.205871
250.3000,1.61644,212.909,0.213857
250.2000,1.73904,213.205,0.21801
250.1000,0.952588,212.941,0.214303
250.0000,0.633528,212.689,0.210766
249.9000,1.70719,212.639,0.210065
249.8000,-0.282457,213.021,0.215433
249.7000,1.34887,212.762,0.211786
249.6000,1.08065,212.537,0.20863
249.5000,-1.26479,213.414,0.220952
249.4000,-0.240016,213.051,0.215847
249.3000,0.656917,212.782,0.212073
249.2000,2.3014,212.885,0.213523
249.1000,0.59166,213.128,0.216929
249.0000,0.733694,212.796,0.212264
248.9000,-0.244735,213.072,0.216149
248.8000,0.590023,212.78,0.212041
248.7000,2.43335,213.487,0.221969
248.6000,-1.00599,213.563,0.223033
248.5000,0.318726,213.035,0.215624
248.4000,0.635514,213.3,0.219346
248.3000,0.839154,213.835,0.226843
248.2000,0.622559,212.668,0.210464
248.1000,0.382341,213.396,0.220697
248.0000,0.980605,213.234,0.218424
247.9000,-0.16285,212.808,0.212439
247.8000,2.1882,213.363,0.220236
247.7000,-0.551006,213.236,0.218456
247.6000,0.706263,213.912,0.227922
247.5000,0.844476,213.572,0.22316
247.4000,0.116132,213.783,0.226113
247.3000,1.37312,213.229,0.218344
247.2000,0.577965,213.968,0.228715
247.1000,-0.0532811,214.044,0.229777
247.0000,1.79595,213.612,0.223716
246.9000,2.92449,213.846,0.227001
246.8000,0.494074,213.133,0.217008
246.7000,-0.358852,213.929,0.228159
246.6000,0.4857,213.956,0.22854
246.5000,1.57137,213.584,0.223335
246.4000,-0.0535902,213.326,0.219712
246.3000,2.62131,214.012,0.229317
246.2000,0.595062,214.324,0.233691
246.1000,3.02053,213.946,0.228397
246.0000,-0.244485,213.708,0.225065
245.9000,-0.687436,214.113,0.230744
245.8000,1.01438,214.414,0.234942
245.7000,2.53677,213.486,0.221953
245.6000,-0.490053,213.797,0.226319
245.5000,-0.116203,214.1,0.230554
245.4000,-0.341193,213.865,0.227271
245.3000,0.168698,214.663,0.238423
245.2000,0.0462225,214.621,0.237837
245.1000,0.785723,214.266,0.232883
245.0000,0.34395,214.451,0.235464
244.9000,2.31754,214.441,0.235321
244.8000,0.658824,214.444,0.235369
244.7000,1.47855,214.316,0.23358
244.6000,-0.818789,214.4,0.234751
244.5000,0.855678,214.946,0.242375
244.4000,-0.182463,215.457,0.249493
244.3000,-0.171547,214.625,0.237885
244.2000,0.105416,214.465,0.235654
244.1000,0.508044,214.759,0.239767
244.0000,-0.307147,214.912,0.241901
243.9000,1.62636,214.017,0.229396
243.8000,0.584246,215.024,0.243464
243.7000,-0.212611,215.244,0.246527
243.6000,0.656692,214.615,0.237758
243.5000,0.943016,215.579,0.251179
243.4000,1.08378,215.107,0.244617
243.3000,-0.463786,215.444,0.249303
243.2000,1.71838,214.802,0.240367
243.1000,-0.303421,215.069,0.24408
243.0000,0.29754,215.492,0.249981
242.9000,1.02118,214.808,0.240446
242.8000,0.896212,215.326,0.247663
242.7000,1.54534,215.172,0.245517
242.6000,1.267,215.67,0.252456
242.5000,0.703423,214.844,0.240952
242.4000,0.565995,215.588,0.251306
242.3000,0.746442,215.264,0.246795
242.2000,3.05538,216.139,0.258972
242.1000,0.577952,215.94,0.256204
242.0000,2.17635,215.188,0.245738
241.9000,0.294945,215.138,0.245043
241.8000,-1.80581,216.376,0.262258
241.7000,0.124099,214.901,0.241743
241.6000,-0.266895,216.128,0.258815
241.5000,-0.359205,215.695,0.252802
241.4000,1.29482,215.261,0.246764
241.3000,-2.66232,215.695,0.252802
241.2000,0.328382,216.189,0.259664
241.1000,0.743069,217.154,0.273021
241.0000,0.399641,216.561,0.264818
240.9000,1.09936,216.248,0.260482
240.8000,0.180634,216.917,0.269745
240.7000,-0.893524,216.775,0.267784
240.6000,1.17693,216.586,0.265164
240.5000,1.35121,216.9,0.26951
240.4000,0.957367,216.197,0.259774
240.3000,-1.0087,216.135,0.258909
240.2000,0.116806,217.621,0.279485
240.1000,0.210508,216.927,0.269886
240.0000,-0.57945,216.774,0.267769
239.9000,0.190371,216.687,0.266561
239.8000,1.44841,217.233,0.274117
239.7000,-0.537849,217.098,0.272253
239.6000,1.43582,217.965,0.284221
239.5000,2.11237,217.52,0.278078
239.4000,-0.574944,218.097,0.286048
239.3000,2.45522,217.774,0.281596
239.2000,0.383661,217.114,0.272473
239.1000,1.13167,217.875,0.282987
239.0000,0.699545,216.79,0.267989
238.9000,0.0874788,217.963,0.28419
238.8000,1.64756,217.802,0.281971
238.7000,1.29543,217.046,0.271532
238.6000,1.15866,218.061,0.285548
238.5000,1.71614,217.389,0.276278
238.4000,1.03235,217.561,0.278656
238.3000,2.39759,218.202,0.287483
238.2000,0.577541,218.057,0.285486
238.1000,2.02049,218.163,0.286953
238.0000,0.138206,218.639,0.293502
237.9000,0.596198,218.535,0.292068
237.8000,0.715904,218.581,0.292707
237.7000,0.9195,218.536,0.292084
237.6000,-0.297551,218.857,0.296492
237.5000,0.866844,217.906,0.283409
237.4000,-0.832848,219.17,0.300801
237.3000,0.232976,218.677,0.294031
237.2000,1.04519,218.246,0.288092
237.1000,1.34716,218.722,0.294639
237.0000,3.24968,219.287,0.302402
236.9000,0.1406,219.161,0.300677
236.8000,0.946287,220.888,0.324295
236.7000,-0.359808,219.204,0.301267
236.6000,1.34348,219.997,0.312133
236.5000,-0.508861,219.919,0.311063
236.4000,0.441948,219.216,0.301423
236.3000,2.46844,219.353,0.303303
236.2000,-0.280358,219.353,0.303303
236.1000,-0.115715,219.746,0.30869
236.0000,0.831289,220.562,0.319843
235.9000,0.9616,219.638,0.307216
235.8000,0.734591,219.898,0.310769
235.7000,1.08931,219.757,0.308846
235.6000,-0.100035,220.706,0.321807
235.5000,1.39217,220.319,0.316532
235.4000,-1.19194,220.522,0.319302
235.3000,0.786403,220.198,0.314875
235.2000,1.0628,220.02,0.312443
235.1000,2.65473,220.286,0.316083
235.0000,2.63258,220.208,0.315014
234.9000,1.28715,221.123,0.327491
234.8000,1.03502,221.426,0.331625
234.7000,0.871151,220.579,0.320075
234.6000,0.283554,221.013,0.325994
234.5000,0.182325,220.226,0.315262
234.4000,0.809785,220.567,0.319921
234.3000,1.08302,221.936,0.338556
234.2000,0.94615,222.173,0.341771
234.1000,0.728524,221.407,0.331363
234.0000,0.65845,220.342,0.316842
233.9000,0.638661,221.015,0.326025
233.8000,1.11874,220.593,0.320276
233.7000,0.312829,221.407,0.331363
233.6000,1.68724,222.369,0.34443
233.5000,0.145687,222.875,0.35129
233.4000,0.421886,221.355,0.330654
233.3000,-0.108658,221.761,0.33617
233.2000,0.911561,221.044,0.326426
233.1000,1.27427,221.81,0.336848
233.0000,0.180732,222.349,0.344153
232.9000,0.62582,221.731,0.33577
232.8000,1.26625,223.055,0.353712
232.7000,1.47571,222.045,0.340033
232.6000,-0.9249,223.481,0.359469
232.5000,0.322726,222.316,0.343707
232.4000,1.64316,223.018,0.353222
232.3000,1.51852,222.558,0.346994
232.2000,1.58259,223.158,0.355106
232.1000,2.6946,222.747,0.349557
232.0000,0.752073,223.175,0.355336
231.9000,0.859241,222.895,0.351551
231.8000,-0.742945,222.872,0.351244
231.7000,4.73164,223.853,0.3645
231.6000,1.95614,224.071,0.367432
231.5000,0.862571,223.257,0.356454
231.4000,0.28035,223.644,0.361672
231.3000,0.317093,223.347,0.357664
231.2000,0.103496,223.877,0.36482
231.1000,-0.537682,223.459,0.359179
231.0000,0.657408,223.656,0.36184
230.9000,0.315272,223.807,0.363873
230.8000,0.147389,223.577,0.36077
230.7000,-0.540255,223.595,0.361014
230.6000,1.4145,223.831,0.364194
230.5000,0.901781,223.467,0.359286
230.4000,-1.4003,223.062,0.353819
230.3000,1.05587,224.116,0.368043
230.2000,0.0686594,224.857,0.378012
230.1000,1.22383,224.207,0.369263
230.0000,-0.412499,223.89,0.364988
229.9000,0.518164,224.446,0.372482
229.8000,0.862275,225.146,0.381891
229.7000,-1.6614,223.954,0.365859
229.6000,3.67561,224.545,0.373808
229.5000,1.72596,224.836,0.377722
229.4000,2.0233,223.968,0.366042
229.3000,-0.492008,224.667,0.375453
229.2000,1.14869,224.861,0.378057
229.1000,-0.101209,224.678,0.375606
229.0000,1.91172,225.309,0.38408
228.9000,0.0579852,225.09,0.381131
228.8000,0.493351,224.688,0.375743
228.7000,0.454686,224.865,0.378118
228.6000,0.313551,224.907,0.378681
228.5000,0.981982,225.286,0.383761
228.4000,-2.01557,225.892,0.391884
228.3000,-0.770761,225.687,0.389137
228.2000,2.1267,225.948,0.392642
228.1000,2.37313,225.886,0.391808
228.0000,4.07172,226.524,0.400336
227.9000,1.00107,226.068,0.394248
227.8000,-0.893925,226.219,0.396263
227.7000,1.84827,227.221,0.409629
227.6000,1.90206,226.57,0.400956
227.5000,1.33891,227.154,0.408738
227.4000,-0.228191,228.132,0.421743
227.3000,2.43612,226.447,0.399307
227.2000,0.553727,227.002,0.406715
227.1000,2.22412,227.76,0.416805
227.0000,2.31233,226.966,0.406232
226.9000,0.98302,227.792,0.417227
226.8000,2.38731,227.224,0.409674
226.7000,-0.908922,228.369,0.424885
226.6000,2.98299,227.841,0.417875
226.5000,-1.81967,227.155,0.408754
226.4000,0.84564,228.643,0.42852
226.3000,-0.53417,228.399,0.425291
226.2000,1.8139,228.466,0.426177
226.1000,1.89653,228.382,0.425065
226.0000,-1.25295,229.056,0.433996
225.9000,1.07704,228.506,0.426703
225.8000,2.15281,228.056,0.420735
225.7000,0.846887,228.965,0.432782
225.6000,0.109982,229.101,0.434581
225.5000,0.104369,229.525,0.440198
225.4000,0.0797457,229.237,0.436379
225.3000,0.359452,229.683,0.442278
225.2000,1.24368,229.319,0.437473
225.1000,2.96354,229.7,0.442502
225.0000,0.319251,229.264,0.436739
224.9000,2.03154,230.103,0.447823
224.8000,1.39455,230.012,0.446613
224.7000,2.66862,229.929,0.445522
224.6000,0.732963,229.591,0.441066
224.5000,2.04099,230.845,0.457592
224.4000,-0.407116,230.14,0.4483
224.3000,1.3178,230.67,0.455283
224.2000,1.31582,230.203,0.449137
224.1000,0.394067,230.566,0.453911
224.0000,1.20481,229.529,0.440243
223.9000,2.40243,230.578,0.454075
223.8000,2.73868,230.402,0.451764
223.7000,-0.147599,230.686,0.455492
223.6000,0.706821,230.798,0.456967
223.5000,1.90491,230.957,0.459052
223.4000,1.68901,231.597,0.467455
223.3000,1.5425,231.725,0.469133
223.2000,0.534591,231.985,0.472547
223.1000,2.55003,231.485,0.465984
223.0000,1.06416,230.889,0.458159
222.9000,0.497195,231.17,0.46185
222.8000,2.21976,231.783,0.469891
222.7000,1.29605,231.983,0.472518
222.6000,1.12149,231.968,0.472325
222.5000,2.60978,232.4,0.477973
222.4000,1.90091,231.742,0.469356
222.3000,1.01188,232.149,0.474683
222.2000,3.85996,232.828,0.483568
222.1000,0.488617,232.333,0.477099
222.0000,1.37554,232.47,0.478891
221.9000,2.93153,233.201,0.488431
221.8000,2.05936,232.515,0.479469
221.7000,0.504142,233.14,0.487633
221.6000,2.91057,232.639,0.481097
221.5000,3.62154,233.371,0.490646
221.4000,0.773782,232.468,0.478861
221.3000,-2.72861,232.532,0.479691
221.2000,3.07615,233.293,0.489627
221.1000,1.20583,233.216,0.488623
221.0000,0.4918,233.287,0.489554
220.9000,1.01224,233.425,0.491355
220.8000,3.62605,234.353,0.503423
220.7000,-0.250758,233.888,0.497372
220.6000,0.467219,234.333,0.503158
220.5000,2.39988,234.6,0.506629
220.4000,1.33458,234.376,0.503717
220.3000,0.584968,234.63,0.507011
220.2000,2.7805,234.082,0.499891
220.1000,2.11002,234.174,0.501098
220.0000,0.123664,234.513,0.505497
219.9000,4.54275,234.624,0.506937
219.8000,-1.02869,234.725,0.508245
219.7000,0.829865,235.343,0.516244
219.6000,2.51996,234.774,0.508877
219.5000,-1.37039,235.201,0.514411
219.4000,2.09993,234.929,0.510889
219.3000,1.1876,235.308,0.515789
219.2000,3.75244,235.388,0.51683
219.1000,-0.108112,235.779,0.521884
219.0000,3.8434,235.215,0.514587
218.9000,3.87715,235.32,0.515951
218.8000,2.76247,235.771,0.521781
218.7000,1.56089,235.428,0.517343
218.6000,1.80182,236.468,0.530773
218.5000,0.308579,235.829,0.522528
218.4000,2.28699,237.094,0.538839
218.3000,2.65408,236.62,0.532729
218.2000,0.838417,236.173,0.526974
218.1000,0.354625,236.232,0.527734
218.0000,4.27858,236.762,0.534567
217.9000,1.63615,236.597,0.532437
217.8000,-0.274821,237.041,0.538154
217.7000,1.96219,237.311,0.541621
217.6000,4.64492,236.18,0.527062
217.5000,1.34795,237.071,0.538533
217.4000,0.00192662,236.793,0.534961
217.3000,1.44867,236.834,0.535486
217.2000,3.61967,237.426,0.543106
217.1000,0.266183,238.133,0.552176
217.0000,-1.37006,237.311,0.541621
216.9000,2.89041,237.705,0.546685
216.8000,0.556601,237.893,0.549097
216.7000,1.14518,238.314,0.554484
216.6000,1.61095,238.593,0.558066
216.5000,1.64266,238.155,0.552452
216.4000,1.81318,239.061,0.564048
216.3000,2.87535,238.468,0.556457
216.2000,2.97473,238.766,0.560269
216.1000,3.28656,239.052,0.563932
216.0000,-1.52583,238.275,0.553991
215.9000,2.58417,238.329,0.554687
215.8000,2.33159,239.271,0.566724
215.7000,-0.6013,238.847,0.561311
215.6000,2.18978,239.206,0.5659
215.5000,1.43288,239.529,0.57002
215.4000,2.30517,238.731,0.55982
215.3000,3.00001,239.407,0.568459
215.2000,-0.139668,238.708,0.55953
215.1000,0.170577,239.316,0.567302
215.0000,-0.294712,241.031,0.589114
214.9000,4.11713,239.958,0.575477
214.8000,0.894818,239.485,0.569456
214.7000,-1.86735,240.034,0.576444
214.6000,3.74119,240.035,0.576458
214.5000,1.92518,239.881,0.574496
214.4000,3.2795,240.337,0.580307
214.3000,1.40009,240.41,0.581229
214.2000,-0.112037,240.276,0.579529
214.1000,0.728626,240.418,0.58133
214.0000,-1.06785,239.52,0.569904
213.9000,0.298934,240.972,0.588366
213.8000,-1.38109,240.361,0.58061
213.7000,1.31766,240.726,0.585245
213.6000,1.27332,240.96,0.588223
213.5000,0.729982,241.42,0.594055
213.4000,3.02927,241.092,0.58989
213.3000,1.37696,242.095,0.602586
213.2000,0.527923,241.819,0.599105
213.1000,0.943424,240.614,0.583821
213.0000,3.635,241.144,0.590551
212.9000,-0.926743,241.292,0.592433
212.8000,1.04627,241.416,0.593998
212.7000,1.51282,241.712,0.597743
212.6000,0.830029,241.467,0.594644
212.5000,2.66577,241.415,0.593984
212.4000,-2.86818,241.526,0.59539
212.3000,-1.65513,241.895,0.600065
212.2000,2.27439,241.893,0.600036
212.1000,2.08359,241.92,0.60038
212.0000,1.83669,242.523,0.607996
211.9000,-0.631015,242.342,0.605707
211.8000,1.07526,242.772,0.611141
211.7000,-1.60216,242.925,0.613069
211.6000,0.489133,243.69,0.622696
211.5000,-0.42094,243.404,0.619105
211.4000,2.16432,243.064,0.614825
211.3000,0.110091,243.667,0.622411
211.2000,2.40035,243.622,0.621841
211.1000,4.09925,243.598,0.621542
211.0000,-2.76969,243.9,0.62533
210.9000,0.98002,243.613,0.621728
210.8000,1.51613,243.818,0.624305
210.7000,0.764731,244.028,0.626938
210.6000,-0.74646,243.828,0.624434
210.5000,1.79504,244.133,0.628261
210.4000,0.433818,244.586,0.633946
210.3000,2.27038,243.982,0.626369
210.2000,2.03998,245.036,0.639579
210.1000,1.82906,245.211,0.641762
210.0000,0.471391,245.539,0.64587
209.9000,1.18659,246.28,0.655115
209.8000,-0.396863,244.846,0.637196
209.7000,2.87546,245.458,0.64485
209.6000,1.90506,245.056,0.639834
209.5000,0.997805,245.314,0.643052
209.4000,1.54876,246.298,0.655341
209.3000,1.60798,245.588,0.646478
209.2000,0.0614064,246.85,0.662211
209.1000,2.9437,246.025,0.651937
209.0000,1.71465,246.226,0.654438
208.9000,-0.227539,247.104,0.665366
208.8000,3.90744,246.955,0.663521
208.7000,1.06972,246.741,0.660858
208.6000,2.91394,247.26,0.667309
208.5000,1.22259,246.996,0.664028
208.4000,0.175961,247.706,0.672836
208.3000,2.45509,246.484,0.657656
208.2000,2.99048,247.502,0.670305
208.1000,0.720792,247.596,0.671472
208.0000,0.756713,248.452,0.682085
207.9000,3.13706,248.262,0.679729
207.8000,1.01908,247.744,0.673313
207.7000,3.62096,248.326,0.680528
207.6000,4.10513,248.818,0.686609
207.5000,1.36542,248.836,0.686834
207.4000,-0.0961017,248.416,0.681636
207.3000,3.22047,249.224,0.691618
207.2000,0.156664,249.077,0.6898
207.1000,-0.178669,250.429,0.706465
207.0000,2.13613,248.388,0.681285
206.9000,-1.28166,250.005,0.701239
206.8000,1.81804,249.226,0.691646
206.7000,-1.12754,249.466,0.694609
206.6000,2.72638,250.205,0.703706
206.5000,2.30097,249.858,0.69944
206.4000,0.630885,250.283,0.704668
206.3000,1.0406,250.697,0.70975
206.2000,3.65597,250.883,0.712031
206.1000,2.76417,251.313,0.717311
206.0000,0.769126,251.727,0.722376
205.9000,0.510501,251.275,0.716839
205.8000,1.17169,251.78,0.723027
205.7000,1.24472,251.899,0.724483
205.6000,-1.16996,251.369,0.717992
205.5000,2.28067,251.809,0.723388
205.4000,-0.123964,251.841,0.723776
205.3000,1.5049,252.149,0.727544
205.2000,2.39039,252.906,0.736783
205.1000,0.75493,253.241,0.740855
205.0000,2.77209,253.122,0.739406
204.9000,-0.844043,253.269,0.7412
204.8000,1.52977,253.514,0.744179
204.7000,6.21953,253.713,0.746604
204.6000,0.334297,253.609,0.745337
204.5000,4.59575,253.967,0.749689
204.4000,-0.185949,253.511,0.744151
204.3000,0.466624,253.815,0.747844
204.2000,-0.476763,254.359,0.754448
204.1000,1.03088,254.275,0.753431
204.0000,5.43154,254.857,0.760492
203.9000,1.28546,254.687,0.758433
203.8000,1.15666,254.864,0.760575
203.7000,0.498951,255.843,0.772414
203.6000,0.0417533,256.068,0.775122
203.5000,2.06522,255.504,0.768321
203.4000,-0.447745,256.012,0.774452
203.3000,-2.8854,256.464,0.779904
203.2000,-1.48882,256.349,0.778511
203.1000,-0.971758,256.471,0.779986
203.0000,4.03543,257.19,0.788646
202.9000,1.05432,257.377,0.790893
202.8000,-0.552628,257.367,0.79077
202.7000,0.531942,256.955,0.785811
202.6000,1.36662,257.751,0.795382
202.5000,1.45582,257.649,0.794158
202.4000,2.46816,257.377,0.790893
202.3000,2.1466,258.373,0.80284
202.2000,0.351269,258.572,0.805214
202.1000,1.23602,258.386,0.802989
202.0000,1.45843,259.784,0.819696
201.9000,1.63017,259.685,0.818521
201.8000,-0.194858,259.375,0.814816
201.7000,0.23527,259.68,0.818453
201.6000,5.44493,259.931,0.821452
201.5000,0.816895,259.888,0.820939
201.4000,-1.45476,260.346,0.826391
201.3000,4.96392,260.962,0.833719
201.2000,3.77114,259.927,0.821398
201.1000,0.048703,261.95,0.845436
201.0000,-2.77883,261.637,0.841718
200.9000,3.71882,261.375,0.838615
200.8000,3.70674,262.128,0.847542
200.7000,0.152746,262.105,0.847261
200.6000,4.75927,262.973,0.857518
200.5000,1.68296,262.442,0.851255
200.4000,1.16746,262.54,0.852406
200.3000,3.02889,263.231,0.860566
200.2000,1.56556,263.205,0.860259
200.1000,-0.443747,263.531,0.864105
200.0000,-0.709329,263.704,0.866147
199.9000,2.98351,264.012,0.869761
199.8000,-0.65916,263.983,0.869428
199.7000,2.54025,264.181,0.87176
199.6000,0.441945,264.945,0.880728
199.5000,1.88648,265.08,0.88231
199.4000,-0.450325,265.939,0.892366
199.3000,0.783509,265.503,0.887261
199.2000,2.06553,266.544,0.899434
199.1000,-0.139469,265.614,0.888561
199.0000,-0.768858,266.645,0.900611
198.9000,1.95757,266.253,0.896034
198.8000,2.70618,267.27,0.907901
198.7000,5.65542,266.819,0.902646
198.6000,5.16117,267.193,0.907004
198.5000,2.79136,267.267,0.907862
198.4000,-1.58225,267.708,0.912991
198.3000,-1.28736,268.769,0.925317
198.2000,0.256199,268.47,0.921848
198.1000,0.409999,268.161,0.918258
198.0000,0.289945,268.761,0.925225
197.9000,1.83506,269.227,0.930619
197.8000,5.62915,268.83,0.926026
197.7000,-1.3645,270.034,0.939945
197.6000,-2.5791,269.662,0.935651
197.5000,4.99146,270.232,0.942233
197.4000,-0.178288,270.43,0.944521
197.3000,4.14701,271.073,0.951922
197.2000,0.286601,271.397,0.955649
197.1000,2.61405,270.889,0.949809
197.0000,5.66225,271.627,0.958293
196.9000,-1.07142,271.486,0.956679
196.8000,-2.61041,271.921,0.961676
196.7000,-0.331128,271.706,0.959204
196.6000,-0.543465,272.551,0.968901
196.5000,2.26065,273.283,0.977278
196.4000,0.474284,272.73,0.970951
196.3000,-1.85161,273.311,0.977589
196.2000,0.293235,273.98,0.985235
196.1000,-1.0424,274.531,0.991512
196.0000,3.62662,275.027,0.997159
195.9000,1.14287,274.552,0.991757
195.8000,-3.04032,275.228,0.999439
195.7000,-2.63585,275.553,1.00313
195.6000,3.35338,276.591,1.0149
195.5000,2.3843,276.884,1.01822
195.4000,3.14048,276.718,1.01633
195.3000,2.86128,277.341,1.02338
195.2000,0.674432,277.409,1.02415
195.1000,-0.954136,277.521,1.02541
195.0000,-1.10231,277.892,1.02959
194.9000,2.15087,278.466,1.03606
194.8000,1.49797,278.81,1.03994
194.7000,-0.113572,279.408,1.04664
194.6000,-0.525823,279.525,1.04797
194.5000,3.57823,279.655,1.04941
194.4000,1.338,280.957,1.06399
194.3000,0.0857406,280.821,1.06247
194.2000,0.578137,281.088,1.06546
194.1000,0.729694,281.722,1.07253
194.0000,-1.47524,282.158,1.07738
193.9000,-1.90914,283.645,1.09391
193.8000,-1.55828,284.112,1.09908
193.7000,1.06798,284.502,1.10339
193.6000,-0.954868,285.446,1.11381
193.5000,4.06709,286.378,1.12408
193.4000,-3.24462,286.935,1.13019
193.3000,-0.346269,286.596,1.12647
193.2000,0.188685,287.197,1.13307
193.1000,2.09714,287.466,1.13602
193.0000,-0.442549,288.673,1.14922
192.9000,1.13309,289.493,1.15817
192.8000,2.10388,290.061,1.16435
192.7000,-1.31291,291.013,1.17469
192.6000,0.352111,291.953,1.18488
192.5000,-0.593927,293.267,1.19907
192.4000,0.44865,293.31,1.19954
192.3000,3.56827,295.079,1.21856
192.2000,-0.364704,295.352,1.22148
192.1000,-0.643368,295.238,1.22026
192.0000,1.19365,297.074,1.23989
191.9000,1.40339,297.061,1.23975
191.8000,-1.67505,297.605,1.24555
191.7000,1.15319,298.337,1.25333
191.6000,-2.53426,300.181,1.27288
191.5000,-0.0588658,300.742,1.27881
191.4000,-1.78368,302.076,1.29286
191.3000,-1.04478,303.202,1.30469
191.2000,-1.78328,304.582,1.31913
191.1000,2.88327,306.453,1.33862
191.0000,1.15922,307.331,1.34774
190.9000,-5.18966,308.833,1.36328
190.8000,-2.00395,310.583,1.3813
190.7000,-2.59288,311.992,1.39576
190.6000,0.445734,313.35,1.40963
190.5000,6.70856,314.492,1.42126
190.4000,1.60546,316.39,1.44052
190.3000,-1.09997,317.751,1.45426
190.2000,-0.188423,318.944,1.46627
190.1000,1.45497,319.902,1.47589
190.0000,3.11838,322.48,1.50165

##### Extended Information
[Comments]
Sample name,KMGM_BUFFER_928
Comment,BUFFER ALONE
User,KYLE MURPHY
Division
Company,Saint Mary's College

[Detailed Information]
Creation date,9/28/2022 3:02 PM

Data array type,Linear data array * 3
Horizontal axis,Wavelength [nm]
Vertical axis(1),CD [mdeg]
Vertical axis(2),HT [V]
Vertical axis(3),Abs
Start,320 nm
End,190 nm
Data interval,0.1 nm
Data points,1301    

[Measurement Information]
Instrument name,J-1500
Model name,J-1500
Serial No.,B051061638

Detector,PM-539
Detector S/N,B051061638
  Lock-in amp.,X mode
  HT volt,Auto

Accessory,PTC-517
Accessory S/N,B026561646
  Temperature,27.67 C
  Control sensor,Holder
  Monitor sensor,Holder

Measurement date,9/28/2022 3:02 PM

CD Overload detect,1236
Photometric mode,CD, HT, Abs
Measure range,320 - 190 nm
Data pitch,0.1 nm
CD scale,20 mdeg/0.05 dOD
FL scale,20 mdeg/0.05 dOD
D.I.T.,8 msec
Bandwidth,2.00 nm
Start mode,Immediately
Scanning mode,Continuous
Scanning speed,200 nm/min
Baseline correction,None
Shutter control,Auto
No. of cycle,1/1
N2 Flowmeter,Manual

Solvent,NaPO4 buffer

