TITLE,KMGM_BUFFER&PROTEIN_928
DATA TYPE,
ORIGIN,JASCO
OWNER,
DATE,22/09/28
TIME,15:20:54
SPECTROMETER/DATA SYSTEM,
LOCALE,1033
RESOLUTION,
DELTAX,-0.1
XUNITS,NANOMETERS
YUNITS,CD [mdeg]
Y2UNITS,HT [V]
Y3UNITS,ABSORBANCE
FIRSTX,  320.0000
LASTX,  190.0000
NPOINTS,    1301
FIRSTY,     0.83079
MAXY,    53.46292
MINY,   -56.93053
XYDATA
320.0000,0.83079,208.254,0.147848
319.9000,2.30888,208.314,0.148708
319.8000,1.3113,208.474,0.150993
319.7000,0.874571,208.12,0.145918
319.6000,1.12746,208.263,0.147978
319.5000,1.00225,208.049,0.144912
319.4000,3.03804,208.656,0.153584
319.3000,0.205385,208.241,0.147654
319.2000,0.947609,208.54,0.151932
319.1000,3.76087,208.403,0.149972
319.0000,1.20611,208.838,0.15619
318.9000,1.89893,208.158,0.14647
318.8000,0.697742,208.557,0.152175
318.7000,1.98529,208.324,0.148838
318.6000,2.02178,207.875,0.142412
318.5000,2.46003,208.677,0.153892
318.4000,1.08554,208.283,0.148254
318.3000,2.89092,208.229,0.147492
318.2000,3.72453,208.295,0.148432
318.1000,1.24298,208.058,0.145042
318.0000,3.13628,208.077,0.145302
317.9000,1.9608,208.087,0.145448
317.8000,1.61014,208.023,0.144539
317.7000,2.31531,207.647,0.139147
317.6000,1.19355,207.806,0.141421
317.5000,0.966286,207.205,0.132802
317.4000,1.29373,207.827,0.14173
317.3000,2.77261,207.718,0.140171
317.2000,1.02638,208.358,0.149324
317.1000,0.681941,207.111,0.13145
317.0000,2.69214,208.541,0.151949
316.9000,1.4936,207.491,0.136903
316.8000,1.0377,208.129,0.146048
316.7000,1.51471,208.456,0.150734
316.6000,2.44097,207.81,0.141486
316.5000,1.20672,208.296,0.148448
316.4000,1.47842,207.553,0.137797
316.3000,0.897643,208.001,0.144215
316.2000,2.04143,208.504,0.151414
316.1000,0.615038,207.394,0.13552
316.0000,0.848691,207.817,0.141584
315.9000,3.24276,207.407,0.135699
315.8000,1.97239,208.482,0.151106
315.7000,2.1666,208.382,0.14968
315.6000,0.677889,208.111,0.145789
315.5000,2.28966,208.149,0.14634
315.4000,1.85545,208.129,0.146048
315.3000,0.977924,207.869,0.142331
315.2000,1.21853,208.274,0.148124
315.1000,3.21473,208.246,0.147735
315.0000,2.33073,207.995,0.144133
314.9000,1.78024,208.109,0.145772
314.8000,0.901216,208.338,0.149048
314.7000,-0.312215,207.878,0.142461
314.6000,2.71216,207.892,0.142656
314.5000,1.3032,207.61,0.13861
314.4000,1.1182,208.241,0.147654
314.3000,0.766618,206.692,0.125418
314.2000,1.5525,207.976,0.143857
314.1000,0.216915,208.202,0.147102
314.0000,0.590527,207.69,0.139764
313.9000,1.55195,207.484,0.136805
313.8000,2.97983,207.678,0.139586
313.7000,1.2357,207.06,0.130717
313.6000,3.24222,206.851,0.127702
313.5000,2.39219,207.028,0.130261
313.4000,1.74757,207.784,0.141113
313.3000,1.57135,207.603,0.138512
313.2000,1.44746,208.04,0.144783
313.1000,2.67641,207.389,0.135439
313.0000,1.52715,207.495,0.136968
312.9000,1.85804,207.432,0.136057
312.8000,0.186159,207.538,0.137586
312.7000,1.82298,207.856,0.142136
312.6000,1.04966,208.022,0.144523
312.5000,-0.279276,207.304,0.134218
312.4000,1.66931,207.448,0.136285
312.3000,1.89866,207.502,0.137066
312.2000,1.42605,207.382,0.135341
312.1000,2.41803,207.677,0.139569
312.0000,0.3949,207.579,0.138171
311.9000,1.06285,208.414,0.150134
311.8000,1.11167,207.517,0.137277
311.7000,-0.535509,208.027,0.144588
311.6000,2.43055,207.735,0.140414
311.5000,1.14961,207.926,0.143143
311.4000,0.206047,207.471,0.136626
311.3000,0.932433,208.32,0.148789
311.2000,2.17863,207.818,0.1416
311.1000,2.13718,207.516,0.137261
311.0000,2.99167,207.221,0.13303
310.9000,2.084,207.197,0.132688
310.8000,2.21345,207.418,0.135862
310.7000,1.08241,207.774,0.140967
310.6000,1.14135,207.714,0.140105
310.5000,2.20081,207.696,0.139846
310.4000,0.351266,207.68,0.139618
310.3000,0.833106,207.278,0.133844
310.2000,0.749355,208.135,0.146145
310.1000,-0.0938615,207.584,0.138236
310.0000,1.53124,208.082,0.145383
309.9000,1.83259,206.695,0.125467
309.8000,1.1469,208.169,0.146632
309.7000,0.873901,207.551,0.137765
309.6000,2.78456,207.746,0.140561
309.5000,3.10968,207.745,0.140544
309.4000,2.25891,208.006,0.144296
309.3000,0.756229,207.601,0.13848
309.2000,1.14044,208.16,0.146502
309.1000,2.00773,207.526,0.137407
309.0000,1.05407,207.629,0.138886
308.9000,2.14251,207.436,0.136122
308.8000,1.09717,207.856,0.142136
308.7000,1.33284,207.657,0.139293
308.6000,1.08418,207.522,0.137358
308.5000,2.5835,207.308,0.134283
308.4000,1.52136,207.508,0.137147
308.3000,2.49996,208.088,0.145464
308.2000,2.22702,207.665,0.139407
308.1000,2.44142,207.747,0.140577
308.0000,1.71358,207.517,0.137277
307.9000,1.5899,207.817,0.141584
307.8000,1.45005,208.209,0.1472
307.7000,2.96068,207.611,0.138626
307.6000,1.58783,207.895,0.142705
307.5000,2.35679,207.96,0.14363
307.4000,-0.568796,207.596,0.138415
307.3000,0.993438,207.652,0.139212
307.2000,1.33498,207.964,0.143695
307.1000,-0.119576,207.633,0.138952
307.0000,1.83001,207.9,0.14277
306.9000,2.73828,207.416,0.135829
306.8000,-0.23025,208.401,0.14994
306.7000,1.74154,208.019,0.144474
306.6000,0.924925,208.317,0.14874
306.5000,1.24143,207.942,0.14337
306.4000,2.45843,207.373,0.135211
306.3000,0.267996,208.319,0.148773
306.2000,1.83834,207.23,0.13316
306.1000,1.39512,207.645,0.139114
306.0000,-0.0317548,207.418,0.135862
305.9000,-0.508153,208.168,0.146616
305.8000,2.52112,207.619,0.13874
305.7000,2.01028,208.397,0.149891
305.6000,1.54578,207.363,0.135064
305.5000,0.284646,207.496,0.136984
305.4000,2.2985,207.341,0.134755
305.3000,2.39347,206.658,0.124929
305.2000,1.08486,207.318,0.13443
305.1000,-0.613742,207.64,0.139049
305.0000,1.8565,208.021,0.144506
304.9000,0.841996,207.322,0.134479
304.8000,1.57356,207.46,0.136464
304.7000,0.698409,206.947,0.129088
304.6000,2.04452,208.347,0.149178
304.5000,1.16176,206.091,0.11676
304.4000,0.820242,206.729,0.125956
304.3000,2.24775,206.181,0.118052
304.2000,3.59446,207.716,0.140138
304.1000,1.94175,207.39,0.135455
304.0000,-0.0860429,206.392,0.121092
303.9000,1.75118,207.803,0.141389
303.8000,0.678462,208.232,0.147524
303.7000,2.82796,207.051,0.130587
303.6000,1.07435,207.553,0.137797
303.5000,-0.176637,207.115,0.131499
303.4000,0.985546,207.52,0.137326
303.3000,1.5496,207.771,0.140918
303.2000,1.6215,207.332,0.134625
303.1000,2.04042,207.07,0.130864
303.0000,2.59393,208.117,0.145886
302.9000,1.06511,207.756,0.140707
302.8000,1.67186,207.34,0.134739
302.7000,1.46846,207.176,0.132378
302.6000,0.208585,207.081,0.13101
302.5000,2.67125,207.203,0.132769
302.4000,-0.330279,207.401,0.135618
302.3000,1.62096,207.643,0.139081
302.2000,0.704725,207.035,0.130359
302.1000,2.76859,207.164,0.132216
302.0000,2.59365,207.1,0.131287
301.9000,1.88926,207.733,0.140382
301.8000,1.77281,207.72,0.140187
301.7000,1.60515,207.632,0.138935
301.6000,1.06503,207.085,0.131075
301.5000,-0.0307009,207.801,0.141356
301.4000,1.44946,205.954,0.114781
301.3000,1.1242,207.287,0.133974
301.2000,1.04771,207.101,0.131304
301.1000,1.13183,207.437,0.136138
301.0000,0.660164,207.074,0.130913
300.9000,-0.740013,207.137,0.131825
300.8000,1.01547,207.562,0.137927
300.7000,1.72129,206.993,0.129756
300.6000,1.48961,206.762,0.12643
300.5000,1.66337,207.348,0.134853
300.4000,-0.627026,207.658,0.139309
300.3000,0.701283,207.2,0.13272
300.2000,1.93879,207.433,0.136073
300.1000,2.06901,206.404,0.121272
300.0000,1.29074,207.15,0.132004
299.9000,1.59085,206.79,0.126837
299.8000,2.76965,207.816,0.141568
299.7000,-0.300216,207.593,0.138366
299.6000,1.70495,207.127,0.131678
299.5000,-0.114781,206.991,0.129723
299.4000,3.25897,207.011,0.130016
299.3000,2.48401,207.185,0.132509
299.2000,1.28961,207.63,0.138903
299.1000,-0.204276,206.145,0.117529
299.0000,1.35574,206.752,0.126283
298.9000,2.25616,207.013,0.130033
298.8000,0.567967,207.562,0.137927
298.7000,1.63439,207.269,0.133713
298.6000,2.182,206.671,0.125124
298.5000,0.490552,206.724,0.125875
298.4000,3.35581,207.295,0.134088
298.3000,1.49793,206.167,0.117856
298.2000,1.24865,206.53,0.123084
298.1000,2.11787,206.525,0.123019
298.0000,1.62376,206.704,0.125598
297.9000,2.07337,206.8,0.126968
297.8000,2.59578,206.062,0.116335
297.7000,2.50182,206.843,0.127587
297.6000,2.99594,206.98,0.12956
297.5000,1.05722,207.024,0.130196
297.4000,1.15034,206.59,0.12395
297.3000,2.43395,207.151,0.13202
297.2000,-0.0291262,207.009,0.129984
297.1000,0.56924,207.712,0.140073
297.0000,1.80603,207.512,0.137212
296.9000,1.11584,206.686,0.125337
296.8000,1.02315,207.098,0.131255
296.7000,2.16071,206.245,0.118984
296.6000,2.12024,207.027,0.130245
296.5000,1.91913,207.294,0.134072
296.4000,2.39403,207.015,0.130065
296.3000,1.08801,206.929,0.128826
296.2000,2.90611,207.243,0.133339
296.1000,1.92807,207.305,0.134234
296.0000,1.63112,207.195,0.132655
295.9000,2.61549,207.348,0.134853
295.8000,1.19066,207.264,0.133649
295.7000,1.34009,207.213,0.132916
295.6000,0.581055,206.482,0.122399
295.5000,1.54205,207.028,0.130261
295.4000,0.0303074,206.983,0.129609
295.3000,1.57931,206.821,0.127278
295.2000,1.11509,206.737,0.126071
295.1000,0.910023,206.596,0.124031
295.0000,1.33956,206.994,0.129772
294.9000,1.32608,206.814,0.12718
294.8000,2.41611,207.166,0.132232
294.7000,0.444186,206.974,0.129478
294.6000,0.571264,207.005,0.129919
294.5000,0.913935,206.855,0.127767
294.4000,0.711218,206.939,0.128973
294.3000,1.77961,207.575,0.138106
294.2000,0.801732,207.102,0.13132
294.1000,1.23582,207.179,0.132427
294.0000,1.99664,206.973,0.129462
293.9000,0.0959162,207.281,0.133893
293.8000,2.10014,208.001,0.144215
293.7000,1.97867,205.26,0.104736
293.6000,1.75438,206.902,0.128436
293.5000,2.37992,206.649,0.124798
293.4000,1.1135,207.272,0.133762
293.3000,1.0554,207.002,0.129886
293.2000,0.270648,207.087,0.131108
293.1000,0.906412,206.928,0.12881
293.0000,2.38923,206.48,0.122366
292.9000,1.86812,207.331,0.134609
292.8000,0.394492,205.949,0.114699
292.7000,1.80546,206.657,0.124912
292.6000,1.45365,206.293,0.11967
292.5000,1.40048,206.378,0.120896
292.4000,1.02717,206.312,0.119948
292.3000,1.30967,206.751,0.126266
292.2000,0.944944,206.541,0.123247
292.1000,1.56882,206.168,0.117872
292.0000,0.822583,205.831,0.112997
291.9000,-0.279227,207.275,0.133811
291.8000,0.751927,207.056,0.130652
291.7000,0.157168,206.793,0.12687
291.6000,1.10524,206.983,0.129609
291.5000,-0.357923,206.939,0.128973
291.4000,2.22109,205.211,0.10403
291.3000,1.23197,206.293,0.11967
291.2000,1.40489,206.798,0.126951
291.1000,1.3145,205.919,0.114273
291.0000,-0.163455,206.267,0.119295
290.9000,1.89859,206.515,0.122872
290.8000,1.6501,206.864,0.127897
290.7000,0.858275,205.552,0.108967
290.6000,1.99401,206.579,0.123786
290.5000,0.580037,206.072,0.116482
290.4000,-0.536603,206.026,0.115812
290.3000,-0.374293,206.428,0.121615
290.2000,2.1638,207.139,0.131857
290.1000,0.314873,206.892,0.128305
290.0000,-0.075904,206.317,0.120013
289.9000,1.55125,207.325,0.134527
289.8000,0.628365,206.921,0.128713
289.7000,3.09914,206.5,0.12266
289.6000,2.18654,206.196,0.118265
289.5000,0.841963,206.652,0.124847
289.4000,1.4732,206.201,0.118346
289.3000,1.58625,207.414,0.135797
289.2000,0.60949,206.902,0.128436
289.1000,-0.263463,206.525,0.123019
289.0000,0.907659,206.775,0.126609
288.9000,1.31771,207.712,0.140073
288.8000,1.49091,206.861,0.127848
288.7000,0.343598,207.101,0.131304
288.6000,0.302962,207.334,0.134658
288.5000,0.10189,206.863,0.127881
288.4000,1.68508,207.064,0.130766
288.3000,-0.12791,206.553,0.123411
288.2000,0.117935,207.279,0.13386
288.1000,-0.168732,206.959,0.129267
288.0000,1.6498,206.834,0.127457
287.9000,1.6531,207.324,0.134511
287.8000,2.49657,206.764,0.126462
287.7000,0.0403472,207.211,0.132883
287.6000,1.86323,206.92,0.128696
287.5000,1.53126,207.169,0.132281
287.4000,2.14134,207.835,0.141844
287.3000,2.15282,207.047,0.130521
287.2000,0.833398,207.997,0.144166
287.1000,3.00317,206.907,0.128517
287.0000,-0.558331,207.232,0.133193
286.9000,0.659867,206.803,0.127017
286.8000,2.24974,207.303,0.134202
286.7000,1.07814,207.23,0.13316
286.6000,-0.554566,206.734,0.126022
286.5000,3.13602,206.937,0.128941
286.4000,1.79939,207.51,0.137179
286.3000,0.587068,207.053,0.130619
286.2000,0.694551,206.946,0.129071
286.1000,2.10851,207.508,0.137147
286.0000,2.55537,207.334,0.134658
285.9000,0.72531,207.245,0.133372
285.8000,1.54364,207.42,0.135894
285.7000,-0.505191,206.616,0.124325
285.6000,-0.667482,206.992,0.129739
285.5000,0.986509,206.7,0.125532
285.4000,2.11595,206.572,0.123688
285.3000,1.05224,206.75,0.12625
285.2000,1.01255,207.681,0.139634
285.1000,-1.11933,207.056,0.130652
285.0000,1.09559,207.437,0.136138
284.9000,-0.546178,206.47,0.122219
284.8000,0.421134,207.059,0.130701
284.7000,0.552487,206.827,0.127359
284.6000,0.801879,207.723,0.140236
284.5000,1.22333,207.17,0.132297
284.4000,1.03344,207.571,0.138057
284.3000,-1.05392,206.907,0.128517
284.2000,1.92445,207.035,0.130359
284.1000,1.36575,207.145,0.131939
284.0000,1.66759,206.645,0.124749
283.9000,1.44803,206.742,0.126136
283.8000,1.62654,207.384,0.135374
283.7000,0.23363,207.067,0.130815
283.6000,2.58548,207.253,0.133486
283.5000,1.228,207.526,0.137407
283.4000,0.474582,207.381,0.135325
283.3000,2.02157,207.962,0.143663
283.2000,2.43171,206.976,0.129511
283.1000,2.01234,207.481,0.136756
283.0000,0.144189,207.757,0.140723
282.9000,0.682744,207.399,0.135585
282.8000,1.73193,207.105,0.131369
282.7000,-0.198247,207.498,0.137
282.6000,0.534734,207.104,0.131352
282.5000,1.89791,206.979,0.129544
282.4000,0.180033,207.452,0.13635
282.3000,1.34247,206.372,0.120814
282.2000,0.883255,207.062,0.13075
282.1000,1.15478,207.354,0.134934
282.0000,-0.618388,207.713,0.140089
281.9000,0.594582,208.177,0.146746
281.8000,-0.0995747,207.807,0.141438
281.7000,1.23747,207.697,0.139862
281.6000,2.91487,207.884,0.142542
281.5000,1.55824,207.703,0.139943
281.4000,0.383834,207.937,0.143305
281.3000,2.31155,207.232,0.133193
281.2000,-0.840391,207.457,0.136415
281.1000,1.41705,206.864,0.127897
281.0000,1.91778,207.321,0.134462
280.9000,-0.319372,207.025,0.130212
280.8000,3.59334,206.903,0.128452
280.7000,0.102869,207.3,0.134169
280.6000,-0.464145,207.545,0.137683
280.5000,0.230269,208.521,0.151657
280.4000,1.65552,208.177,0.146746
280.3000,0.500278,208.293,0.1484
280.2000,-0.0198344,207.066,0.130799
280.1000,0.982545,207.485,0.136822
280.0000,1.22861,206.725,0.125891
279.9000,2.14567,207.495,0.136968
279.8000,-0.183736,207.358,0.134999
279.7000,0.213934,207.967,0.143728
279.6000,2.22627,207.146,0.131955
279.5000,1.21347,207.648,0.139163
279.4000,-0.552924,207.456,0.136398
279.3000,1.23157,207.439,0.136154
279.2000,0.729271,207.21,0.132867
279.1000,0.413638,207.296,0.134104
279.0000,0.10436,207.713,0.140089
278.9000,-0.121956,206.387,0.121027
278.8000,1.57599,207.365,0.135097
278.7000,0.588974,207.231,0.133176
278.6000,0.823331,208.19,0.146924
278.5000,-0.0910462,207.073,0.130896
278.4000,-0.293444,207.248,0.133421
278.3000,1.46774,207.575,0.138106
278.2000,-0.351667,207.671,0.139488
278.1000,2.12278,207.665,0.139407
278.0000,1.42245,208.158,0.14647
277.9000,2.13456,207.614,0.138675
277.8000,1.06611,207.526,0.137407
277.7000,0.937607,206.9,0.128419
277.6000,2.09927,207.716,0.140138
277.5000,0.492618,208.026,0.144571
277.4000,0.232987,207.665,0.139407
277.3000,1.34249,207.785,0.141129
277.2000,0.310078,207.624,0.138821
277.1000,-0.900592,207.715,0.140122
277.0000,1.66417,207.844,0.141974
276.9000,0.395278,207.499,0.137017
276.8000,2.93089,207.267,0.133697
276.7000,1.19925,207.926,0.143143
276.6000,-0.237095,207.754,0.140674
276.5000,1.8288,207.933,0.14324
276.4000,1.42596,208.046,0.144864
276.3000,2.1768,206.954,0.129185
276.2000,1.29724,206.705,0.125614
276.1000,-0.14932,207.616,0.138708
276.0000,0.474229,207.81,0.141486
275.9000,1.30038,207.002,0.129886
275.8000,0.690534,207.528,0.137439
275.7000,0.263967,207.232,0.133193
275.6000,0.0178439,208.228,0.147476
275.5000,-2.31207,207.486,0.136838
275.4000,-0.227406,207.691,0.13978
275.3000,2.83874,207.244,0.133355
275.2000,-0.700759,207.732,0.140365
275.1000,0.197736,206.997,0.129804
275.0000,1.56045,208.183,0.146827
274.9000,1.54936,207.797,0.141292
274.8000,0.563265,208.049,0.144912
274.7000,2.24251,207.816,0.141568
274.6000,-0.80719,206.939,0.128973
274.5000,0.344675,207.948,0.143468
274.4000,0.438335,207.613,0.138659
274.3000,0.406066,207.385,0.13539
274.2000,2.24924,207.332,0.134625
274.1000,0.232091,207.522,0.137358
274.0000,2.59422,207.522,0.137358
273.9000,1.18528,207.326,0.134544
273.8000,1.91683,207.217,0.132965
273.7000,0.807558,207.137,0.131825
273.6000,0.174888,207.325,0.134527
273.5000,1.6821,207.904,0.142835
273.4000,1.26024,207.317,0.134413
273.3000,1.21736,207.527,0.137423
273.2000,0.00797963,207.701,0.139927
273.1000,1.45577,207.858,0.142168
273.0000,-1.61599,207.579,0.138171
272.9000,0.826458,207.758,0.140739
272.8000,1.9055,207.329,0.134576
272.7000,-0.135895,207.749,0.140609
272.6000,0.80087,207.525,0.137391
272.5000,0.682157,207.44,0.136171
272.4000,-0.33305,207.338,0.134707
272.3000,1.06578,207.301,0.134186
272.2000,-0.932566,207.316,0.134397
272.1000,2.28943,207.867,0.142299
272.0000,0.321232,207.58,0.138187
271.9000,0.595901,208.147,0.146308
271.8000,0.775449,206.747,0.126217
271.7000,-1.15105,207.354,0.134934
271.6000,-0.0489199,207.197,0.132688
271.5000,2.17369,207.203,0.132769
271.4000,0.0799669,207.695,0.139829
271.3000,2.3091,207.836,0.14186
271.2000,0.0807261,207.99,0.144068
271.1000,1.12771,207.103,0.131336
271.0000,-0.886457,207.764,0.14082
270.9000,0.243692,207.587,0.138285
270.8000,1.22066,207.296,0.134104
270.7000,-0.333912,207.841,0.141925
270.6000,1.5274,207.976,0.143857
270.5000,0.139895,207.764,0.14082
270.4000,2.41385,208.052,0.144945
270.3000,1.02531,207.959,0.143614
270.2000,0.522136,208.969,0.158066
270.1000,-0.432277,208.203,0.147119
270.0000,0.766602,208.311,0.148659
269.9000,0.606951,207.9,0.14277
269.8000,-1.39794,208.433,0.15041
269.7000,-1.12819,208.45,0.150653
269.6000,0.652405,207.397,0.135553
269.5000,1.49855,208.192,0.146956
269.4000,1.88415,207.723,0.140236
269.3000,0.616578,208.263,0.147978
269.2000,-0.20683,207.918,0.143029
269.1000,0.251714,207.555,0.13783
269.0000,0.0678865,207.96,0.14363
268.9000,-0.587049,208.538,0.1519
268.8000,0.297754,209.282,0.162526
268.7000,1.15938,209.223,0.161686
268.6000,-0.0449386,207.768,0.140886
268.5000,0.312924,207.343,0.134788
268.4000,0.219154,208.242,0.14767
268.3000,1.35629,208.279,0.148205
268.2000,1.92649,208.273,0.148108
268.1000,0.686901,208.438,0.150474
268.0000,2.58236,208.087,0.145448
267.9000,-0.15613,208.077,0.145302
267.8000,0.245166,208.188,0.146892
267.7000,-0.154481,208.086,0.145432
267.6000,0.834687,207.741,0.140495
267.5000,0.394725,208.413,0.150118
267.4000,-1.75466,208.506,0.151447
267.3000,-0.911325,208.066,0.145156
267.2000,1.17575,208.791,0.155526
267.1000,-0.216582,208.415,0.15015
267.0000,1.63978,208.045,0.144847
266.9000,-0.384579,208.743,0.154831
266.8000,1.06084,208.818,0.155899
266.7000,0.23823,208.801,0.155656
266.6000,0.501175,208.192,0.146956
266.5000,-0.517273,207.7,0.139911
266.4000,-0.294297,208.534,0.151851
266.3000,1.81109,208.277,0.148173
266.2000,0.669228,208.373,0.149551
266.1000,-0.445867,208.52,0.151641
266.0000,0.519263,208.874,0.156707
265.9000,1.20533,209.078,0.159618
265.8000,-0.0535199,208.893,0.156982
265.7000,-0.370022,209.033,0.158971
265.6000,0.506827,208.29,0.148351
265.5000,0.612924,208.94,0.157645
265.4000,-0.447725,208.645,0.153438
265.3000,-1.45885,209.054,0.159279
265.2000,0.827029,208.303,0.148546
265.1000,0.184304,209.095,0.15986
265.0000,-0.0871669,208.856,0.156449
264.9000,1.23928,208.597,0.152742
264.8000,-0.321257,209.316,0.163011
264.7000,-0.858782,208.853,0.1564
264.6000,-0.160287,209.001,0.158519
264.5000,0.187029,208.967,0.158034
264.4000,-0.118,208.713,0.15441
264.3000,-0.427923,208.634,0.153276
264.2000,0.607585,209.633,0.167529
264.1000,-0.764529,208.995,0.158438
264.0000,0.983586,209.116,0.160151
263.9000,0.523618,209.223,0.161686
263.8000,0.901465,208.803,0.155688
263.7000,-0.434879,209.807,0.169996
263.6000,-1.29041,209.406,0.164286
263.5000,-0.0726704,209.784,0.169673
263.4000,-1.40059,209.585,0.166835
263.3000,2.68663,208.855,0.156432
263.2000,1.05239,209.046,0.159165
263.1000,-1.9298,210.191,0.175455
263.0000,-0.154582,208.874,0.156707
262.9000,0.325731,209.123,0.160264
262.8000,1.14372,209.377,0.163882
262.7000,2.6168,208.845,0.156287
262.6000,0.0306471,210.123,0.174489
262.5000,0.846139,208.932,0.157532
262.4000,-0.113605,210.545,0.180489
262.3000,-0.635865,209.596,0.166997
262.2000,0.399642,209.169,0.160911
262.1000,0.679085,210.111,0.174328
262.0000,-0.469011,209.178,0.16104
261.9000,-0.25785,209.857,0.170705
261.8000,0.759968,208.253,0.147832
261.7000,0.0268977,209.603,0.167093
261.6000,1.46096,209.199,0.161347
261.5000,-0.557316,209.809,0.170028
261.4000,1.38377,210.068,0.173717
261.3000,0.870364,210.032,0.173201
261.2000,-0.645851,210.272,0.176614
261.1000,1.7082,209.622,0.167368
261.0000,1.22699,209.627,0.167432
260.9000,0.119221,210.015,0.17296
260.8000,-0.451096,210.093,0.174071
260.7000,-0.867416,209.833,0.170366
260.6000,1.72141,209.478,0.165319
260.5000,0.530432,209.607,0.167158
260.4000,1.01311,211.085,0.18813
260.3000,-0.0985477,210.098,0.174135
260.2000,1.63719,210.325,0.177354
260.1000,0.28399,210.602,0.181292
260.0000,1.36069,210.237,0.176115
259.9000,0.34496,211.611,0.195563
259.8000,1.46954,210.515,0.180054
259.7000,1.7142,209.853,0.170657
259.6000,0.318108,209.986,0.172541
259.5000,0.372612,210.391,0.178302
259.4000,-0.0361,209.619,0.167319
259.3000,0.412876,210.297,0.176967
259.2000,-0.492588,210.566,0.180778
259.1000,-0.62788,210.229,0.176002
259.0000,1.32603,210.87,0.185082
258.9000,1.40203,210.502,0.179878
258.8000,0.701411,210.346,0.177659
258.7000,0.722117,210.726,0.183043
258.6000,0.448712,210.259,0.17642
258.5000,2.67734,210.753,0.183428
258.4000,0.824561,210.723,0.183011
258.3000,1.34705,210.484,0.179621
258.2000,1.40251,210.281,0.176742
258.1000,1.31579,210.463,0.179315
258.0000,1.18543,210.054,0.173507
257.9000,1.2266,210.967,0.186462
257.8000,-0.329167,210.687,0.182497
257.7000,0.743061,211.145,0.18898
257.6000,2.17642,211.075,0.187985
257.5000,-1.32986,210.768,0.183637
257.4000,-0.186856,210.752,0.183412
257.3000,-1.76733,211.757,0.197627
257.2000,1.79907,210.764,0.183589
257.1000,1.57034,212.156,0.203253
257.0000,0.79043,211.222,0.19007
256.9000,0.817318,210.531,0.18028
256.8000,2.19519,210.821,0.184391
256.7000,1.17185,210.998,0.186895
256.6000,-0.890764,210.873,0.18513
256.5000,0.271641,210.492,0.179733
256.4000,0.00445787,210.434,0.178913
256.3000,0.548025,211.288,0.190999
256.2000,2.52027,211.117,0.188579
256.1000,-0.878611,211.496,0.193946
256.0000,1.34838,211.18,0.189477
255.9000,-0.284244,210.677,0.182352
255.8000,0.0257509,212.553,0.208853
255.7000,1.1389,210.791,0.183974
255.6000,0.649304,211.022,0.187248
255.5000,0.563252,211.642,0.196011
255.4000,-0.791131,212.267,0.204817
255.3000,0.488982,211.511,0.194154
255.2000,-0.0130656,210.685,0.182464
255.1000,0.540698,211.715,0.197035
255.0000,1.58844,211.698,0.196795
254.9000,1.69686,210.746,0.183332
254.8000,-0.101828,211.459,0.193418
254.7000,1.06108,211.681,0.196555
254.6000,-0.163504,211.151,0.18906
254.5000,0.00146902,211.76,0.197675
254.4000,-0.10481,211.546,0.194651
254.3000,-0.666912,211.962,0.200521
254.2000,1.90751,212.299,0.20528
254.1000,1.49441,211.368,0.192137
254.0000,0.801518,212.168,0.203428
253.9000,1.5865,212.527,0.208487
253.8000,0.698775,210.462,0.179299
253.7000,-1.00664,212.032,0.201511
253.6000,0.197708,211.537,0.194523
253.5000,0.10475,211.936,0.200153
253.4000,-0.575814,212.038,0.201591
253.3000,0.62752,212.449,0.207386
253.2000,0.249625,212.102,0.202502
253.1000,2.52169,211.803,0.198283
253.0000,-0.466639,212.185,0.203668
252.9000,1.48259,213.11,0.216674
252.8000,0.206102,213.59,0.223414
252.7000,1.98621,213.03,0.21556
252.6000,0.477329,212.007,0.20116
252.5000,1.40975,212.535,0.208598
252.4000,0.0984266,212.361,0.206142
252.3000,-0.038888,213.434,0.221222
252.2000,1.18965,212.289,0.205137
252.1000,1.2204,212.613,0.209699
252.0000,0.324453,212.989,0.214987
251.9000,-0.239178,212.664,0.210416
251.8000,1.06398,211.6,0.195419
251.7000,0.48923,212.217,0.204115
251.6000,0.902342,211.758,0.197643
251.5000,1.01759,212.472,0.207705
251.4000,0.169738,211.732,0.197275
251.3000,-1.54277,212.952,0.214462
251.2000,1.40214,212.856,0.213109
251.1000,-0.106518,213.974,0.228794
251.0000,1.63311,212.904,0.213793
250.9000,1.69618,213.534,0.222636
250.8000,-0.0646775,213.685,0.224748
250.7000,-0.849104,213.132,0.216992
250.6000,1.83937,213.68,0.224668
250.5000,-0.586692,213.297,0.219298
250.4000,-0.323326,213.556,0.222937
250.3000,1.33078,213.191,0.21782
250.2000,-1.70674,212.716,0.211149
250.1000,0.793567,213.536,0.222652
250.0000,0.118136,213.164,0.217438
249.9000,0.49555,213.726,0.225319
249.8000,2.44414,212.691,0.210798
249.7000,-0.537288,213.453,0.221492
249.6000,-0.176918,212.639,0.210065
249.5000,-0.392834,213.483,0.221921
249.4000,-0.34407,213.46,0.221587
249.3000,-0.0727217,212.741,0.211499
249.2000,-0.711039,213.256,0.218726
249.1000,-1.05546,212.323,0.205615
249.0000,-1.07002,213.004,0.215194
248.9000,0.398308,213.625,0.223906
248.8000,-0.432418,213.131,0.216976
248.7000,-0.859772,213.631,0.223986
248.6000,-0.445817,213.368,0.2203
248.5000,1.01473,213.34,0.219903
248.4000,0.3619,213.281,0.219076
248.3000,0.145962,213.587,0.223367
248.2000,1.12113,213.404,0.220808
248.1000,-0.355145,213.904,0.227811
248.0000,-1.81567,213.557,0.222953
247.9000,-0.0148798,213.144,0.217151
247.8000,-1.2813,214.242,0.232534
247.7000,0.859312,214.333,0.233817
247.6000,-0.430262,214.078,0.230252
247.5000,-0.454313,214.767,0.239877
247.4000,-0.973154,214.513,0.236334
247.3000,0.358203,213.173,0.217565
247.2000,-1.61711,214.563,0.237031
247.1000,0.14986,214.665,0.238454
247.0000,0.813164,213.699,0.224938
246.9000,-0.163077,214.057,0.229951
246.8000,-1.6041,214.305,0.233421
246.7000,-0.922623,215.284,0.247079
246.6000,0.737746,213.989,0.229
246.5000,-2.13491,214.976,0.242785
246.4000,-0.189989,213.872,0.227366
246.3000,0.496557,214.189,0.231806
246.2000,-3.27493,215.205,0.245975
246.1000,-0.93039,214.799,0.24032
246.0000,-0.587988,214.625,0.237885
245.9000,-1.42187,215.437,0.249209
245.8000,0.0773305,214.883,0.241489
245.7000,-1.6703,214.383,0.234514
245.6000,-1.43598,215.341,0.247868
245.5000,-1.22251,214.997,0.243085
245.4000,-4.46917,213.431,0.22119
245.3000,-0.474367,215.894,0.255558
245.2000,-0.923566,216.764,0.267628
245.1000,-1.84148,216.418,0.262839
245.0000,-1.26194,214.249,0.232645
244.9000,-1.75574,214.218,0.232202
244.8000,-1.03365,215.822,0.254566
244.7000,-2.25829,216.188,0.259649
244.6000,-0.51,215.204,0.245959
244.5000,0.998973,218.166,0.287
244.4000,-2.33919,215.568,0.251037
244.3000,-1.82996,215.76,0.2537
244.2000,-0.818581,215.35,0.247994
244.1000,0.674423,215.517,0.250328
244.0000,-0.907799,216.479,0.263687
243.9000,-0.974847,216.074,0.25806
243.8000,-4.58215,216.015,0.257242
243.7000,-2.22941,215.743,0.253464
243.6000,-1.87921,215.99,0.256896
243.5000,-0.766505,216.635,0.265839
243.4000,-0.00121488,216.273,0.260828
243.3000,-2.53195,216.301,0.261221
243.2000,-1.39655,215.966,0.256566
243.1000,-0.798523,215.997,0.25699
243.0000,0.0507242,216.194,0.259727
242.9000,-3.26836,216.56,0.264802
242.8000,-3.97027,216.013,0.257211
242.7000,-2.17882,215.897,0.255605
242.6000,-4.71967,216.186,0.259617
242.5000,-1.86919,215.905,0.255716
242.4000,-2.58352,216.643,0.265949
242.3000,-3.90305,218.284,0.288623
242.2000,-3.25628,217.402,0.27645
242.1000,-2.99669,217.663,0.280064
242.0000,-4.08258,217.082,0.272034
241.9000,-3.26795,216.503,0.264017
241.8000,-2.57023,217.558,0.27861
241.7000,-4.69535,218.101,0.286094
241.6000,-3.03923,217.304,0.275104
241.5000,-3.42832,218.441,0.290774
241.4000,-2.45342,217.795,0.281877
241.3000,-4.99547,217.815,0.282159
241.2000,-3.25156,219.392,0.303847
241.1000,-4.88275,218.287,0.288654
241.0000,-4.33476,217.708,0.280674
240.9000,-5.00364,217.225,0.274008
240.8000,-5.99154,217.805,0.282018
240.7000,-4.02192,216.97,0.270482
240.6000,-3.62096,217.837,0.282456
240.5000,-6.56001,218.24,0.288014
240.4000,-2.16713,218.508,0.291694
240.3000,-7.15295,218.963,0.297955
240.2000,-4.84043,218.801,0.295729
240.1000,-6.49705,219.133,0.300288
240.0000,-6.25414,218.573,0.292598
239.9000,-6.25341,219.775,0.309094
239.8000,-4.53542,219.234,0.301671
239.7000,-4.83914,219.757,0.308846
239.6000,-8.02271,219.591,0.306564
239.5000,-7.99076,219.176,0.300879
239.4000,-6.72015,219.749,0.308737
239.3000,-7.70543,220.343,0.316857
239.2000,-4.84733,220.53,0.31941
239.1000,-7.47476,220.47,0.31859
239.0000,-6.39072,220.607,0.320462
238.9000,-6.43943,220.279,0.315975
238.8000,-7.07607,219.927,0.311172
238.7000,-8.65738,220.822,0.323399
238.6000,-8.15584,221.809,0.336832
238.5000,-7.78872,220.957,0.325237
238.4000,-7.8856,220.835,0.323569
238.3000,-9.42992,220.459,0.318436
238.2000,-6.56896,222.6,0.347562
238.1000,-9.35371,221.836,0.337202
238.0000,-10.3443,222.141,0.34134
237.9000,-7.47685,221.196,0.328494
237.8000,-9.15326,222.019,0.339679
237.7000,-8.78896,221.737,0.335847
237.6000,-9.06833,221.97,0.339018
237.5000,-11.2036,222.668,0.348483
237.4000,-11.126,222.881,0.351367
237.3000,-10.9675,223.294,0.356944
237.2000,-12.3518,222.931,0.352042
237.1000,-9.31723,221.524,0.332951
237.0000,-11.7988,223.035,0.353452
236.9000,-11.0856,223.246,0.356301
236.8000,-10.4606,223.419,0.358643
236.7000,-12.1811,223.143,0.354907
236.6000,-13.5091,222.503,0.346242
236.5000,-14.6407,223.639,0.361611
236.4000,-13.7875,225.194,0.38253
236.3000,-13.0099,224.112,0.367981
236.2000,-13.0386,224.023,0.366791
236.1000,-13.9493,224.761,0.376718
236.0000,-14.4995,224.231,0.369584
235.9000,-15.7318,224.539,0.373732
235.8000,-13.595,225.135,0.381739
235.7000,-15.3358,225.228,0.382986
235.6000,-14.4098,225.216,0.382834
235.5000,-16.9069,225.646,0.388591
235.4000,-16.0525,226.54,0.400548
235.3000,-13.949,225.261,0.383427
235.2000,-19.0053,226.214,0.396188
235.1000,-18.5609,226.374,0.398338
235.0000,-18.2125,226.028,0.393703
234.9000,-17.3386,226.04,0.39387
234.8000,-16.5262,226.695,0.40262
234.7000,-18.7117,226.747,0.403315
234.6000,-17.6138,227.494,0.413264
234.5000,-18.7072,226.815,0.404222
234.4000,-16.1445,227.896,0.418612
234.3000,-17.5088,228.182,0.422404
234.2000,-17.8068,227.207,0.409448
234.1000,-18.6728,227.454,0.412736
234.0000,-16.9862,227.979,0.419711
233.9000,-17.2726,227.719,0.416263
233.8000,-20.9348,228.464,0.426147
233.7000,-19.1261,228.433,0.425741
233.6000,-20.9113,228.126,0.421667
233.5000,-20.4152,228.912,0.432092
233.4000,-22.194,229.095,0.434506
233.3000,-20.9434,229.528,0.440228
233.2000,-21.8875,228.96,0.432722
233.1000,-21.591,229.426,0.43888
233.0000,-22.4714,230.165,0.448629
232.9000,-23.6306,229.622,0.44147
232.8000,-25.7627,229.276,0.436904
232.7000,-23.3539,229.965,0.446
232.6000,-23.3908,230.913,0.458486
232.5000,-24.3931,231.012,0.459781
232.4000,-24.9041,231.367,0.464438
232.3000,-27.1406,231.284,0.463352
232.2000,-24.3877,231.003,0.459662
232.1000,-25.6283,232.23,0.47575
232.0000,-26.0849,231.105,0.461002
231.9000,-26.8901,232.507,0.479365
231.8000,-26.1778,232.075,0.473719
231.7000,-27.0539,233.234,0.48886
231.6000,-25.168,232.999,0.485801
231.5000,-26.6451,233.026,0.486141
231.4000,-27.8362,232.261,0.47615
231.3000,-26.8695,234.131,0.500539
231.2000,-28.8373,233.583,0.493406
231.1000,-28.2921,233.442,0.491576
231.0000,-28.8126,232.828,0.483568
230.9000,-28.3788,234.283,0.502511
230.8000,-30.8527,234.058,0.499581
230.7000,-29.376,234.615,0.50682
230.6000,-30.2418,234.112,0.500288
230.5000,-32.2643,234.121,0.500406
230.4000,-30.5804,235.285,0.515496
230.3000,-30.9973,235.683,0.520639
230.2000,-32.4629,234.999,0.511799
230.1000,-30.635,234.75,0.508568
230.0000,-33.0371,234.857,0.509949
229.9000,-31.1925,235.389,0.516845
229.8000,-31.5817,235.423,0.517285
229.7000,-33.0344,234.638,0.507114
229.6000,-32.9493,235.528,0.518647
229.5000,-33.257,235.791,0.522045
229.4000,-32.4822,235.744,0.52143
229.3000,-35.761,236.445,0.530481
229.2000,-32.2635,237.23,0.540587
229.1000,-36.7226,236.469,0.530788
229.0000,-35.6584,236.581,0.532233
228.9000,-36.0485,237.108,0.539014
228.8000,-36.0603,236.702,0.533794
228.7000,-37.9304,237.835,0.548356
228.6000,-36.4654,237.953,0.549867
228.5000,-38.1115,238.818,0.560935
228.4000,-35.5099,237.749,0.547252
228.3000,-38.447,239.293,0.566999
228.2000,-37.4443,240.711,0.585058
228.1000,-37.9869,238.11,0.551872
228.0000,-38.2249,239.026,0.563599
227.9000,-36.847,240.162,0.578073
227.8000,-37.5483,240.123,0.577583
227.7000,-40.9018,240.453,0.581776
227.6000,-39.1765,241.047,0.589315
227.5000,-42.8218,241.214,0.591442
227.4000,-37.7394,240.9,0.587461
227.3000,-39.0976,241.321,0.592792
227.2000,-42.2027,241.212,0.591413
227.1000,-42.1901,242.114,0.60283
227.0000,-40.4276,241.46,0.594558
226.9000,-42.8204,242.267,0.604763
226.8000,-40.1516,242.466,0.607281
226.7000,-43.2985,243.049,0.614625
226.6000,-40.2661,243.036,0.614468
226.5000,-40.5332,242.555,0.608396
226.4000,-43.5847,242.929,0.613112
226.3000,-44.2364,243.474,0.619975
226.2000,-43.1776,243.674,0.622497
226.1000,-41.16,243.631,0.621955
226.0000,-41.4286,243.826,0.624405
225.9000,-42.6621,242.861,0.612255
225.8000,-41.2418,244.663,0.634911
225.7000,-43.3276,244.319,0.630593
225.6000,-46.4903,244.603,0.634159
225.5000,-43.1131,244.814,0.636799
225.4000,-45.874,245.546,0.645954
225.3000,-44.4887,244.79,0.636501
225.2000,-41.5734,244.948,0.638473
225.1000,-44.0447,245.455,0.644822
225.0000,-45.5085,246.339,0.65585
224.9000,-45.6689,246.949,0.663436
224.8000,-43.9671,245.986,0.651442
224.7000,-46.0571,246.044,0.652177
224.6000,-44.4263,246.51,0.657981
224.5000,-46.4801,246.065,0.652431
224.4000,-47.2853,246.989,0.663944
224.3000,-44.4833,247.559,0.671022
224.2000,-46.057,248.067,0.677316
224.1000,-42.6452,247.403,0.669082
224.0000,-45.64,247.929,0.675603
223.9000,-45.5686,247.983,0.676277
223.8000,-47.6361,247.903,0.67528
223.7000,-49.1134,249.855,0.699398
223.6000,-47.2419,249.29,0.692429
223.5000,-45.5568,248.095,0.677666
223.4000,-47.9021,249.402,0.693813
223.3000,-45.6464,249.487,0.69486
223.2000,-48.5636,249.62,0.696509
223.1000,-48.7335,249.96,0.700695
223.0000,-51.6372,250.133,0.702814
222.9000,-45.4693,251.431,0.718755
222.8000,-48.8622,250.248,0.704236
222.7000,-46.7476,251.117,0.714908
222.6000,-48.8712,251.791,0.723166
222.5000,-47.6142,251.504,0.719643
222.4000,-47.8212,251.45,0.718991
222.3000,-50.5539,250.868,0.71185
222.2000,-48.6365,252.052,0.726353
222.1000,-49.0932,252.693,0.734185
222.0000,-45.7791,251.803,0.723305
221.9000,-46.1254,253.722,0.746715
221.8000,-49.5654,253.517,0.74422
221.7000,-50.1767,253.183,0.740151
221.6000,-48.2788,253.484,0.74382
221.5000,-51.8671,253.622,0.745502
221.4000,-47.2052,254.359,0.754448
221.3000,-51.422,253.569,0.744854
221.2000,-48.7192,253.651,0.745846
221.1000,-51.0545,255.032,0.762605
221.0000,-52.4599,255.063,0.762976
220.9000,-49.5347,254.613,0.757527
220.8000,-44.4091,255.893,0.773016
220.7000,-49.654,255.264,0.765416
220.6000,-49.8371,255.851,0.77251
220.5000,-45.7906,257.167,0.78836
220.4000,-49.6614,257.569,0.793193
220.3000,-48.7878,256.41,0.779248
220.2000,-48.3839,256.588,0.781392
220.1000,-48.2721,257.341,0.790457
220.0000,-46.5242,257.065,0.787133
219.9000,-49.817,257.512,0.792512
219.8000,-49.2434,258.191,0.800654
219.7000,-47.9156,258.506,0.804427
219.6000,-45.7197,258.254,0.801415
219.5000,-47.6811,258.926,0.809456
219.4000,-51.5225,258.94,0.809619
219.3000,-50.5459,259.593,0.817413
219.2000,-47.6562,258.921,0.809388
219.1000,-46.8934,258.905,0.809199
219.0000,-49.158,260.357,0.826526
218.9000,-50.7958,259.539,0.816777
218.8000,-47.7832,259.734,0.819102
218.7000,-50.4897,260.022,0.822532
218.6000,-48.5792,260.769,0.831417
218.5000,-50.0781,261.236,0.836961
218.4000,-47.4606,260.949,0.833558
218.3000,-48.329,261.168,0.836154
218.2000,-44.7401,261.786,0.843491
218.1000,-49.4696,261.98,0.845785
218.0000,-49.3633,261.909,0.84494
217.9000,-47.0364,262.071,0.846858
217.8000,-46.8326,262.56,0.852647
217.7000,-47.7503,262.312,0.849714
217.6000,-46.9107,262.976,0.857558
217.5000,-48.0695,263.016,0.858026
217.4000,-47.4921,263.574,0.864613
217.3000,-47.347,263.675,0.8658
217.2000,-45.0266,264.219,0.8722
217.1000,-45.9052,264.91,0.880316
217.0000,-45.8419,265.322,0.885152
216.9000,-51.2228,265.251,0.884315
216.8000,-45.5095,265.381,0.885842
216.7000,-49.7483,265.784,0.89055
216.6000,-44.1263,265.687,0.889423
216.5000,-46.0621,266.135,0.894657
216.4000,-45.7851,265.783,0.890537
216.3000,-48.8161,267.407,0.909497
216.2000,-47.4356,266.154,0.894882
216.1000,-46.8042,266.928,0.903914
216.0000,-47.1444,268.061,0.917099
215.9000,-47.4098,268.104,0.9176
215.8000,-47.2696,267.49,0.91046
215.7000,-47.5628,266.586,0.899924
215.6000,-49.2999,268.42,0.921269
215.5000,-48.4448,269.009,0.9281
215.4000,-49.2344,269.115,0.92932
215.3000,-48.1915,269.412,0.932756
215.2000,-44.5552,269.883,0.938204
215.1000,-44.9169,270.391,0.944063
215.0000,-47.9123,269.905,0.938453
214.9000,-46.5603,270.37,0.943828
214.8000,-47.3087,271.043,0.951583
214.7000,-45.4053,270.742,0.948112
214.6000,-43.9985,270.996,0.951035
214.5000,-49.8126,271.073,0.951922
214.4000,-47.3868,271.815,0.960454
214.3000,-45.2563,271.154,0.952861
214.2000,-45.8551,272.581,0.969239
214.1000,-51.7706,272.661,0.97016
214.0000,-46.7154,273.1,0.975179
213.9000,-50.4367,272.987,0.973882
213.8000,-49.0514,273.495,0.979699
213.7000,-47.7668,274.338,0.989317
213.6000,-46.3418,273.78,0.982947
213.5000,-46.6619,274.427,0.990324
213.4000,-44.7728,273.874,0.98402
213.3000,-46.1086,274.741,0.993898
213.2000,-48.4244,274.795,0.994517
213.1000,-49.3014,275.334,1.00065
213.0000,-44.8415,276.669,1.01578
212.9000,-43.8984,275.08,0.997765
212.8000,-49.8823,275.824,1.00621
212.7000,-47.6132,276.108,1.00943
212.6000,-52.4547,278.126,1.03223
212.5000,-45.6176,277.449,1.02459
212.4000,-47.0175,278,1.03082
212.3000,-48.0187,278.057,1.03146
212.2000,-48.1161,277.838,1.02899
212.1000,-49.8179,279.209,1.04442
212.0000,-52.3279,279.139,1.04363
211.9000,-45.6029,280.268,1.05628
211.8000,-48.2635,280.708,1.06121
211.7000,-48.7933,280.749,1.06167
211.6000,-46.0638,281.011,1.06459
211.5000,-47.713,281.764,1.073
211.4000,-48.6669,282.09,1.07662
211.3000,-47.9314,282.61,1.08241
211.2000,-53.632,283.137,1.08826
211.1000,-44.4973,283.335,1.09046
211.0000,-50.1477,283.318,1.09027
210.9000,-49.1231,283.676,1.09424
210.8000,-53.0821,284.637,1.10488
210.7000,-53.4436,284.854,1.10728
210.6000,-48.2849,285.385,1.11313
210.5000,-50.8613,285.915,1.11898
210.4000,-50.3208,286.705,1.12766
210.3000,-47.8148,286.307,1.12329
210.2000,-53.5387,286.887,1.12966
210.1000,-49.9721,287.27,1.13387
210.0000,-52.6828,287.691,1.13849
209.9000,-53.2674,288.525,1.14761
209.8000,-52.0499,290,1.16368
209.7000,-52.8437,290.463,1.16872
209.6000,-49.6875,290.71,1.17141
209.5000,-46.3075,290.678,1.17106
209.4000,-52.2527,291.247,1.17723
209.3000,-50.2111,292.023,1.18564
209.2000,-56.9305,292.343,1.18909
209.1000,-52.6826,293.429,1.20082
209.0000,-55.3333,293.527,1.20187
208.9000,-55.2684,293.991,1.20687
208.8000,-49.6484,294.366,1.2109
208.7000,-51.4394,295.162,1.21944
208.6000,-55.1303,296.039,1.22883
208.5000,-48.5947,296.572,1.23454
208.4000,-49.9674,296.527,1.23405
208.3000,-51.5369,297.831,1.24796
208.2000,-54.8279,298.181,1.25168
208.1000,-51.0526,298.944,1.25978
208.0000,-49.7086,298.819,1.25846
207.9000,-55.2139,299.734,1.26815
207.8000,-51.4456,302.045,1.29254
207.7000,-55.5558,301.353,1.28525
207.6000,-50.5796,301.26,1.28427
207.5000,-50.5907,302.306,1.29528
207.4000,-50.8005,303.628,1.30915
207.3000,-47.3146,303.89,1.31189
207.2000,-45.5104,304.945,1.32292
207.1000,-44.6454,306.333,1.33737
207.0000,-52.295,306.532,1.33944
206.9000,-46.0345,306.858,1.34283
206.8000,-46.4853,306.89,1.34316
206.7000,-46.1568,308.677,1.36166
206.6000,-47.0722,309.136,1.3664
206.5000,-48.9057,309.716,1.37238
206.4000,-40.5413,310.772,1.38324
206.3000,-41.9864,311.041,1.386
206.2000,-42.7034,312.625,1.40223
206.1000,-39.3698,313.484,1.41099
206.0000,-40.2699,314.18,1.41809
205.9000,-41.7233,314.794,1.42434
205.8000,-36.9583,315.222,1.42868
205.7000,-47.8207,315.744,1.43397
205.6000,-42.2133,317.878,1.45554
205.5000,-36.1519,318.395,1.46076
205.4000,-34.6362,318.213,1.45892
205.3000,-42.3083,318.714,1.46396
205.2000,-40.2466,320.847,1.48536
205.1000,-29.6476,321.836,1.49524
205.0000,-34.4503,321.178,1.48866
204.9000,-29.9707,324.138,1.51813
204.8000,-22.4641,324.118,1.51793
204.7000,-36.9829,324.729,1.52399
204.6000,-28.4272,326.722,1.54367
204.5000,-38.0698,327.168,1.54805
204.4000,-27.3195,327.853,1.55479
204.3000,-32.4266,330.163,1.57742
204.2000,-26.0574,330.321,1.57896
204.1000,-27.487,331.686,1.59226
204.0000,-31.2369,332.23,1.59755
203.9000,-22.9429,334.313,1.61773
203.8000,-19.9137,334.91,1.62349
203.7000,-25.5939,335.504,1.62922
203.6000,-30.2225,337.702,1.65034
203.5000,-28.9502,339.252,1.66516
203.4000,-9.52437,339.843,1.6708
203.3000,-24.7566,339.619,1.66867
203.2000,-19.9072,341.448,1.68607
203.1000,-24.1076,342.016,1.69146
203.0000,-18.6531,344.195,1.71207
202.9000,-14.6856,343.12,1.70191
202.8000,-8.5401,345.453,1.72391
202.7000,-1.53277,346.847,1.73699
202.6000,-7.94613,347.681,1.7448
202.5000,-7.68792,347.977,1.74757
202.4000,-7.91952,350.731,1.77322
202.3000,-11.1654,353.151,1.79562
202.2000,0.784847,353.489,1.79874
202.1000,-9.78106,353.212,1.79619
202.0000,-8.37168,357.326,1.83397
201.9000,-2.16752,355.62,1.81834
201.8000,3.21385,359.053,1.84972
201.7000,-3.66523,362.31,1.87925
201.6000,-3.43452,361.552,1.8724
201.5000,5.13415,361.986,1.87632
201.4000,-1.35656,365.018,1.90364
201.3000,10.4201,366.681,1.91855
201.2000,11.3872,367.961,1.92998
201.1000,2.4356,369.147,1.94054
201.0000,11.8774,371.775,1.96384
200.9000,6.04846,371.785,1.96393
200.8000,10.3621,373.368,1.9779
200.7000,11.4152,375.53,1.9969
200.6000,7.61375,375.684,1.99825
200.5000,14.7159,376.931,2.00916
200.4000,4.38792,380.595,2.04105
200.3000,11.089,382.616,2.05854
200.2000,6.38741,382.61,2.05848
200.1000,23.475,385.71,2.08514
200.0000,18.7643,386.155,2.08896
199.9000,20.7234,387.245,2.09828
199.8000,16.0776,389.167,2.11466
199.7000,23.1694,392.597,2.14374
199.6000,29.3127,393.091,2.14791
199.5000,21.4848,395.075,2.16461
199.4000,37.6265,395.856,2.17117
199.3000,30.2458,398.218,2.19093
199.2000,25.1074,398.9,2.19661
199.1000,39.8147,400.56,2.21042
199.0000,26.7214,402.934,2.23009
198.9000,30.9649,402.636,2.22762
198.8000,30.4897,406.53,2.25969
198.7000,44.4169,407.517,2.26778
198.6000,35.9582,409.957,2.2877
198.5000,37.2352,412.391,2.30747
198.4000,43.9965,413.106,2.31326
198.3000,34.0752,416.338,2.33932
198.2000,33.1984,418.336,2.35536
198.1000,39.9604,418.789,2.35898
198.0000,22.0103,419.979,2.36849
197.9000,29.0935,422.8,2.39093
197.8000,37.0984,424.908,2.40763
197.7000,45.3425,426.446,2.41976
197.6000,25.8889,427.764,2.43012
197.5000,44.403,429.874,2.44668
197.4000,31.0529,432.613,2.46805
197.3000,38.3997,433.68,2.47635
197.2000,46.4164,436.194,2.49582
197.1000,32.0441,436.859,2.50095
197.0000,42.4696,439.007,2.5175
196.9000,49.3101,440.879,2.53187
196.8000,46.1874,444.267,2.55773
196.7000,42.2255,445.864,2.56987
196.6000,37.5525,447.085,2.57912
196.5000,41.1092,448.828,2.5923
196.4000,50.0288,450.537,2.60517
196.3000,53.4629,451.831,2.61489
196.2000,45.2936,455.935,2.64556
196.1000,43.1416,457.832,2.65966
196.0000,40.0384,459.616,2.67288
195.9000,46.9589,462.305,2.69271
195.8000,44.3567,464.623,2.70974
195.7000,38.808,464.87,2.71155
195.6000,28.3119,468.115,2.73525
195.5000,42.2822,468.852,2.74061
195.4000,38.7492,469.933,2.74846
195.3000,37.755,472.721,2.76865
195.2000,45.8735,473.893,2.7771
195.1000,39.8415,475.863,2.79127
195.0000,45.272,477.103,2.80017
194.9000,46.1807,478.842,2.81261
194.8000,44.5846,480.652,2.82552
194.7000,46.1853,482.087,2.83573
194.6000,34.3103,483.304,2.84436
194.5000,51.3735,486.264,2.86528
194.4000,41.4044,487.13,2.87138
194.3000,47.5726,489.549,2.88838
194.2000,40.1474,489.921,2.89099
194.1000,44.1039,493.385,2.91519
194.0000,29.8003,494.755,2.92472
193.9000,31.6034,497.524,2.94392
193.8000,41.772,500.56,2.96486
193.7000,44.9491,500.223,2.96254
193.6000,41.2159,502.855,2.98062
193.5000,39.9421,504.89,2.99454
193.4000,33.5828,506.047,3.00244
193.3000,33.2481,506.657,3.00659
193.2000,30.2964,509.106,3.02324
193.1000,37.8714,510.655,3.03373
193.0000,38.5158,511.892,3.04209
192.9000,39.5702,514.375,3.05882
192.8000,27.625,517.045,3.07673
192.7000,41.1857,516.638,3.07401
192.6000,39.6859,518.665,3.08756
192.5000,30.6695,521.31,3.10518
192.4000,35.1246,523.266,3.11817
192.3000,25.4009,525.767,3.13471
192.2000,34.9502,527.898,3.14875
192.1000,44.0917,529.518,3.15939
192.0000,36.2314,530.253,3.16421
191.9000,36.5966,532.925,3.18168
191.8000,21.4154,534.227,3.19016
191.7000,27.1779,535.132,3.19605
191.6000,17.9747,536.035,3.20192
191.5000,32.5725,539.693,3.2256
191.4000,34.7479,541.601,3.2379
191.3000,32.6851,543.26,3.24857
191.2000,34.2567,546.748,3.2709
191.1000,23.6655,547.47,3.2755
191.0000,26.9435,549.62,3.28919
190.9000,27.3554,552.778,3.30922
190.8000,35.8601,554.895,3.32258
190.7000,29.2552,557.027,3.33601
190.6000,14.5814,560.926,3.36044
190.5000,22.9496,562.729,3.37168
190.4000,23.2141,565.634,3.38975
190.3000,26.9906,567.195,3.39942
190.2000,14.9392,569.571,3.4141
190.1000,25.6403,571.616,3.42668
190.0000,22.0897,574.111,3.44199

##### Extended Information
[Comments]
Sample name,KMGM_BUFFER&PROTEIN_928
Comment,BUFFER  AND PROTEIN
User,KYLE MURPHY
Division
Company,Saint Mary's College

[Detailed Information]
Creation date,9/28/2022 3:20 PM

Data array type,Linear data array * 3
Horizontal axis,Wavelength [nm]
Vertical axis(1),CD [mdeg]
Vertical axis(2),HT [V]
Vertical axis(3),Abs
Start,320 nm
End,190 nm
Data interval,0.1 nm
Data points,1301    

[Measurement Information]
Instrument name,J-1500
Model name,J-1500
Serial No.,B051061638

Detector,PM-539
Detector S/N,B051061638
  Lock-in amp.,X mode
  HT volt,Auto

Accessory,PTC-517
Accessory S/N,B026561646
  Temperature,27.93 C
  Control sensor,Holder
  Monitor sensor,Holder

Measurement date,9/28/2022 3:20 PM

CD Overload detect,1046
Photometric mode,CD, HT, Abs
Measure range,320 - 190 nm
Data pitch,0.1 nm
CD scale,20 mdeg/0.05 dOD
FL scale,20 mdeg/0.05 dOD
D.I.T.,8 msec
Bandwidth,2.00 nm
Start mode,Immediately
Scanning mode,Continuous
Scanning speed,200 nm/min
Baseline correction,None
Shutter control,Auto
No. of cycle,1/1
N2 Flowmeter,Manual

Solvent,NaPO4 buffer

