TITLE,KMGM_BUFFER&PROTEIN_928
DATA TYPE,
ORIGIN,JASCO
OWNER,
DATE,22/09/28
TIME,15:18:43
SPECTROMETER/DATA SYSTEM,
LOCALE,1033
RESOLUTION,
DELTAX,-0.1
XUNITS,NANOMETERS
YUNITS,CD [mdeg]
Y2UNITS,HT [V]
Y3UNITS,ABSORBANCE
FIRSTX,  320.0000
LASTX,  190.0000
NPOINTS,    1301
FIRSTY,     1.27862
MAXY,    49.95761
MINY,   -56.57431
XYDATA
320.0000,1.27862,208.277,0.148173
319.9000,0.178138,208.691,0.154086
319.8000,3.64531,208.215,0.147281
319.7000,1.12046,208.812,0.155818
319.6000,0.978072,208.358,0.149324
319.5000,1.61994,208.464,0.150847
319.4000,-0.368184,207.901,0.142786
319.3000,0.718054,208.398,0.149907
319.2000,-0.0159948,208.118,0.145902
319.1000,1.58254,208.541,0.151949
319.0000,0.763597,207.765,0.140837
318.9000,2.46374,207.916,0.142997
318.8000,0.976448,207.637,0.139
318.7000,1.13447,208.628,0.153195
318.6000,1.84031,208.266,0.14801
318.5000,0.612516,208.471,0.150944
318.4000,2.16295,208.308,0.148611
318.3000,1.19771,208.411,0.150085
318.2000,1.9314,208.648,0.153471
318.1000,2.1438,208.124,0.145983
318.0000,2.36121,207.745,0.140544
317.9000,1.59883,208.197,0.147021
317.8000,2.25328,207.229,0.133144
317.7000,-0.117009,208.544,0.151997
317.6000,2.57827,208.254,0.147848
317.5000,1.40082,207.852,0.142087
317.4000,1.76611,208.304,0.148562
317.3000,2.14057,208.124,0.145983
317.2000,1.1795,208.446,0.150588
317.1000,1.88264,209.028,0.158907
317.0000,1.96,207.933,0.14324
316.9000,2.42554,208.032,0.144669
316.8000,1.89157,208.129,0.146048
316.7000,1.14999,208.316,0.148724
316.6000,1.72922,208.559,0.152208
316.5000,3.0508,208.311,0.148659
316.4000,2.15144,209.037,0.159036
316.3000,2.63057,208.276,0.148156
316.2000,1.72378,207.959,0.143614
316.1000,1.50089,209.084,0.159699
316.0000,0.385853,208.799,0.15564
315.9000,0.77107,207.937,0.143305
315.8000,3.06943,207.335,0.134674
315.7000,2.3258,208.966,0.158017
315.6000,1.78999,208.648,0.153471
315.5000,1.59963,208.571,0.15237
315.4000,3.33084,208.263,0.147978
315.3000,0.923266,207.86,0.142201
315.2000,1.19745,208.098,0.14561
315.1000,1.63806,207.861,0.142217
315.0000,1.29568,208.402,0.149956
314.9000,0.119627,207.93,0.143208
314.8000,0.109408,208.498,0.151333
314.7000,2.04937,208.632,0.153244
314.6000,2.04758,206.844,0.127604
314.5000,0.867667,207.183,0.132476
314.4000,-0.369824,208.101,0.145659
314.3000,0.370396,207.11,0.131434
314.2000,1.75944,208.39,0.149794
314.1000,0.976457,207.375,0.135243
314.0000,2.42194,207.717,0.140154
313.9000,2.56349,208.324,0.148838
313.8000,2.4832,207.483,0.136789
313.7000,2.12946,208.072,0.145237
313.6000,-0.51884,207.49,0.136886
313.5000,0.612524,207.828,0.141746
313.4000,0.623537,207.588,0.138301
313.3000,1.37398,207.166,0.132232
313.2000,2.38559,207.073,0.130896
313.1000,1.13314,207.23,0.13316
313.0000,1.62879,206.703,0.125581
312.9000,2.34997,207.209,0.132851
312.8000,1.48942,207.345,0.134804
312.7000,4.30332,207.515,0.137244
312.6000,1.50833,207.381,0.135325
312.5000,1.45366,206.996,0.129788
312.4000,3.25402,208.265,0.147994
312.3000,2.47046,207.521,0.137342
312.2000,3.7981,207.042,0.130456
312.1000,0.752845,208.032,0.144669
312.0000,1.36601,207.555,0.13783
311.9000,1.73234,207.99,0.144068
311.8000,1.81076,207.375,0.135243
311.7000,0.715799,207.465,0.136529
311.6000,1.11427,207.91,0.142916
311.5000,1.03901,207.482,0.136773
311.4000,1.01833,208.424,0.15028
311.3000,1.71771,207.74,0.140479
311.2000,2.87649,207.169,0.132281
311.1000,-0.35655,207.654,0.139244
311.0000,2.20965,208.092,0.145529
310.9000,1.88714,207.139,0.131857
310.8000,1.60563,207.581,0.138204
310.7000,1.18269,207.922,0.143094
310.6000,0.133631,207.792,0.141227
310.5000,2.64549,207.969,0.14376
310.4000,1.7541,207.837,0.141876
310.3000,0.575406,207.646,0.13913
310.2000,2.06549,208.358,0.149324
310.1000,2.25215,208.147,0.146308
310.0000,0.46669,208.031,0.144653
309.9000,1.31399,207.875,0.142412
309.8000,3.1664,207.556,0.137846
309.7000,1.13377,207.457,0.136415
309.6000,0.980371,208.035,0.144701
309.5000,2.53692,207.629,0.138886
309.4000,2.05899,207.713,0.140089
309.3000,2.90017,207.405,0.135666
309.2000,2.33247,207.99,0.144068
309.1000,1.2381,207.178,0.132411
309.0000,1.83626,207.493,0.136935
308.9000,0.809689,208.235,0.147573
308.8000,2.655,207.801,0.141356
308.7000,0.716815,206.942,0.129022
308.6000,0.0482448,207.854,0.14212
308.5000,2.85457,207.711,0.140057
308.4000,0.34545,207.565,0.137976
308.3000,2.16133,207.565,0.137976
308.2000,2.1903,207.601,0.13848
308.1000,1.64656,208.186,0.146875
308.0000,2.02678,207.853,0.142104
307.9000,2.03299,207.162,0.132183
307.8000,2.32541,207.554,0.137814
307.7000,0.32986,208.402,0.149956
307.6000,1.80598,207.47,0.13661
307.5000,1.87134,206.959,0.129267
307.4000,1.9916,207.014,0.130049
307.3000,1.20864,206.968,0.129397
307.2000,0.523155,207.44,0.136171
307.1000,0.784642,208.292,0.148384
307.0000,2.90581,207.504,0.137098
306.9000,2.29134,208.202,0.147102
306.8000,0.904768,208.078,0.145318
306.7000,1.27545,206.847,0.127653
306.6000,2.52353,207.402,0.135634
306.5000,2.64383,207.454,0.136382
306.4000,1.26053,207.593,0.138366
306.3000,1.45825,207.426,0.135976
306.2000,1.26701,207.972,0.143809
306.1000,2.37716,207.19,0.13259
306.0000,1.62706,208.235,0.147573
305.9000,0.10047,207.734,0.140398
305.8000,0.695654,208.685,0.154005
305.7000,2.15927,207.678,0.139586
305.6000,1.53966,206.874,0.128044
305.5000,0.486975,208.297,0.148465
305.4000,3.42931,207.81,0.141486
305.3000,2.21055,207.843,0.141958
305.2000,1.97601,207.942,0.14337
305.1000,1.46193,207.534,0.137521
305.0000,0.97786,207.831,0.141779
304.9000,1.46638,207.38,0.135309
304.8000,-0.2213,207.837,0.141876
304.7000,1.30456,208.198,0.147037
304.6000,-0.42949,207.829,0.141762
304.5000,0.806596,208.089,0.14548
304.4000,2.11029,208.08,0.145351
304.3000,2.46287,206.997,0.129804
304.2000,2.64455,206.967,0.129381
304.1000,2.46219,208.003,0.144247
304.0000,0.933995,207.715,0.140122
303.9000,2.80304,207.524,0.137374
303.8000,0.599776,207.244,0.133355
303.7000,1.66763,207.255,0.133518
303.6000,1.51745,207.939,0.143338
303.5000,0.936775,207.422,0.13591
303.4000,2.07093,207.697,0.139862
303.3000,-0.941832,207.346,0.13482
303.2000,0.504545,207.64,0.139049
303.1000,1.85275,207.228,0.133127
303.0000,1.62999,206.223,0.118657
302.9000,0.924672,207.146,0.131955
302.8000,1.25251,207.196,0.132672
302.7000,2.3171,207.528,0.137439
302.6000,-0.421394,207.125,0.131646
302.5000,1.5303,207.363,0.135064
302.4000,2.6712,207.195,0.132655
302.3000,2.15895,208.077,0.145302
302.2000,2.15944,206.77,0.126544
302.1000,1.48206,207.431,0.136041
302.0000,0.792835,207.766,0.140853
301.9000,2.19259,207.228,0.133127
301.8000,0.0882887,207.062,0.13075
301.7000,1.09191,206.642,0.1247
301.6000,3.26694,207.26,0.133583
301.5000,0.0900894,207.801,0.141356
301.4000,1.23106,207.309,0.1343
301.3000,0.927307,207.258,0.133567
301.2000,1.48647,207.289,0.134007
301.1000,1.84312,207.136,0.131808
301.0000,1.39663,206.922,0.128729
300.9000,0.484946,207.289,0.134007
300.8000,1.24463,207.013,0.130033
300.7000,1.2252,207.667,0.139439
300.6000,1.48851,207.064,0.130766
300.5000,0.375127,206.812,0.127147
300.4000,2.32906,207.626,0.138838
300.3000,0.738409,206.872,0.128011
300.2000,1.61626,207.079,0.130994
300.1000,2.68915,207.366,0.135113
300.0000,0.593283,207.234,0.133209
299.9000,1.12164,207.57,0.138041
299.8000,1.00931,206.434,0.121696
299.7000,0.850507,206.989,0.12969
299.6000,2.17049,207.047,0.130521
299.5000,2.45576,207.4,0.135602
299.4000,1.85815,207.656,0.139277
299.3000,3.2734,206.994,0.129772
299.2000,0.0292266,206.661,0.124978
299.1000,0.552766,207.078,0.130978
299.0000,-0.13916,206.682,0.125271
298.9000,0.778792,207.045,0.130505
298.8000,0.897355,207.139,0.131857
298.7000,1.16925,207.125,0.131646
298.6000,1.37302,207.352,0.134918
298.5000,1.04239,206.815,0.127196
298.4000,-0.391073,206.737,0.126071
298.3000,1.51185,207.384,0.135374
298.2000,3.17859,207.171,0.132313
298.1000,1.67701,207.088,0.131124
298.0000,2.14931,207.154,0.132069
297.9000,-0.552485,206.763,0.126446
297.8000,1.55073,206.764,0.126462
297.7000,1.79316,207.234,0.133209
297.6000,1.77309,206.436,0.121729
297.5000,3.17231,207.287,0.133974
297.4000,0.477699,207.179,0.132427
297.3000,1.41847,207.035,0.130359
297.2000,4.37394,207.427,0.135992
297.1000,1.12441,207.087,0.131108
297.0000,1.45158,206.994,0.129772
296.9000,0.0298952,207.373,0.135211
296.8000,1.40438,207.215,0.132948
296.7000,0.4823,207.135,0.131792
296.6000,0.432619,206.681,0.125255
296.5000,1.41508,207.027,0.130245
296.4000,1.59837,207.769,0.140902
296.3000,2.24618,206.981,0.129577
296.2000,2.39561,206.898,0.128386
296.1000,2.2464,206.924,0.128762
296.0000,2.17683,206.735,0.126038
295.9000,1.10819,206.718,0.125793
295.8000,2.40137,207.168,0.132265
295.7000,-0.537995,207.153,0.132053
295.6000,0.893101,207.896,0.142721
295.5000,2.30604,207.643,0.139081
295.4000,2.00807,207.649,0.139179
295.3000,0.383075,206.692,0.125418
295.2000,2.92421,207.738,0.140447
295.1000,1.38994,206.369,0.120765
295.0000,0.76504,208.378,0.149615
294.9000,0.607779,206.836,0.12749
294.8000,2.05328,206.815,0.127196
294.7000,1.45521,206.63,0.124521
294.6000,0.0984518,206.357,0.120585
294.5000,0.669581,206.811,0.127131
294.4000,2.00684,206.563,0.123558
294.3000,2.23579,207.541,0.137618
294.2000,1.24198,207.729,0.140317
294.1000,3.8714,205.753,0.111867
294.0000,2.9825,207.545,0.137683
293.9000,1.02555,207.062,0.13075
293.8000,0.754925,206.692,0.125418
293.7000,-0.517015,206.261,0.119213
293.6000,0.668888,207.159,0.132134
293.5000,2.30052,207.237,0.133258
293.4000,-0.394604,206.525,0.123019
293.3000,1.25824,207.891,0.14264
293.2000,1.42776,206.846,0.127637
293.1000,0.975565,206.477,0.122317
293.0000,0.634718,205.959,0.114846
292.9000,0.640553,206.76,0.126397
292.8000,-0.31312,206.955,0.129202
292.7000,2.27706,206.327,0.12016
292.6000,0.755648,207.486,0.136838
292.5000,-0.820651,207.235,0.133225
292.4000,1.32194,207.187,0.132541
292.3000,1.71516,205.835,0.113062
292.2000,-0.443156,207.179,0.132427
292.1000,-0.124633,205.901,0.114012
292.0000,1.88079,208.248,0.147751
291.9000,1.81296,206.369,0.120765
291.8000,0.341079,206.239,0.118886
291.7000,3.25463,206.004,0.115501
291.6000,1.4322,206.632,0.124553
291.5000,-0.803608,205.612,0.109835
291.4000,1.53659,205.47,0.107786
291.3000,3.35496,206.7,0.125532
291.2000,0.904887,206.111,0.117038
291.1000,2.01733,206.729,0.125956
291.0000,1.43531,205.721,0.111408
290.9000,2.18838,205.968,0.114977
290.8000,0.283251,207.308,0.134283
290.7000,-0.0338824,206.123,0.117218
290.6000,0.991378,206.678,0.125222
290.5000,1.92154,206.904,0.128468
290.4000,0.669691,205.93,0.114437
290.3000,1.78404,207.082,0.131026
290.2000,1.51724,206.253,0.119098
290.1000,2.65646,206.687,0.125353
290.0000,0.926042,206.809,0.127098
289.9000,0.467172,206.66,0.124961
289.8000,1.91901,206.648,0.124782
289.7000,1.72381,206.93,0.128843
289.6000,2.58007,206.789,0.126821
289.5000,2.24386,207.067,0.130815
289.4000,2.14857,207.314,0.134365
289.3000,0.960435,207.501,0.137049
289.2000,0.516406,206.602,0.124129
289.1000,2.11884,206.673,0.125141
289.0000,0.70105,206.886,0.128207
288.9000,0.926332,206.934,0.128908
288.8000,0.660033,207.153,0.132053
288.7000,0.943675,206.647,0.124766
288.6000,0.375898,207.078,0.130978
288.5000,1.54588,207.143,0.131906
288.4000,2.35027,207.117,0.131532
288.3000,1.0411,206.053,0.116204
288.2000,1.94603,206.698,0.1255
288.1000,2.07047,207.19,0.13259
288.0000,1.36469,207.02,0.130147
287.9000,1.08218,206.7,0.125532
287.8000,2.53663,207.342,0.134771
287.7000,0.855715,207.179,0.132427
287.6000,1.47764,208.045,0.144847
287.5000,0.794696,207.586,0.138269
287.4000,2.05172,206.829,0.127392
287.3000,1.41905,207.125,0.131646
287.2000,1.0177,206.572,0.123688
287.1000,0.948125,207.062,0.13075
287.0000,0.758756,207.138,0.131841
286.9000,2.03642,205.986,0.115239
286.8000,0.266991,206.681,0.125255
286.7000,1.12938,207.334,0.134658
286.6000,0.67597,206.634,0.124586
286.5000,1.85258,207.538,0.137586
286.4000,-0.633506,207.096,0.131238
286.3000,2.27738,206.891,0.128289
286.2000,1.42836,207.172,0.132329
286.1000,-0.749201,207.629,0.138886
286.0000,1.39593,207.479,0.13674
285.9000,2.90258,206.84,0.127555
285.8000,1.79261,208.14,0.14621
285.7000,1.41183,207.266,0.133681
285.6000,1.94872,207.45,0.136317
285.5000,0.513987,207.663,0.139374
285.4000,0.523767,207.478,0.136724
285.3000,1.61355,207.882,0.14251
285.2000,0.225785,206.925,0.128778
285.1000,2.50248,207.791,0.14121
285.0000,1.75638,206.817,0.127213
284.9000,0.481905,207.431,0.136041
284.8000,2.28718,207.362,0.135048
284.7000,1.19262,207.087,0.131108
284.6000,2.99136,206.362,0.120667
284.5000,0.138317,206.881,0.128142
284.4000,1.51667,207.417,0.135846
284.3000,1.41647,207.471,0.136626
284.2000,0.884813,207.068,0.130831
284.1000,0.281748,207.35,0.134885
284.0000,0.350965,207.162,0.132183
283.9000,0.672344,206.543,0.12328
283.8000,0.308445,207.306,0.134251
283.7000,1.89888,208.137,0.146162
283.6000,-0.147238,206.982,0.129593
283.5000,2.06229,207.398,0.135569
283.4000,2.14907,207.555,0.13783
283.3000,0.595951,207.271,0.133746
283.2000,2.43507,207.048,0.130538
283.1000,0.715665,207.499,0.137017
283.0000,2.08046,207.101,0.131304
282.9000,1.25802,209.008,0.158616
282.8000,0.826139,207.392,0.135487
282.7000,1.46244,207.355,0.134951
282.6000,-1.22211,207.001,0.12987
282.5000,0.0439415,207.206,0.132818
282.4000,2.47478,207.383,0.135357
282.3000,1.77577,207.546,0.1377
282.2000,1.80124,206.819,0.127245
282.1000,-0.373603,206.752,0.126283
282.0000,1.93245,207.202,0.132753
281.9000,0.687525,206.778,0.126658
281.8000,1.86157,206.76,0.126397
281.7000,-1.24223,208.253,0.147832
281.6000,1.74954,207.348,0.134853
281.5000,2.31483,207.333,0.134641
281.4000,0.475117,206.042,0.116041
281.3000,0.447344,207.928,0.143175
281.2000,1.8908,207.232,0.133193
281.1000,2.00596,206.835,0.127473
281.0000,1.07769,206.971,0.12943
280.9000,2.10423,208.412,0.150102
280.8000,0.0449865,206.441,0.12181
280.7000,1.82037,207.147,0.131971
280.6000,1.19232,206.94,0.128989
280.5000,0.577345,207.358,0.134999
280.4000,1.43487,207.146,0.131955
280.3000,-0.666748,207.06,0.130717
280.2000,-0.0894278,208.113,0.145821
280.1000,0.945138,206.998,0.129821
280.0000,1.11703,207.294,0.134072
279.9000,1.36187,207.656,0.139277
279.8000,0.297333,207.602,0.138496
279.7000,0.22038,207.488,0.13687
279.6000,0.601436,207.086,0.131092
279.5000,0.90836,207.269,0.133713
279.4000,0.816224,207.59,0.138334
279.3000,0.492641,207.092,0.131173
279.2000,1.33808,207.441,0.136187
279.1000,0.671953,207.484,0.136805
279.0000,1.71022,207.701,0.139927
278.9000,1.93269,207.854,0.14212
278.8000,-0.717246,206.704,0.125598
278.7000,0.985306,205.43,0.107196
278.6000,2.29458,207.195,0.132655
278.5000,1.87381,207.235,0.133225
278.4000,1.50149,207.145,0.131939
278.3000,0.90475,206.734,0.126022
278.2000,-0.442392,206.469,0.122202
278.1000,-0.795045,207.437,0.136138
278.0000,0.939202,207.661,0.139342
277.9000,-0.102346,207.637,0.139
277.8000,1.71158,207.099,0.131271
277.7000,2.08843,207.253,0.133486
277.6000,2.23679,206.9,0.128419
277.5000,0.547933,207.672,0.139504
277.4000,2.22269,207.576,0.138123
277.3000,1.1716,207.086,0.131092
277.2000,2.66456,207.093,0.131189
277.1000,-0.171698,207.79,0.141194
277.0000,-0.416023,207.381,0.135325
276.9000,1.46481,207.212,0.132899
276.8000,1.56032,208.098,0.14561
276.7000,2.06403,207.605,0.138545
276.6000,-0.901354,208.794,0.155559
276.5000,-0.72417,207.68,0.139618
276.4000,-0.0227021,206.222,0.118641
276.3000,1.92851,207.284,0.133941
276.2000,0.299056,209.06,0.159359
276.1000,0.868575,207.321,0.134462
276.0000,0.756514,207.175,0.132362
275.9000,1.00574,207.008,0.129967
275.8000,1.73742,206.766,0.126479
275.7000,1.22415,207.684,0.139683
275.6000,1.17334,207.945,0.143419
275.5000,1.33332,207.544,0.137667
275.4000,1.73437,207.329,0.134576
275.3000,1.03036,206.258,0.119164
275.2000,0.529239,208.035,0.144701
275.1000,-0.0260922,207.731,0.140349
275.0000,1.78388,207.102,0.13132
274.9000,0.623404,207.076,0.130945
274.8000,0.39545,207.304,0.134218
274.7000,1.38834,206.085,0.116662
274.6000,1.19185,207.876,0.142429
274.5000,1.77306,206.728,0.12594
274.4000,1.62063,207.095,0.131222
274.3000,0.416872,207.298,0.134137
274.2000,0.0294664,208.083,0.145399
274.1000,1.71745,208.06,0.145058
274.0000,1.47345,207.346,0.13482
273.9000,0.28058,207.995,0.144133
273.8000,1.41818,207.375,0.135243
273.7000,0.499075,207.551,0.137765
273.6000,0.110349,207.241,0.133323
273.5000,0.842141,206.937,0.128941
273.4000,0.334727,207.051,0.130587
273.3000,-0.635928,207.402,0.135634
273.2000,2.35511,207.127,0.131678
273.1000,0.572249,208.222,0.147378
273.0000,1.59908,207.331,0.134609
272.9000,0.389241,207.307,0.134267
272.8000,-1.07851,208.38,0.149648
272.7000,1.28861,207.844,0.141974
272.6000,1.79424,207.136,0.131808
272.5000,-0.118617,208.004,0.144263
272.4000,1.89017,207.618,0.138724
272.3000,-1.2075,208.007,0.144312
272.2000,2.78979,208.111,0.145789
272.1000,3.19756,207.698,0.139878
272.0000,-0.0150188,207.687,0.139715
271.9000,0.90639,207.513,0.137228
271.8000,0.986315,207.377,0.135276
271.7000,1.05805,206.426,0.121582
271.6000,-1.01097,207.444,0.136236
271.5000,0.426515,207.993,0.144101
271.4000,1.61674,206.87,0.127979
271.3000,0.309162,208.632,0.153244
271.2000,0.117517,208.09,0.145496
271.1000,-0.321239,206.651,0.124831
271.0000,-0.949581,207.956,0.143581
270.9000,1.44164,208.089,0.14548
270.8000,2.47603,207.037,0.130391
270.7000,0.524473,207.592,0.13835
270.6000,-0.712469,207.815,0.141551
270.5000,2.16484,206.658,0.124929
270.4000,0.536012,207.903,0.142818
270.3000,1.2868,207.621,0.138773
270.2000,0.644653,207.741,0.140495
270.1000,0.748484,208.676,0.153876
270.0000,0.380499,207.522,0.137358
269.9000,1.44996,207.667,0.139439
269.8000,2.21907,208.052,0.144945
269.7000,0.252662,208.15,0.146356
269.6000,3.38043,208.014,0.144409
269.5000,1.0425,208.152,0.146389
269.4000,-0.310461,208.129,0.146048
269.3000,1.01461,208.053,0.144961
269.2000,0.390061,207.701,0.139927
269.1000,0.0850384,208.131,0.146081
269.0000,0.831531,208.388,0.149761
268.9000,1.44294,208.009,0.144328
268.8000,2.10647,208.39,0.149794
268.7000,1.22393,208.361,0.149372
268.6000,-0.338497,207.657,0.139293
268.5000,-0.0602827,208.805,0.155721
268.4000,1.37067,208.388,0.149761
268.3000,1.74545,207.825,0.141698
268.2000,3.03117,208.334,0.148983
268.1000,0.336482,208.676,0.153876
268.0000,2.10783,207.524,0.137374
267.9000,1.10994,208.778,0.155332
267.8000,-0.0758892,209.041,0.159084
267.7000,1.04679,207.914,0.14298
267.6000,-0.660152,208.557,0.152175
267.5000,0.210177,208.16,0.146502
267.4000,-0.33629,209.078,0.159618
267.3000,0.088162,207.536,0.137553
267.2000,-0.0157775,209.006,0.158583
267.1000,-1.03862,208.022,0.144523
267.0000,1.11539,208.674,0.153843
266.9000,0.779098,208.965,0.158001
266.8000,0.675076,207.996,0.14415
266.7000,1.2905,209.323,0.163107
266.6000,1.31506,208.615,0.153001
266.5000,-0.167734,209.089,0.15978
266.4000,0.159639,208.548,0.152046
266.3000,0.700346,208.454,0.150701
266.2000,1.97115,208.93,0.1575
266.1000,-1.36002,208.616,0.153017
266.0000,0.720312,207.658,0.139309
265.9000,0.999242,208.364,0.149421
265.8000,0.720454,208.73,0.154652
265.7000,0.878022,209.305,0.162849
265.6000,0.0883728,208.978,0.158195
265.5000,0.204156,208.733,0.154685
265.4000,-0.710428,208.75,0.154928
265.3000,-0.209435,208.752,0.15496
265.2000,-0.217524,209.658,0.167884
265.1000,-0.710766,208.581,0.152515
265.0000,0.151906,208.605,0.152855
264.9000,1.09611,208.365,0.149437
264.8000,1.13695,208.527,0.151754
264.7000,1.35106,209.368,0.163753
264.6000,-1.51273,208.66,0.153649
264.5000,0.0511169,208.84,0.156222
264.4000,1.51948,208.423,0.150264
264.3000,-0.864592,209.182,0.161105
264.2000,0.248697,208.73,0.154652
264.1000,1.9352,209.219,0.161622
264.0000,-0.907039,209.025,0.158858
263.9000,-0.288712,208.944,0.15771
263.8000,-0.21458,208.883,0.156837
263.7000,0.793564,209.979,0.172445
263.6000,0.480003,208.637,0.153325
263.5000,-0.80732,209.742,0.169077
263.4000,0.115603,209.159,0.160765
263.3000,0.0911686,209.424,0.164544
263.2000,0.40763,209.326,0.163156
263.1000,0.879137,208.963,0.157969
263.0000,0.372056,209.505,0.165706
262.9000,0.418946,210.012,0.172912
262.8000,0.239087,209.091,0.159796
262.7000,0.565934,209.555,0.166416
262.6000,0.364567,209.359,0.163624
262.5000,0.708846,209.61,0.16719
262.4000,-0.686308,209.077,0.159602
262.3000,0.855171,210.067,0.1737
262.2000,1.74599,210.101,0.174183
262.1000,0.12895,208.903,0.157112
262.0000,-0.543749,209.915,0.171543
261.9000,0.0262159,210.047,0.173411
261.8000,-0.0222286,209.801,0.169915
261.7000,0.93953,209.607,0.167158
261.6000,0.978767,209.307,0.162881
261.5000,1.20231,208.452,0.150669
261.4000,1.78361,208.832,0.156109
261.3000,2.19258,209.835,0.170398
261.2000,1.48673,209.25,0.162074
261.1000,1.3154,210.386,0.178222
261.0000,0.728379,209.803,0.169947
260.9000,-0.954066,209.645,0.16769
260.8000,0.279498,209.92,0.171607
260.7000,0.767033,209.521,0.165932
260.6000,-0.150981,210.221,0.17589
260.5000,-0.0163107,209.959,0.172155
260.4000,0.227091,210.331,0.17745
260.3000,-1.19712,209.544,0.166255
260.2000,0.967228,210.057,0.173556
260.1000,0.26779,210.436,0.178929
260.0000,-0.493494,210.033,0.173217
259.9000,-0.339045,210.419,0.178688
259.8000,0.969936,210.533,0.180312
259.7000,-0.888306,210.252,0.176324
259.6000,0.275617,209.784,0.169673
259.5000,-0.0176479,210.002,0.172767
259.4000,0.40038,210.177,0.175262
259.3000,0.487768,210.004,0.172799
259.2000,1.13358,210.2,0.175584
259.1000,0.689896,210.032,0.173201
259.0000,-0.578314,210.707,0.182786
258.9000,4.10519,210.247,0.17626
258.8000,2.26502,210.445,0.179058
258.7000,-0.997051,210.17,0.175166
258.6000,0.127227,209.927,0.171704
258.5000,1.51078,210.783,0.183862
258.4000,1.30473,210.193,0.175487
258.3000,-0.113059,210.757,0.183492
258.2000,0.824902,210.694,0.182593
258.1000,0.736057,210.774,0.183733
258.0000,1.33219,210.293,0.176903
257.9000,0.822089,210.005,0.172815
257.8000,0.32808,210.819,0.184359
257.7000,0.931395,209.504,0.16569
257.6000,-0.11851,211.601,0.195435
257.5000,1.05121,211.182,0.189509
257.4000,0.455276,209.802,0.169931
257.3000,0.540082,210.594,0.181179
257.2000,-2.03403,210.616,0.181485
257.1000,0.0368246,210.465,0.179348
257.0000,-0.525687,211.017,0.187168
256.9000,0.39259,210.628,0.181661
256.8000,3.2281,211.076,0.188001
256.7000,1.29472,210.84,0.184664
256.6000,2.30467,210.871,0.185098
256.5000,0.911069,211.195,0.189685
256.4000,0.26994,211.303,0.191224
256.3000,-0.0117368,211.234,0.190246
256.2000,1.10968,211.293,0.191079
256.1000,0.58213,211.331,0.191608
256.0000,-0.271789,211.262,0.190631
255.9000,0.218995,211.827,0.198618
255.8000,2.38793,211.301,0.191191
255.7000,2.13353,211.087,0.188162
255.6000,0.583772,210.472,0.179444
255.5000,0.531455,211.538,0.194539
255.4000,0.635432,211.479,0.193706
255.3000,2.28495,211.876,0.199306
255.2000,-0.931245,211.648,0.196091
255.1000,1.55634,211.791,0.198107
255.0000,-2.32374,211.944,0.200265
254.9000,-0.0298894,211.913,0.199833
254.8000,-0.656611,211.383,0.192345
254.7000,2.55845,211.549,0.194699
254.6000,0.638425,211.741,0.197403
254.5000,0.7947,212.735,0.211404
254.4000,2.27785,211.631,0.195851
254.3000,-0.848418,211.759,0.197659
254.2000,-0.967995,211.914,0.199849
254.1000,-0.190625,211.919,0.199913
254.0000,-0.00220522,211.892,0.19953
253.9000,0.0202165,212.049,0.201751
253.8000,1.82964,211.93,0.200073
253.7000,0.665906,212.393,0.206605
253.6000,0.343356,212.294,0.2052
253.5000,0.160819,212.485,0.207897
253.4000,0.0456827,212.203,0.203923
253.3000,-0.721169,212.15,0.203173
253.2000,1.59161,212.748,0.211595
253.1000,0.84508,212.599,0.209491
253.0000,-0.255258,212.307,0.205392
252.9000,1.10442,212.443,0.207307
252.8000,1.53891,211.54,0.194571
252.7000,0.833616,212.047,0.201719
252.6000,-0.624515,211.834,0.198714
252.5000,0.0742233,212.588,0.209348
252.4000,3.21005,212.625,0.209858
252.3000,1.19376,213.098,0.216515
252.2000,0.457956,212.416,0.206924
252.1000,1.17363,212.903,0.213777
252.0000,0.813892,212.888,0.213554
251.9000,0.448499,212.88,0.213443
251.8000,0.898863,213.554,0.222906
251.7000,-0.680973,212.844,0.212949
251.6000,1.71567,212.781,0.212057
251.5000,2.47701,212.448,0.20737
251.4000,0.314598,213.182,0.217692
251.3000,-0.449661,213.34,0.219903
251.2000,0.790162,212.801,0.212344
251.1000,-0.354038,213.048,0.215815
251.0000,-0.137784,212.575,0.209156
250.9000,0.932226,213.2,0.217947
250.8000,-1.58476,213.664,0.224446
250.7000,0.139206,212.724,0.21126
250.6000,1.22617,211.933,0.200121
250.5000,-0.302014,213.559,0.222985
250.4000,-0.00663398,213.182,0.217692
250.3000,0.559506,212.949,0.214414
250.2000,0.288266,213.051,0.215847
250.1000,1.12669,213.085,0.216324
250.0000,0.127886,212.599,0.209491
249.9000,-0.378537,214.393,0.234656
249.8000,0.168408,214.134,0.231029
249.7000,0.488693,212.942,0.214319
249.6000,1.50415,213.384,0.220523
249.5000,-0.276085,213.255,0.21871
249.4000,-0.83629,213.609,0.223684
249.3000,0.522834,213.772,0.22597
249.2000,-0.157871,213.522,0.222461
249.1000,1.18774,213.342,0.219934
249.0000,1.98012,213.008,0.215242
248.9000,-0.108732,213.633,0.224018
248.8000,1.14689,213.263,0.218821
248.7000,-1.08228,213.423,0.221079
248.6000,-1.28254,213.473,0.221778
248.5000,-0.578999,212.993,0.215035
248.4000,-0.882209,212.914,0.213921
248.3000,-0.0802393,214.066,0.230078
248.2000,-0.221391,213.523,0.222477
248.1000,-0.342937,214.38,0.234467
248.0000,1.17759,214.159,0.231378
247.9000,-0.258284,213.558,0.222969
247.8000,-0.750127,213.358,0.220157
247.7000,-0.293943,213.673,0.224573
247.6000,-0.124404,213.934,0.228239
247.5000,-2.72796,214.955,0.242501
247.4000,0.00732184,214.178,0.231647
247.3000,-2.215,214.72,0.239213
247.2000,-0.0778584,214.381,0.234482
247.1000,-2.70303,214.468,0.235701
247.0000,-0.0808756,215.202,0.245943
246.9000,-2.34477,214.426,0.235116
246.8000,-0.743055,214.788,0.240162
246.7000,1.25774,214.674,0.238581
246.6000,1.07069,214.825,0.240683
246.5000,-1.70541,214.444,0.235369
246.4000,-1.80568,215.626,0.251841
246.3000,-1.05943,214.648,0.238217
246.2000,-1.47995,214.724,0.239276
246.1000,0.54338,214.485,0.235939
246.0000,-0.956614,214.652,0.238265
245.9000,-3.55102,214.944,0.242343
245.8000,-1.09119,214.316,0.23358
245.7000,-0.565485,215.072,0.244128
245.6000,0.213812,214.887,0.241553
245.5000,-4.00248,214.989,0.242975
245.4000,1.31648,215.392,0.248578
245.3000,-1.02558,215.485,0.249871
245.2000,-0.391764,214.806,0.240415
245.1000,-2.07067,215.155,0.24528
245.0000,-0.671506,215.735,0.253354
244.9000,-2.00458,215.622,0.251778
244.8000,-3.17473,214.781,0.240067
244.7000,-0.692758,216.154,0.259177
244.6000,-1.54412,216.136,0.258925
244.5000,-2.53521,215.021,0.243417
244.4000,-1.03945,214.902,0.241758
244.3000,-0.194638,215.514,0.250281
244.2000,-1.56355,215.677,0.25255
244.1000,-2.4502,215.831,0.254692
244.0000,-0.826025,214.709,0.239071
243.9000,-0.259399,215.977,0.256723
243.8000,-1.63231,214.754,0.239688
243.7000,-1.91138,215.419,0.248957
243.6000,-2.8792,215.611,0.251636
243.5000,-3.07941,215.852,0.254976
243.4000,-2.08474,216.238,0.260341
243.3000,-2.08681,216.606,0.265446
243.2000,-3.20389,216.077,0.258107
243.1000,-0.6567,216.03,0.257447
243.0000,-1.22765,215.94,0.256204
242.9000,-2.38746,216.325,0.261551
242.8000,-1.78077,216.163,0.259303
242.7000,-2.48556,216.91,0.269651
242.6000,-1.88335,217.15,0.272974
242.5000,-4.63633,216.632,0.265807
242.4000,-1.01873,217.181,0.273397
242.3000,-4.70014,216.699,0.266733
242.2000,-4.27757,217.217,0.273898
242.1000,-2.28338,217.782,0.281705
242.0000,-1.90865,217.052,0.271611
241.9000,-3.48454,217.283,0.274806
241.8000,-4.69693,217.421,0.276716
241.7000,-3.27798,216.837,0.268647
241.6000,-2.35896,216.828,0.268522
241.5000,-3.3189,217.666,0.280095
241.4000,-4.34655,218.152,0.286797
241.3000,-3.32744,217.305,0.27512
241.2000,-3.27869,218.148,0.28675
241.1000,-4.61638,218.217,0.287702
241.0000,-4.8688,218.093,0.285985
240.9000,-3.91011,218.559,0.292396
240.8000,-3.10459,218.655,0.29372
240.7000,-4.41429,218.599,0.292956
240.6000,-3.73547,218.553,0.292318
240.5000,-4.62919,218.781,0.295448
240.4000,-5.07917,218.219,0.287718
240.3000,-6.45041,219.445,0.304561
240.2000,-3.91695,219.389,0.3038
240.1000,-5.21207,219.132,0.300272
240.0000,-7.75543,218.791,0.295589
239.9000,-6.5585,219.009,0.298593
239.8000,-5.28859,218.738,0.294857
239.7000,-6.69781,219.175,0.300863
239.6000,-6.88023,219.153,0.300568
239.5000,-5.92197,219.664,0.307573
239.4000,-5.21516,219.135,0.300319
239.3000,-7.78579,219.979,0.311885
239.2000,-6.0834,220.189,0.314751
239.1000,-6.50384,220.211,0.315046
239.0000,-6.63734,220.373,0.317259
238.9000,-8.86398,220.94,0.325006
238.8000,-9.11065,220.467,0.318544
238.7000,-5.12232,221.195,0.328479
238.6000,-7.38148,221.009,0.325948
238.5000,-9.19961,221.301,0.329914
238.4000,-7.34701,221.17,0.328139
238.3000,-9.21008,221.467,0.33218
238.2000,-9.82085,221.567,0.333536
238.1000,-9.20781,221.872,0.337679
238.0000,-9.18397,221.865,0.337587
237.9000,-8.65826,221.554,0.333367
237.8000,-10.2517,222.51,0.346334
237.7000,-9.43534,221.901,0.338079
237.6000,-8.84906,221.401,0.331286
237.5000,-9.7293,222.737,0.349419
237.4000,-11.1247,222.03,0.339833
237.3000,-9.07705,221.405,0.331332
237.2000,-11.3752,222.494,0.346119
237.1000,-11.7571,223.041,0.353528
237.0000,-9.94694,223.22,0.355949
236.9000,-10.8812,223.63,0.361488
236.8000,-12.3009,222.708,0.34902
236.7000,-13.5692,223.857,0.364545
236.6000,-11.0729,224.303,0.37056
236.5000,-14.5423,223.763,0.363277
236.4000,-13.6371,223.953,0.365844
236.3000,-13.6833,223.994,0.366394
236.2000,-14.9099,224.284,0.370301
236.1000,-14.0865,225.052,0.380629
236.0000,-11.7534,223.654,0.36181
235.9000,-9.04068,224.513,0.373381
235.8000,-13.169,224.54,0.373747
235.7000,-14.7763,224.827,0.377601
235.6000,-11.978,225.688,0.389153
235.5000,-15.3917,225.918,0.392232
235.4000,-17.3273,225.64,0.388515
235.3000,-15.6045,225.853,0.391368
235.2000,-19.074,225.456,0.38604
235.1000,-16.3669,225.399,0.385281
235.0000,-13.9963,225.746,0.389927
234.9000,-17.1215,226.047,0.39396
234.8000,-15.5719,226.184,0.395794
234.7000,-16.2708,225.678,0.389016
234.6000,-18.2095,226.317,0.397566
234.5000,-17.1765,226.925,0.405688
234.4000,-16.3087,227.132,0.408452
234.3000,-16.2907,228.232,0.423066
234.2000,-18.4815,228.105,0.421382
234.1000,-20.4015,227.777,0.417031
234.0000,-19.5725,228.011,0.420133
233.9000,-21.5495,228.494,0.426553
233.8000,-21.4281,228.808,0.430712
233.7000,-21.2671,228.591,0.42783
233.6000,-20.7649,229.07,0.434176
233.5000,-20.0154,229.508,0.439973
233.4000,-21.294,229.003,0.433292
233.3000,-22.8776,228.914,0.432107
233.2000,-21.7728,229.693,0.442412
233.1000,-22.086,229.269,0.436814
233.0000,-23.4294,229.089,0.434431
232.9000,-24.3652,229.206,0.435975
232.8000,-23.3038,230.798,0.456967
232.7000,-24.5811,229.505,0.439928
232.6000,-25.614,230.256,0.449838
232.5000,-22.564,231.08,0.460674
232.4000,-24.3758,231.289,0.463412
232.3000,-25.0702,231.483,0.465969
232.2000,-25.6498,231.327,0.463918
232.1000,-25.6816,231.873,0.471078
232.0000,-26.4314,232.218,0.475587
231.9000,-26.4463,231.835,0.470574
231.8000,-28.01,232.926,0.48484
231.7000,-26.6442,233.521,0.492594
231.6000,-27.5355,232.945,0.485091
231.5000,-29.3496,233.445,0.491606
231.4000,-26.119,232.645,0.481171
231.3000,-29.1932,233.43,0.491414
231.2000,-28.1259,233.548,0.492948
231.1000,-29.7865,233.192,0.488313
231.0000,-29.7832,233.191,0.488298
230.9000,-27.3511,233.123,0.487412
230.8000,-30.9686,233.367,0.490587
230.7000,-27.6751,233.822,0.496517
230.6000,-28.5432,234.358,0.503482
230.5000,-29.6547,233.515,0.49252
230.4000,-30.3583,233.836,0.496694
230.3000,-31.1949,234.802,0.509244
230.2000,-31.82,234.28,0.502467
230.1000,-30.1242,234.997,0.51177
230.0000,-32.0568,234.886,0.510331
229.9000,-32.4288,234.742,0.508466
229.8000,-34.643,235.721,0.521137
229.7000,-33.137,235.541,0.518809
229.6000,-31.0688,235.849,0.522791
229.5000,-33.9369,236.456,0.530627
229.4000,-32.6693,235.911,0.523596
229.3000,-35.6352,237.094,0.538839
229.2000,-33.2903,236.269,0.528216
229.1000,-36.9097,236.725,0.534086
229.0000,-34.1171,237.475,0.543732
228.9000,-34.813,237.435,0.543222
228.8000,-34.7869,237.095,0.538854
228.7000,-35.6103,238.135,0.552191
228.6000,-36.9963,237.749,0.547252
228.5000,-37.2468,237.955,0.549896
228.4000,-38.5738,238.725,0.559747
228.3000,-35.7368,238.783,0.560486
228.2000,-34.8305,239.167,0.565393
228.1000,-37.1091,240.173,0.578217
228.0000,-38.651,239.45,0.569008
227.9000,-38.4516,239.107,0.564626
227.8000,-38.8744,239.906,0.574813
227.7000,-40.2742,240.669,0.584526
227.6000,-37.8366,240.773,0.58585
227.5000,-40.1292,240.998,0.588697
227.4000,-43.2918,241.743,0.598144
227.3000,-42.8625,240.827,0.586526
227.2000,-41.7961,241.238,0.591743
227.1000,-38.9522,241.343,0.593079
227.0000,-38.7026,242.372,0.606094
226.9000,-39.6072,242.122,0.60293
226.8000,-40.4895,242.329,0.60555
226.7000,-39.5451,242.066,0.602228
226.6000,-42.7578,242.625,0.609283
226.5000,-39.393,242.821,0.611755
226.4000,-43.4718,243.127,0.61561
226.3000,-40.8854,242.691,0.610112
226.2000,-41.412,243.741,0.623337
226.1000,-39.964,243.092,0.615168
226.0000,-41.5538,243.929,0.6257
225.9000,-45.2757,244.064,0.627394
225.8000,-41.1611,244.084,0.62765
225.7000,-43.2342,244.463,0.632398
225.6000,-44.2264,243.948,0.625942
225.5000,-43.2125,244.789,0.636487
225.4000,-42.7273,245.475,0.645062
225.3000,-43.8863,244.807,0.636714
225.2000,-45.5359,245.181,0.641394
225.1000,-44.3974,246.021,0.651881
225.0000,-46.7335,246.088,0.652714
224.9000,-48.5924,245.999,0.651612
224.8000,-44.6098,246.187,0.653957
224.7000,-44.6998,246.612,0.65925
224.6000,-44.567,246.63,0.659476
224.5000,-46.6555,247.125,0.665634
224.4000,-46.3435,246.874,0.662507
224.3000,-46.6986,247.011,0.664211
224.2000,-50.1654,247.97,0.676108
224.1000,-47.798,247.656,0.672217
224.0000,-47.7817,248.188,0.678817
223.9000,-48.1551,247.939,0.675729
223.8000,-47.0368,247.844,0.674549
223.7000,-48.3912,248.011,0.676628
223.6000,-44.1852,248.671,0.684789
223.5000,-44.6535,249.261,0.69208
223.4000,-48.5362,249.286,0.692387
223.3000,-47.3321,249.87,0.699579
223.2000,-49.0538,250.555,0.70801
223.1000,-46.2084,249.619,0.696495
223.0000,-47.2625,250.065,0.701978
222.9000,-46.2718,250.906,0.712323
222.8000,-46.1334,250.636,0.708998
222.7000,-47.7722,251.217,0.716131
222.6000,-48.6083,250.733,0.710195
222.5000,-46.8322,251.294,0.717075
222.4000,-47.4318,251.725,0.722348
222.3000,-50.3009,252.161,0.727683
222.2000,-47.7326,252.682,0.734047
222.1000,-47.221,251.824,0.723568
222.0000,-50.8213,252.415,0.730783
221.9000,-45.6958,251.85,0.723887
221.8000,-47.0158,253.558,0.744716
221.7000,-45.2734,253.455,0.743462
221.6000,-46.2189,254.25,0.753129
221.5000,-47.7625,254.011,0.750226
221.4000,-47.4019,253.928,0.749221
221.3000,-50.1972,253.993,0.750006
221.2000,-48.801,253.98,0.749854
221.1000,-47.9195,254.527,0.756483
221.0000,-48.271,254.678,0.758323
220.9000,-47.9092,255.195,0.76458
220.8000,-51.4092,255.274,0.76554
220.7000,-50.6175,255.698,0.770663
220.6000,-49.2816,256.23,0.777077
220.5000,-46.0708,256.352,0.778552
220.4000,-50.1125,256.931,0.785525
220.3000,-48.9023,256.477,0.780054
220.2000,-51.1082,256.877,0.784871
220.1000,-46.2407,257.156,0.788237
220.0000,-48.5008,257.381,0.790933
219.9000,-50.6453,257.551,0.792975
219.8000,-49.9798,257.044,0.786888
219.7000,-42.8324,258.185,0.800586
219.6000,-47.8478,258.241,0.801252
219.5000,-48.5539,258.607,0.805634
219.4000,-47.6185,258.845,0.808481
219.3000,-50.3065,258.328,0.802297
219.2000,-46.9973,258.917,0.809348
219.1000,-47.4325,259.385,0.814938
219.0000,-51.0332,259.486,0.816142
218.9000,-50.1198,259.727,0.819021
218.8000,-45.3781,260.056,0.822937
218.7000,-47.0923,260.085,0.823288
218.6000,-46.0931,260.931,0.833342
218.5000,-46.8114,260.578,0.829154
218.4000,-47.8757,261.495,0.840039
218.3000,-46.2033,260.906,0.833046
218.2000,-49.275,261.756,0.843128
218.1000,-44.3886,261.233,0.836934
218.0000,-48.3779,261.693,0.84239
217.9000,-48.9342,262.225,0.848682
217.8000,-46.4756,263.005,0.857906
217.7000,-48.9386,263.082,0.858815
217.6000,-46.4365,262.667,0.853906
217.5000,-47.0306,263.759,0.866788
217.4000,-48.4522,263.587,0.864759
217.3000,-48.0606,264.393,0.874251
217.2000,-50.0898,264.492,0.875409
217.1000,-48.4327,264.496,0.875462
217.0000,-46.6584,264.789,0.878894
216.9000,-43.8064,265.469,0.886863
216.8000,-48.3348,265.405,0.88612
216.7000,-47.6791,265.879,0.891664
216.6000,-46.435,265.7,0.889569
216.5000,-46.0289,266.168,0.895041
216.4000,-49.5708,266.805,0.902474
216.3000,-45.1749,266.63,0.900439
216.2000,-45.9275,267.032,0.905129
216.1000,-48.083,266.855,0.903069
216.0000,-47.2451,267.387,0.90926
215.9000,-46.5235,267.657,0.912398
215.8000,-47.4528,268.196,0.918665
215.7000,-46.3923,268.569,0.922992
215.6000,-47.6607,268.45,0.921611
215.5000,-45.0867,269.123,0.929412
215.4000,-47.3711,269.237,0.930737
215.3000,-48.6116,269.54,0.934237
215.2000,-46.0489,269.218,0.930514
215.1000,-44.6773,269.914,0.938558
215.0000,-46.4623,270.144,0.941213
214.9000,-46.8541,270.64,0.946937
214.8000,-47.2532,270.916,0.950122
214.7000,-44.746,270.615,0.94665
214.6000,-46.5445,271.639,0.958436
214.5000,-49.524,271.204,0.953434
214.4000,-44.691,271.577,0.95772
214.3000,-48.3221,271.399,0.955675
214.2000,-47.6956,272.043,0.963068
214.1000,-46.6152,273.009,0.974142
214.0000,-46.5776,272.691,0.970497
213.9000,-47.7002,272.744,0.971107
213.8000,-49.4452,273.959,0.98499
213.7000,-49.3236,274.411,0.990144
213.6000,-49.7677,273.755,0.982662
213.5000,-51.3738,273.614,0.981058
213.4000,-50.3371,274.427,0.990324
213.3000,-45.0322,275.129,0.998319
213.2000,-43.5586,275.636,1.00407
213.1000,-48.6886,275.789,1.00581
213.0000,-49.4067,275.346,1.00078
212.9000,-47.8456,275.742,1.00528
212.8000,-51.092,276.848,1.01781
212.7000,-46.9069,277.369,1.0237
212.6000,-49.89,277.365,1.02365
212.5000,-49.8051,277.766,1.02817
212.4000,-50.3991,278.147,1.03246
212.3000,-49.6231,278.617,1.03776
212.2000,-49.1932,278.968,1.04171
212.1000,-46.4452,279.199,1.0443
212.0000,-47.5807,279.888,1.05203
211.9000,-47.2058,280.09,1.05429
211.8000,-51.862,280.303,1.05668
211.7000,-47.6316,280.928,1.06367
211.6000,-51.316,280.439,1.0582
211.5000,-48.9648,282.273,1.07867
211.4000,-49.9464,282.193,1.07777
211.3000,-50.7949,282.411,1.08021
211.2000,-52.6421,282.95,1.08619
211.1000,-53.7672,283.922,1.09697
211.0000,-52.5277,283.6,1.0934
210.9000,-46.5183,283.963,1.09742
210.8000,-46.455,284.786,1.10653
210.7000,-54.3136,284.848,1.10721
210.6000,-49.6168,285.764,1.11732
210.5000,-52.6016,285.628,1.11582
210.4000,-51.24,286.409,1.12441
210.3000,-49.8886,285.62,1.11573
210.2000,-48.752,287.163,1.1327
210.1000,-51.7904,287.425,1.13557
210.0000,-56.5743,287.958,1.1414
209.9000,-51.1849,288.352,1.14572
209.8000,-49.6514,288.787,1.15047
209.7000,-51.7522,289.807,1.16159
209.6000,-55.1842,290.227,1.16616
209.5000,-51.087,290.678,1.17106
209.4000,-48.7345,291.635,1.18143
209.3000,-51.7122,292.246,1.18805
209.2000,-54.4301,293.183,1.19817
209.1000,-46.9653,292.744,1.19343
209.0000,-53.1851,293.987,1.20682
208.9000,-53.5504,292.842,1.19449
208.8000,-52.8821,295.424,1.22225
208.7000,-54.2604,294.737,1.21488
208.6000,-51.9864,295.899,1.22734
208.5000,-50.1117,295.356,1.22152
208.4000,-49.9216,296.916,1.2382
208.3000,-54.8731,297.354,1.24288
208.2000,-53.455,298.73,1.25751
208.1000,-49.9139,298.133,1.25116
208.0000,-54.4939,299.787,1.26871
207.9000,-52.4076,301.343,1.28514
207.8000,-50.6281,300.983,1.28136
207.7000,-52.4496,301.147,1.28308
207.6000,-45.8941,302.731,1.29974
207.5000,-44.0239,302.951,1.30205
207.4000,-53.9647,303.747,1.3104
207.3000,-48.5118,303.648,1.30937
207.2000,-52.013,304.94,1.32287
207.1000,-51.7,306.283,1.33685
207.0000,-45.5272,306.21,1.3361
206.9000,-44.9458,306.462,1.33871
206.8000,-46.4966,307.082,1.34515
206.7000,-45.9183,308.415,1.35896
206.6000,-47.8032,309.306,1.36815
206.5000,-49.8809,308.882,1.36378
206.4000,-46.0204,311.511,1.39082
206.3000,-53.7629,310.826,1.3838
206.2000,-44.2123,311.995,1.39578
206.1000,-40.9017,313.318,1.40931
206.0000,-48.532,313.904,1.41528
205.9000,-41.6007,314.692,1.4233
205.8000,-45.1028,314.973,1.42616
205.7000,-40.3835,316.139,1.43798
205.6000,-45.7972,316.978,1.44646
205.5000,-35.0242,318.131,1.4581
205.4000,-40.9489,318.857,1.46539
205.3000,-37.909,319.31,1.46995
205.2000,-33.8888,320.98,1.48668
205.1000,-32.2934,321.972,1.49659
205.0000,-38.5418,322.269,1.49955
204.9000,-42.6059,324.105,1.5178
204.8000,-37.3424,324.614,1.52284
204.7000,-41.1531,326.284,1.53935
204.6000,-28.722,326.915,1.54557
204.5000,-26.8241,326.2,1.53852
204.4000,-21.8046,327.647,1.55277
204.3000,-33.0991,329.36,1.56957
204.2000,-31.958,330.789,1.58352
204.1000,-20.7272,331.636,1.59178
204.0000,-25.7164,332.376,1.59897
203.9000,-22.3995,334.409,1.61866
203.8000,-16.8212,334.901,1.6234
203.7000,-25.6827,336.43,1.63814
203.6000,-23.3997,337.294,1.64643
203.5000,-17.1456,338.4,1.65702
203.4000,-12.5081,339.184,1.66451
203.3000,-20.0617,340.636,1.67836
203.2000,-16.2392,341.391,1.68553
203.1000,-20.559,342.186,1.69307
203.0000,-14.9193,344.239,1.71248
202.9000,-17.1397,344.613,1.71601
202.8000,-10.1612,346.576,1.73445
202.7000,-18.9169,346.732,1.73592
202.6000,-16.1412,348.945,1.75661
202.5000,-10.0969,349.926,1.76574
202.4000,-10.3274,350.832,1.77415
202.3000,-11.1081,352.406,1.78873
202.2000,-5.73012,353.417,1.79808
202.1000,-4.52144,353.745,1.8011
202.0000,-4.28763,356.34,1.82494
201.9000,-1.79398,358.257,1.84246
201.8000,-4.04805,361.503,1.87196
201.7000,2.80764,359.864,1.8571
201.6000,6.58248,361.628,1.87309
201.5000,3.2681,362.38,1.87989
201.4000,2.55556,364.073,1.89515
201.3000,4.47575,365.773,1.91042
201.2000,-7.67733,367.637,1.92709
201.1000,-0.594945,370.127,1.94924
201.0000,8.54765,371.01,1.95708
200.9000,8.32128,372.644,1.97152
200.8000,15.146,373.082,1.97538
200.7000,6.79183,374.874,1.99115
200.6000,16.4798,376.545,2.00579
200.5000,10.0417,378.701,2.0246
200.4000,17.5947,380.162,2.0373
200.3000,20.423,380.826,2.04306
200.2000,19.4163,383.49,2.06607
200.1000,26.4621,385.544,2.08372
200.0000,12.8277,387.289,2.09866
199.9000,15.8678,388.308,2.10735
199.8000,23.5291,390.64,2.12718
199.7000,31.9277,391.644,2.13568
199.6000,20.3065,393.246,2.14922
199.5000,21.2204,395.11,2.1649
199.4000,16.4118,396.09,2.17313
199.3000,23.3247,398.485,2.19316
199.2000,28.9524,399.228,2.19935
199.1000,30.0432,401.287,2.21646
199.0000,30.362,402.765,2.22869
198.9000,32.0963,404.405,2.24223
198.8000,26.3756,407.522,2.26782
198.7000,27.7187,407.812,2.2702
198.6000,41.4462,410.089,2.28877
198.5000,28.5312,412.037,2.3046
198.4000,38.1706,414.174,2.32189
198.3000,34.5604,416.057,2.33706
198.2000,29.8456,417.817,2.3512
198.1000,30.7225,419.328,2.36329
198.0000,31.9278,420.908,2.3759
197.9000,42.0554,422.812,2.39103
197.8000,27.7895,424.663,2.40569
197.7000,46.8609,426.705,2.4218
197.6000,47.8019,428.297,2.43432
197.5000,33.6635,429.445,2.44331
197.4000,28.1521,431.666,2.46067
197.3000,36.4591,434.023,2.479
197.2000,38.4395,434.749,2.48464
197.1000,39.6345,437.934,2.50925
197.0000,40.6421,440.043,2.52546
196.9000,48.5651,440.824,2.53145
196.8000,31.5483,443.381,2.55098
196.7000,37.2605,445.77,2.56916
196.6000,36.3715,447.338,2.58104
196.5000,44.7233,449.27,2.59563
196.4000,33.9569,451.457,2.61208
196.3000,47.302,453.106,2.62444
196.2000,30.7032,455.435,2.64184
196.1000,42.5302,457.07,2.65401
196.0000,44.5141,458.958,2.66801
195.9000,40.6798,460.345,2.67826
195.8000,34.9024,463.766,2.70345
195.7000,49.9576,465.537,2.71643
195.6000,40.996,467.326,2.72949
195.5000,36.4396,468.851,2.7406
195.4000,46.4482,470.607,2.75335
195.3000,35.4711,472.866,2.7697
195.2000,38.1795,474.546,2.7818
195.1000,37.1936,475.726,2.79029
195.0000,44.5614,478.83,2.81252
194.9000,40.5844,479.513,2.8174
194.8000,41.9494,479.135,2.8147
194.7000,45.6416,481.809,2.83375
194.6000,49.4372,483.248,2.84396
194.5000,38.2647,484.866,2.85541
194.4000,36.2029,488.214,2.87901
194.3000,45.8523,488.814,2.88323
194.2000,36.2186,490.426,2.89452
194.1000,28.1093,493.578,2.91653
194.0000,32.3145,494.577,2.92348
193.9000,32.3507,496.715,2.93832
193.8000,41.4422,499.198,2.95547
193.7000,42.7066,502.723,2.97971
193.6000,45.6921,503.232,2.9832
193.5000,39.9199,504.452,2.99155
193.4000,43.6855,506.309,3.00422
193.3000,41.5001,506.103,3.00282
193.2000,46.2494,508.641,3.02008
193.1000,42.9706,510.667,3.03381
193.0000,38.2955,511.365,3.03853
192.9000,27.4165,513.759,3.05467
192.8000,44.5022,514.646,3.06064
192.7000,40.8961,517.703,3.08114
192.6000,33.8015,520.315,3.09856
192.5000,31.6601,522.539,3.11335
192.4000,33.8669,522.746,3.11472
192.3000,24.5791,525.376,3.13213
192.2000,30.6074,528.186,3.15064
192.1000,36.8739,527.409,3.14553
192.0000,37.9142,530.836,3.16803
191.9000,28.8038,534.806,3.19393
191.8000,30.006,534.278,3.1905
191.7000,26.2088,535.701,3.19975
191.6000,40.4875,538.357,3.21697
191.5000,25.9614,539.293,3.22302
191.4000,33.5294,541.761,3.23893
191.3000,20.5125,543.673,3.25122
191.2000,29.6382,545.485,3.26282
191.1000,28.1322,547.741,3.27723
191.0000,21.6819,551.449,3.3008
190.9000,24.3754,554.7,3.32136
190.8000,30.4489,556.262,3.3312
190.7000,27.9775,560.558,3.35814
190.6000,25.8749,560.508,3.35782
190.5000,30.8259,563.973,3.37943
190.4000,35.0125,565.848,3.39107
190.3000,20.3849,569.915,3.41621
190.2000,20.2119,570.816,3.42176
190.1000,26.6338,573.29,3.43697
190.0000,21.629,575.199,3.44866

##### Extended Information
[Comments]
Sample name,KMGM_BUFFER&PROTEIN_928
Comment,BUFFER  AND PROTEIN
User,KYLE MURPHY
Division
Company,Saint Mary's College

[Detailed Information]
Creation date,9/28/2022 3:18 PM

Data array type,Linear data array * 3
Horizontal axis,Wavelength [nm]
Vertical axis(1),CD [mdeg]
Vertical axis(2),HT [V]
Vertical axis(3),Abs
Start,320 nm
End,190 nm
Data interval,0.1 nm
Data points,1301    

[Measurement Information]
Instrument name,J-1500
Model name,J-1500
Serial No.,B051061638

Detector,PM-539
Detector S/N,B051061638
  Lock-in amp.,X mode
  HT volt,Auto

Accessory,PTC-517
Accessory S/N,B026561646
  Temperature,27.94 C
  Control sensor,Holder
  Monitor sensor,Holder

Measurement date,9/28/2022 3:18 PM

CD Overload detect,1021
Photometric mode,CD, HT, Abs
Measure range,320 - 190 nm
Data pitch,0.1 nm
CD scale,20 mdeg/0.05 dOD
FL scale,20 mdeg/0.05 dOD
D.I.T.,8 msec
Bandwidth,2.00 nm
Start mode,Immediately
Scanning mode,Continuous
Scanning speed,200 nm/min
Baseline correction,None
Shutter control,Auto
No. of cycle,1/1
N2 Flowmeter,Manual

Solvent,NaPO4 buffer

