TITLE,KMGM_BUFFER_928
DATA TYPE,
ORIGIN,JASCO
OWNER,
DATE,22/09/28
TIME,15:03:11
SPECTROMETER/DATA SYSTEM,
LOCALE,1033
RESOLUTION,
DELTAX,-0.1
XUNITS,NANOMETERS
YUNITS,CD [mdeg]
Y2UNITS,HT [V]
Y3UNITS,ABSORBANCE
FIRSTX,  320.0000
LASTX,  190.0000
NPOINTS,    1301
FIRSTY,     2.28174
MAXY,     9.16644
MINY,   -10.88917
XYDATA
320.0000,2.28174,208.568,0.152337
319.9000,1.71702,209.161,0.160797
319.8000,1.63429,209.292,0.162671
319.7000,2.38525,208.583,0.152548
319.6000,0.497792,207.96,0.14363
319.5000,2.64979,209.002,0.158535
319.4000,1.11814,206.393,0.121108
319.3000,3.2418,208.12,0.145918
319.2000,1.67724,208.768,0.155187
319.1000,1.62621,207.996,0.14415
319.0000,1.94477,209.234,0.161848
318.9000,2.71683,208.092,0.145529
318.8000,0.687679,209.284,0.162558
318.7000,0.805625,208.442,0.150539
318.6000,2.77274,207.75,0.140625
318.5000,0.00216564,206.779,0.126674
318.4000,1.65641,209.071,0.159521
318.3000,0.757634,208.19,0.146924
318.2000,-0.730817,208.396,0.149875
318.1000,1.32202,208.236,0.147589
318.0000,1.32365,207.546,0.1377
317.9000,0.84973,208.695,0.154151
317.8000,1.44261,207.354,0.134934
317.7000,2.02293,208.026,0.144571
317.6000,1.07491,207.869,0.142331
317.5000,3.50936,208.404,0.149988
317.4000,0.10961,207.978,0.14389
317.3000,-1.30311,208.266,0.14801
317.2000,2.18961,208.206,0.147151
317.1000,-0.0560213,207.793,0.141243
317.0000,0.418376,207.169,0.132281
316.9000,1.31819,207.672,0.139504
316.8000,1.09879,208.177,0.146746
316.7000,0.931348,207.658,0.139309
316.6000,0.37017,207.695,0.139829
316.5000,2.30823,207.938,0.143322
316.4000,1.3108,207.627,0.138854
316.3000,-0.304975,208.338,0.149048
316.2000,0.91071,207.664,0.13939
316.1000,1.1704,208.022,0.144523
316.0000,0.576876,208.328,0.148902
315.9000,1.56868,207.964,0.143695
315.8000,0.423315,207.322,0.134479
315.7000,-0.797094,208.42,0.150215
315.6000,0.692194,207.59,0.138334
315.5000,1.51297,207.956,0.143581
315.4000,2.72879,208.083,0.145399
315.3000,0.774485,208.864,0.156562
315.2000,0.239218,207.994,0.144117
315.1000,0.610046,207.962,0.143663
315.0000,0.582464,208.177,0.146746
314.9000,2.53124,207.905,0.142851
314.8000,0.474515,208.201,0.147086
314.7000,0.885844,208.781,0.155381
314.6000,-0.862267,207.389,0.135439
314.5000,1.11786,207.711,0.140057
314.4000,1.00626,208.371,0.149518
314.3000,2.31983,207.662,0.139358
314.2000,1.41077,207.704,0.139959
314.1000,0.89073,207.705,0.139975
314.0000,1.10432,207.831,0.141779
313.9000,-0.362825,207.593,0.138366
313.8000,2.85255,207.944,0.143403
313.7000,0.627183,208.211,0.147232
313.6000,1.43931,207.521,0.137342
313.5000,0.509798,207.576,0.138123
313.4000,1.58307,208.904,0.157128
313.3000,1.83083,207.827,0.14173
313.2000,2.57989,207.246,0.133388
313.1000,0.642334,207.482,0.136773
313.0000,0.82023,206.671,0.125124
312.9000,2.21817,207.071,0.13088
312.8000,2.03931,208.124,0.145983
312.7000,1.80158,207.007,0.129951
312.6000,3.58626,207.077,0.130962
312.5000,1.96296,207.615,0.138692
312.4000,1.38284,207.995,0.144133
312.3000,1.43178,208.754,0.154993
312.2000,0.319842,207.92,0.143062
312.1000,2.15871,207.362,0.135048
312.0000,2.67656,207.547,0.137716
311.9000,2.33076,208.682,0.153957
311.8000,0.656392,207.193,0.132623
311.7000,2.08473,207.867,0.142299
311.6000,2.02067,207.347,0.134837
311.5000,1.35674,208.831,0.156093
311.4000,0.894858,207.662,0.139358
311.3000,0.50731,208.186,0.146875
311.2000,1.34245,207.573,0.13809
311.1000,1.71162,207.897,0.142737
311.0000,1.09717,208.137,0.146162
310.9000,1.42633,207.989,0.144052
310.8000,0.345614,207.321,0.134462
310.7000,0.716429,207.854,0.14212
310.6000,2.77997,208.469,0.150912
310.5000,1.86036,208.665,0.153714
310.4000,1.80551,207.894,0.142688
310.3000,-0.589857,207.802,0.141373
310.2000,0.860391,208.182,0.146811
310.1000,0.918606,208.035,0.144701
310.0000,0.526707,208.831,0.156093
309.9000,0.16559,208.246,0.147735
309.8000,-0.0603148,207.754,0.140674
309.7000,0.228767,208.231,0.147508
309.6000,2.26814,208.061,0.145075
309.5000,1.98932,207.621,0.138773
309.4000,1.2478,208.038,0.14475
309.3000,1.87705,207.176,0.132378
309.2000,3.53585,207.424,0.135943
309.1000,0.126384,207.943,0.143386
309.0000,0.262512,207.201,0.132737
308.9000,0.119782,206.486,0.122447
308.8000,1.45884,207.79,0.141194
308.7000,2.17812,207.454,0.136382
308.6000,1.39911,207.845,0.14199
308.5000,-0.0356736,208.248,0.147751
308.4000,0.44403,206.997,0.129804
308.3000,0.926375,207.198,0.132704
308.2000,1.48042,207.789,0.141178
308.1000,1.26299,206.844,0.127604
308.0000,0.76831,208.132,0.146097
307.9000,1.90549,207.349,0.134869
307.8000,1.52959,207.687,0.139715
307.7000,2.31372,207.762,0.140788
307.6000,0.963864,207.22,0.133014
307.5000,0.303098,207.559,0.137879
307.4000,2.54059,208.055,0.144993
307.3000,1.93851,206.634,0.124586
307.2000,1.64206,207.636,0.138984
307.1000,1.54482,207.326,0.134544
307.0000,2.06335,206.65,0.124814
306.9000,0.778124,206.682,0.125271
306.8000,-0.426645,207.411,0.135764
306.7000,1.65859,209.024,0.158842
306.6000,0.174867,207.532,0.137488
306.5000,0.785715,207.408,0.135715
306.4000,1.03619,207.989,0.144052
306.3000,0.602867,207.24,0.133306
306.2000,2.19834,207.017,0.130098
306.1000,2.44489,207.439,0.136154
306.0000,1.03954,207.38,0.135309
305.9000,0.649576,207.908,0.142883
305.8000,0.963336,207.749,0.140609
305.7000,-0.374346,207.551,0.137765
305.6000,1.55541,208.208,0.147183
305.5000,1.8195,206.836,0.12749
305.4000,-0.352549,207.457,0.136415
305.3000,1.41058,206.838,0.127522
305.2000,1.36226,208.198,0.147037
305.1000,0.805856,207.522,0.137358
305.0000,2.79251,207.575,0.138106
304.9000,1.20871,207.527,0.137423
304.8000,2.17704,208.022,0.144523
304.7000,0.625723,207.723,0.140236
304.6000,2.27424,207.503,0.137082
304.5000,0.646722,207.016,0.130082
304.4000,1.08938,206.764,0.126462
304.3000,0.845951,208.276,0.148156
304.2000,0.7101,206.64,0.124667
304.1000,1.83992,208.07,0.145204
304.0000,1.48392,207.981,0.143938
303.9000,1.68295,207.828,0.141746
303.8000,2.13892,207.563,0.137943
303.7000,2.26625,206.47,0.122219
303.6000,0.324098,206.964,0.129332
303.5000,2.94517,207.017,0.130098
303.4000,0.612987,206.623,0.124423
303.3000,0.990069,207.495,0.136968
303.2000,2.70649,206.937,0.128941
303.1000,0.758567,207.798,0.141308
303.0000,1.47066,206.592,0.123982
302.9000,2.12928,206.835,0.127473
302.8000,-0.41095,207.299,0.134153
302.7000,1.76496,207.939,0.143338
302.6000,1.94748,207.042,0.130456
302.5000,2.23742,207.003,0.129902
302.4000,-0.269158,207.474,0.136659
302.3000,-1.83086,207.44,0.136171
302.2000,1.11769,207.817,0.141584
302.1000,1.84844,207.009,0.129984
302.0000,1.32181,206.889,0.128256
301.9000,1.29479,207.235,0.133225
301.8000,-0.0534921,207.511,0.137195
301.7000,0.971195,206.585,0.123884
301.6000,0.683009,207.031,0.130293
301.5000,1.66972,207.036,0.130375
301.4000,2.03707,206.596,0.124031
301.3000,3.53568,207.452,0.13635
301.2000,1.93154,206.856,0.127783
301.1000,0.730031,207.243,0.133339
301.0000,2.40555,207.203,0.132769
300.9000,-0.552778,206.703,0.125581
300.8000,0.690566,207.392,0.135487
300.7000,1.34627,206.976,0.129511
300.6000,3.05492,207.745,0.140544
300.5000,1.18781,207.21,0.132867
300.4000,1.04287,206.633,0.12457
300.3000,0.855875,206.495,0.122578
300.2000,0.68493,207.236,0.133242
300.1000,0.707593,208.048,0.144896
300.0000,-0.970683,207.505,0.137114
299.9000,2.79217,206.795,0.126903
299.8000,1.70964,206.638,0.124635
299.7000,-0.211645,207.091,0.131157
299.6000,1.14187,206.79,0.126837
299.5000,0.759614,206.911,0.128566
299.4000,0.34208,207.163,0.132199
299.3000,1.52897,206.913,0.128599
299.2000,1.00115,207.474,0.136659
299.1000,1.50923,208.087,0.145448
299.0000,2.06238,206.177,0.118003
298.9000,1.34178,206.35,0.120487
298.8000,0.450905,207.414,0.135797
298.7000,2.39515,207.209,0.132851
298.6000,1.82064,207.026,0.130228
298.5000,1.93254,207.32,0.134446
298.4000,2.06077,208.25,0.147784
298.3000,2.1169,205.995,0.11537
298.2000,0.985479,206.407,0.12132
298.1000,0.989397,206.03,0.115877
298.0000,0.967466,207.06,0.130717
297.9000,0.122543,206.225,0.11869
297.8000,-0.0396804,206.936,0.128925
297.7000,2.08503,206.827,0.127359
297.6000,0.255221,206.983,0.129609
297.5000,1.94964,207.06,0.130717
297.4000,1.14706,207.61,0.13861
297.3000,1.13006,206.587,0.1239
297.2000,-0.479576,207.122,0.131613
297.1000,2.36275,206.919,0.12868
297.0000,1.71573,206.081,0.116613
296.9000,1.47301,206.359,0.120618
296.8000,0.830064,205.971,0.115026
296.7000,1.64047,206.701,0.125549
296.6000,1.95768,206.52,0.122937
296.5000,0.637706,207.971,0.143792
296.4000,1.74875,206.539,0.123215
296.3000,0.981259,206.743,0.126152
296.2000,1.92581,207.05,0.13057
296.1000,0.965885,206.769,0.126527
296.0000,0.152951,206.136,0.117398
295.9000,2.05909,206.341,0.120357
295.8000,1.17372,206.915,0.128631
295.7000,0.116615,206.781,0.126707
295.6000,1.11357,206.437,0.121745
295.5000,-0.214431,207.945,0.143419
295.4000,1.9592,206.324,0.120112
295.3000,0.121025,207.088,0.131124
295.2000,-0.366754,206.657,0.124912
295.1000,-0.0826147,207.381,0.135325
295.0000,-0.000549784,206.461,0.122088
294.9000,1.639,206.726,0.125908
294.8000,1.22844,206.888,0.12824
294.7000,1.48187,207.359,0.135015
294.6000,-0.154428,207.67,0.139472
294.5000,0.0801538,206.899,0.128403
294.4000,1.63487,206.874,0.128044
294.3000,1.54132,207.418,0.135862
294.2000,2.67507,207.01,0.13
294.1000,1.01299,206.605,0.124162
294.0000,0.477809,205.83,0.11298
293.9000,0.421201,206.231,0.118771
293.8000,1.11292,206.75,0.12625
293.7000,1.50457,207.128,0.131695
293.6000,2.27515,206.702,0.125565
293.5000,0.422836,206.444,0.121843
293.4000,1.6309,206.703,0.125581
293.3000,1.97306,206.028,0.115844
293.2000,0.814091,207.142,0.13189
293.1000,0.075915,206.505,0.122725
293.0000,1.27258,207.222,0.133046
292.9000,3.75297,206.511,0.122807
292.8000,2.21817,206.993,0.129756
292.7000,-0.0780157,206.315,0.119981
292.6000,2.00513,205.656,0.110474
292.5000,2.59844,206.418,0.121467
292.4000,2.21699,205.918,0.114257
292.3000,0.181852,206.235,0.118837
292.2000,2.87319,205.912,0.114175
292.1000,1.86027,205.808,0.112669
292.0000,-1.8446,206.096,0.116826
291.9000,0.781992,205.918,0.114257
291.8000,1.53062,205.992,0.115321
291.7000,0.804448,206.531,0.1231
291.6000,2.69392,206.311,0.119932
291.5000,2.94177,206.536,0.123166
291.4000,1.13212,205.946,0.114666
291.3000,2.5186,206.345,0.120422
291.2000,2.42408,205.653,0.110425
291.1000,0.613459,205.915,0.114208
291.0000,2.16256,206.539,0.123215
290.9000,3.05886,205.202,0.103899
290.8000,0.279266,205.732,0.111572
290.7000,1.526,205.97,0.11501
290.6000,0.00708613,205.97,0.11501
290.5000,0.861095,205.719,0.111375
290.4000,-0.211999,206.419,0.121484
290.3000,0.181189,206.718,0.125793
290.2000,3.01047,205.838,0.113095
290.1000,0.42156,205.677,0.110769
290.0000,1.47793,206.446,0.121876
289.9000,3.02237,206.132,0.117349
289.8000,0.686523,206.181,0.118052
289.7000,1.11382,205.473,0.107819
289.6000,1.76554,206.183,0.118085
289.5000,0.810765,206.34,0.12034
289.4000,0.0391264,206.432,0.12168
289.3000,1.97909,206.597,0.124047
289.2000,1.26247,206.259,0.11918
289.1000,1.79595,206.73,0.125973
289.0000,3.65133,206.146,0.117545
288.9000,0.740118,206.128,0.117284
288.8000,0.352527,206.16,0.117758
288.7000,1.87731,205.78,0.11226
288.6000,1.80793,206.03,0.115877
288.5000,1.58549,206.398,0.12119
288.4000,1.51392,206.549,0.123362
288.3000,1.91735,206.837,0.127506
288.2000,2.60954,206.675,0.125174
288.1000,-0.215248,205.64,0.110245
288.0000,1.94594,206.513,0.122839
287.9000,0.172695,206.157,0.117709
287.8000,0.452404,206.942,0.129022
287.7000,2.225,205.742,0.111719
287.6000,0.837803,205.294,0.105228
287.5000,1.17356,205.797,0.112506
287.4000,1.24986,206.516,0.122888
287.3000,0.274117,205.514,0.10841
287.2000,1.61884,205.584,0.109426
287.1000,1.18237,206.942,0.129022
287.0000,0.830821,207.176,0.132378
286.9000,0.209693,206.683,0.125288
286.8000,0.188968,205.631,0.110114
286.7000,1.48193,207.009,0.129984
286.6000,1.56983,206.925,0.128778
286.5000,2.18247,206.829,0.127392
286.4000,0.245976,206.437,0.121745
286.3000,2.22922,206.115,0.117104
286.2000,0.936171,206.345,0.120422
286.1000,0.481158,206.264,0.119245
286.0000,1.05037,206.496,0.122594
285.9000,2.29594,206.671,0.125124
285.8000,0.909806,206.963,0.129315
285.7000,2.09604,206.8,0.126968
285.6000,2.61979,206.551,0.123394
285.5000,1.10808,206.281,0.119491
285.4000,1.35964,206.56,0.123525
285.3000,0.89773,206.174,0.117954
285.2000,0.415724,206.455,0.122007
285.1000,1.64523,206.215,0.118542
285.0000,1.51744,206.367,0.120732
284.9000,-0.0978724,206.77,0.126544
284.8000,0.395256,206.074,0.116515
284.7000,-1.07494,205.847,0.113226
284.6000,-0.182656,205.564,0.109147
284.5000,1.10121,206.004,0.115501
284.4000,0.51767,206.445,0.121859
284.3000,2.44809,205.923,0.114323
284.2000,0.460889,205.904,0.114061
284.1000,1.46587,206.171,0.117905
284.0000,2.14069,206.247,0.119
283.9000,0.822335,206.941,0.129006
283.8000,-0.0964571,205.738,0.111654
283.7000,1.01277,206.291,0.119638
283.6000,0.951389,206.316,0.119997
283.5000,1.8863,205.817,0.1128
283.4000,0.371054,205.987,0.115255
283.3000,1.77895,206.762,0.12643
283.2000,1.19239,205.546,0.108885
283.1000,0.375574,206.821,0.127278
283.0000,0.821194,206.775,0.126609
282.9000,2.13063,205.904,0.114061
282.8000,0.782086,206.166,0.11784
282.7000,1.74205,206.255,0.119115
282.6000,1.19545,206.443,0.121827
282.5000,0.935034,206.393,0.121108
282.4000,1.58141,206.386,0.12101
282.3000,1.58579,206.524,0.123003
282.2000,0.535172,205.745,0.111752
282.1000,1.0723,206.439,0.121778
282.0000,1.71016,206.89,0.128272
281.9000,0.741932,206.406,0.121304
281.8000,1.0809,206.39,0.121075
281.7000,0.31368,206.817,0.127213
281.6000,-0.198834,205.873,0.113602
281.5000,-0.0503205,206.119,0.117153
281.4000,0.985722,207.17,0.132297
281.3000,0.770559,206.662,0.124994
281.2000,3.08231,206.363,0.120684
281.1000,0.0105393,206.257,0.119147
281.0000,1.96815,206.351,0.120504
280.9000,-0.163925,206.677,0.125206
280.8000,1.46607,206.631,0.124537
280.7000,1.37816,207.672,0.139504
280.6000,-1.33387,206.422,0.121533
280.5000,1.61036,205.666,0.110622
280.4000,0.880204,207.526,0.137407
280.3000,1.73096,206.432,0.12168
280.2000,1.46442,206.919,0.12868
280.1000,-0.889245,206.29,0.119621
280.0000,-0.256598,207.234,0.133209
279.9000,0.786069,207.454,0.136382
279.8000,1.02059,207.074,0.130913
279.7000,1.40228,207.207,0.132835
279.6000,1.45693,206.441,0.12181
279.5000,-0.0153572,206.001,0.115452
279.4000,0.593302,206.448,0.121909
279.3000,1.75208,206.182,0.118069
279.2000,1.40857,205.509,0.108344
279.1000,0.921376,206.554,0.123427
279.0000,1.2158,207.577,0.138139
278.9000,0.349338,207.119,0.131564
278.8000,1.64897,207.793,0.141243
278.7000,0.859178,205.731,0.111556
278.6000,2.17507,206.577,0.12377
278.5000,1.64348,206.65,0.124814
278.4000,1.4063,205.536,0.108737
278.3000,-0.166733,207.87,0.142347
278.2000,2.65504,208.082,0.145383
278.1000,-1.45633,206.451,0.121941
278.0000,-0.817975,206.677,0.125206
277.9000,1.24461,205.945,0.11465
277.8000,0.619278,205.711,0.111261
277.7000,2.54962,206.149,0.117594
277.6000,1.36346,205.774,0.112178
277.5000,-0.667304,207.495,0.136968
277.4000,-0.0865009,204.877,0.0991848
277.3000,0.295084,205.848,0.113242
277.2000,1.57506,205.72,0.111392
277.1000,-0.486705,206.537,0.123182
277.0000,0.528446,207.718,0.140171
276.9000,0.280737,206.083,0.116646
276.8000,1.69513,205.157,0.103242
276.7000,-0.0533579,205.882,0.113733
276.6000,1.47066,206.15,0.117611
276.5000,-0.9802,206.155,0.117676
276.4000,1.32135,206.862,0.127865
276.3000,0.247567,206.143,0.117513
276.2000,0.45144,206.261,0.119213
276.1000,-0.775425,206.177,0.118003
276.0000,0.0646253,207.212,0.132899
275.9000,1.95187,207.602,0.138496
275.8000,1.73587,206.281,0.119491
275.7000,-0.328385,205.691,0.110982
275.6000,1.37635,205.583,0.109409
275.5000,0.55526,206.883,0.128174
275.4000,-0.00228802,205.926,0.114371
275.3000,-0.724319,205.694,0.111015
275.2000,-0.751712,206.142,0.117496
275.1000,0.447465,207.565,0.137976
275.0000,1.82353,205.951,0.114732
274.9000,0.203632,205.31,0.105458
274.8000,0.819208,207.663,0.139374
274.7000,1.14309,205.2,0.103866
274.6000,2.45963,207.067,0.130815
274.5000,1.35407,206.679,0.125239
274.4000,-0.461272,206.521,0.122953
274.3000,1.25638,206.866,0.12793
274.2000,0.695785,207.507,0.13713
274.1000,-0.179754,206.32,0.120063
274.0000,-0.165637,206.503,0.122692
273.9000,0.910987,207.107,0.131385
273.8000,0.849446,206.573,0.123705
273.7000,0.319491,206.737,0.126071
273.6000,0.414055,207.068,0.130831
273.5000,-0.893629,205.655,0.110458
273.4000,1.28522,206.584,0.123868
273.3000,0.465012,206.929,0.128826
273.2000,1.59692,206.289,0.119605
273.1000,1.7379,206.685,0.12532
273.0000,0.546509,207.232,0.133193
272.9000,2.39971,207.584,0.138236
272.8000,1.43423,206.911,0.128566
272.7000,-0.495396,206.528,0.123052
272.6000,2.35108,206.962,0.129299
272.5000,0.832454,205.71,0.111244
272.4000,0.595775,207.205,0.132802
272.3000,1.96513,206.24,0.118902
272.2000,0.529998,207.139,0.131857
272.1000,-0.792452,205.732,0.111572
272.0000,1.38301,207.125,0.131646
271.9000,0.941523,207.042,0.130456
271.8000,-0.099116,206.829,0.127392
271.7000,1.78059,206.298,0.119736
271.6000,0.822063,206.623,0.124423
271.5000,0.642854,207.649,0.139179
271.4000,0.206997,206.32,0.120063
271.3000,-0.709804,207.145,0.131939
271.2000,0.60227,206.619,0.124374
271.1000,-0.797993,206.718,0.125793
271.0000,1.38106,206.979,0.129544
270.9000,2.89292,207.495,0.136968
270.8000,1.8374,206.102,0.116907
270.7000,0.856957,207.159,0.132134
270.6000,2.5846,207.462,0.136496
270.5000,1.33894,207.704,0.139959
270.4000,0.208874,206.719,0.12581
270.3000,1.69413,205.974,0.115059
270.2000,2.28358,206.366,0.120716
270.1000,-0.069117,206.665,0.125027
270.0000,1.44044,206.887,0.128223
269.9000,-0.523831,205.988,0.115272
269.8000,0.0811917,206.485,0.122431
269.7000,0.181245,205.74,0.111687
269.6000,1.40547,206.498,0.122627
269.5000,0.522819,207.16,0.13215
269.4000,1.25944,207.16,0.13215
269.3000,-0.0573517,207.679,0.139602
269.2000,-0.322128,206.458,0.122055
269.1000,-0.0773012,206.779,0.126674
269.0000,0.893589,207.491,0.136903
268.9000,1.61037,205.746,0.111769
268.8000,3.1834,207.828,0.141746
268.7000,0.779139,206.307,0.119867
268.6000,-0.533585,207.34,0.134739
268.5000,0.757918,206.93,0.128843
268.4000,-0.339008,207.29,0.134023
268.3000,1.23466,208.02,0.14449
268.2000,-0.475837,206.734,0.126022
268.1000,1.20585,207.487,0.136854
268.0000,0.868284,207.775,0.140983
267.9000,0.0490492,207.925,0.143127
267.8000,0.132597,207.369,0.135162
267.7000,0.980301,207.261,0.1336
267.6000,0.379337,208.273,0.148108
267.5000,1.34994,206.352,0.12052
267.4000,0.624125,207.235,0.133225
267.3000,0.935973,208.54,0.151932
267.2000,-0.300985,208.138,0.146178
267.1000,1.04336,208.535,0.151868
267.0000,0.355766,207.897,0.142737
266.9000,-0.321192,207.87,0.142347
266.8000,0.500225,207.461,0.13648
266.7000,1.07502,207.871,0.142364
266.6000,1.66162,207.425,0.135959
266.5000,-0.287222,207.674,0.139537
266.4000,0.835209,208.142,0.146243
266.3000,0.461131,207.988,0.144036
266.2000,0.889501,207.758,0.140739
266.1000,-1.52223,208.735,0.154717
266.0000,2.05035,208.45,0.150653
265.9000,0.214554,207.934,0.143257
265.8000,-0.0636654,208.537,0.151884
265.7000,0.165185,208.584,0.152564
265.6000,1.07523,207.715,0.140122
265.5000,1.66659,208.094,0.145545
265.4000,0.743628,208.273,0.148108
265.3000,2.82763,208.486,0.151155
265.2000,-0.0705247,208.294,0.148416
265.1000,0.0731318,208.139,0.146194
265.0000,-0.0497175,207.945,0.143419
264.9000,0.205175,208.854,0.156416
264.8000,1.64347,207.904,0.142835
264.7000,2.16372,208.955,0.157856
264.6000,-0.720134,208.499,0.151349
264.5000,0.127042,208.173,0.146681
264.4000,1.76432,207.943,0.143386
264.3000,-0.882088,208.424,0.15028
264.2000,-0.158963,208.363,0.149405
264.1000,0.387441,208.779,0.155348
264.0000,0.826757,207.963,0.143679
263.9000,0.237739,208.472,0.150961
263.8000,0.761253,208.353,0.149259
263.7000,1.30382,208.537,0.151884
263.6000,2.31098,208.348,0.149194
263.5000,0.0438814,208.839,0.156206
263.4000,0.0874955,208.37,0.149502
263.3000,1.07453,208.83,0.156077
263.2000,-0.57593,208.55,0.152078
263.1000,0.621031,209.289,0.162623
263.0000,1.37926,209.114,0.160135
262.9000,-0.431161,208.713,0.15441
262.8000,1.66908,208.583,0.152548
262.7000,0.314821,209.072,0.159537
262.6000,1.65829,208.901,0.157096
262.5000,0.635807,209.446,0.164867
262.4000,1.24114,208.923,0.157403
262.3000,-0.0616233,208.903,0.157112
262.2000,1.30363,209.381,0.163931
262.1000,1.97038,208.548,0.152046
262.0000,0.705781,208.629,0.153212
261.9000,-0.327706,209.106,0.160022
261.8000,2.60018,208.53,0.151787
261.7000,0.784125,209.225,0.161719
261.6000,1.10152,208.879,0.156772
261.5000,-1.16635,208.81,0.155785
261.4000,-1.42152,208.961,0.157953
261.3000,0.881375,208.866,0.156594
261.2000,0.0686999,208.807,0.155753
261.1000,-0.197138,209.008,0.158616
261.0000,0.520648,208.382,0.14968
260.9000,0.00239112,209.831,0.170334
260.8000,0.102633,209.322,0.163091
260.7000,0.450078,209.079,0.159634
260.6000,0.69022,209.615,0.167271
260.5000,-0.25559,208.593,0.152694
260.4000,1.27653,209.776,0.169561
260.3000,-0.994712,208.769,0.155203
260.2000,0.671477,209.093,0.159828
260.1000,0.454196,209.598,0.167029
260.0000,-0.622972,209.623,0.167384
259.9000,-0.125067,209.529,0.166045
259.8000,1.01297,209.927,0.171704
259.7000,0.795351,210.064,0.173652
259.6000,0.547909,209.587,0.166868
259.5000,1.8494,209.706,0.168561
259.4000,1.25035,209.944,0.171945
259.3000,-1.58832,209.987,0.172557
259.2000,2.42573,209.944,0.171945
259.1000,0.277526,209.911,0.171478
259.0000,1.96972,209.493,0.165529
258.9000,0.40151,209.079,0.159634
258.8000,1.00063,209.818,0.170157
258.7000,2.28543,209.986,0.172541
258.6000,2.44277,210.031,0.173185
258.5000,-0.244332,209.776,0.169561
258.4000,0.764166,210.246,0.176244
258.3000,-0.453335,210.625,0.181613
258.2000,0.555915,211.064,0.187841
258.1000,1.09963,209.758,0.169303
258.0000,-0.642706,210.542,0.18044
257.9000,-0.574608,209.679,0.168174
257.8000,2.15499,210.238,0.176131
257.7000,0.632349,209.966,0.172268
257.6000,-1.4,210.317,0.177241
257.5000,2.18019,210.646,0.181919
257.4000,-0.718903,210.681,0.182416
257.3000,2.19654,210.438,0.178962
257.2000,0.21089,210.153,0.174924
257.1000,0.572313,210.61,0.181404
257.0000,0.629351,209.951,0.172042
256.9000,1.70783,210.567,0.180794
256.8000,1.05062,210.82,0.184375
256.7000,-0.408291,209.861,0.170769
256.6000,0.829587,210.184,0.175359
256.5000,0.649187,210.335,0.177498
256.4000,0.158105,210.787,0.18391
256.3000,-0.339955,211.066,0.187857
256.2000,1.33084,210.603,0.181308
256.1000,1.10227,211.233,0.19023
256.0000,0.698243,210.934,0.185996
255.9000,-0.771431,210.183,0.175343
255.8000,1.08749,210.854,0.184857
255.7000,0.288246,210.927,0.1859
255.6000,2.50866,210.084,0.173942
255.5000,0.950959,210.883,0.185274
255.4000,0.610613,210.931,0.185948
255.3000,0.399497,210.974,0.186558
255.2000,1.18803,211.076,0.188001
255.1000,0.797368,211.488,0.193834
255.0000,0.910517,211.405,0.192665
254.9000,0.611736,211.015,0.187136
254.8000,1.88329,211.286,0.190983
254.7000,0.0356796,211.482,0.193754
254.6000,0.902741,211.087,0.188162
254.5000,1.10105,211.417,0.192826
254.4000,0.19787,211.589,0.195259
254.3000,-0.441869,210.938,0.186044
254.2000,-1.03299,211.407,0.192681
254.1000,0.894108,211.496,0.193946
254.0000,0.45993,210.957,0.186317
253.9000,1.04346,211.002,0.186959
253.8000,-0.786354,211.324,0.191512
253.7000,1.63793,211.481,0.193738
253.6000,0.672002,211.29,0.191031
253.5000,0.859885,211.383,0.192345
253.4000,-1.03678,211.756,0.197611
253.3000,1.13613,212.057,0.201863
253.2000,-1.1544,211.604,0.195467
253.1000,-0.0305682,212.277,0.204961
253.0000,0.578766,211.563,0.194891
252.9000,0.0111704,212.041,0.201639
252.8000,0.811565,211.577,0.195083
252.7000,0.326183,211.567,0.194955
252.6000,1.0925,212.059,0.201895
252.5000,1.68911,212.271,0.204881
252.4000,1.63565,212.326,0.205647
252.3000,2.93968,211.754,0.197595
252.2000,1.24529,212.413,0.206876
252.1000,-0.0138059,212.049,0.201751
252.0000,-0.246002,212.294,0.2052
251.9000,1.53084,211.902,0.199674
251.8000,0.319628,211.777,0.197915
251.7000,1.46739,212.792,0.212216
251.6000,-0.317956,212.671,0.210511
251.5000,1.45365,212.323,0.205615
251.4000,-0.380116,212.248,0.204562
251.3000,1.94502,212.636,0.210017
251.2000,-0.50244,213.184,0.217724
251.1000,-0.577562,212.517,0.208343
251.0000,0.683856,212.382,0.206445
250.9000,0.748516,212.546,0.208758
250.8000,0.917235,212.501,0.20812
250.7000,0.784315,212.535,0.208598
250.6000,1.74285,212.757,0.211722
250.5000,0.864715,212.979,0.214844
250.4000,0.375804,212.519,0.208375
250.3000,1.80668,212.58,0.209236
250.2000,2.09155,212.95,0.21443
250.1000,-0.069867,212.695,0.210846
250.0000,0.897681,213.106,0.216626
249.9000,1.78842,213.159,0.217374
249.8000,2.47717,213.28,0.21906
249.7000,-0.246501,213.26,0.21879
249.6000,-0.150338,212.507,0.2082
249.5000,-1.11184,212.86,0.213172
249.4000,2.74578,214.072,0.230157
249.3000,2.50108,212.988,0.214971
249.2000,0.891812,212.798,0.212296
249.1000,0.385736,212.799,0.212312
249.0000,0.368002,212.673,0.210543
248.9000,0.802628,212.52,0.208391
248.8000,1.38932,213.609,0.223684
248.7000,1.19757,213.088,0.216372
248.6000,1.22342,213.332,0.219791
248.5000,0.944214,213.392,0.220634
248.4000,2.18935,212.4,0.2067
248.3000,-1.51881,213.76,0.225795
248.2000,1.84419,212.923,0.214048
248.1000,-0.419708,212.864,0.21322
248.0000,1.08387,212.765,0.211834
247.9000,-0.179013,213.23,0.21836
247.8000,-0.131896,213.314,0.219537
247.7000,1.0115,213.558,0.222969
247.6000,2.78311,212.782,0.212073
247.5000,0.268605,213.266,0.218869
247.4000,0.317911,214.01,0.229301
247.3000,1.19976,214.008,0.22927
247.2000,-1.31059,213.57,0.223128
247.1000,1.59705,214.317,0.233596
247.0000,-0.000694764,214.321,0.233643
246.9000,1.03129,213.683,0.224716
246.8000,-0.484571,214.353,0.234086
246.7000,1.36481,213.945,0.228382
246.6000,0.600713,213.737,0.225478
246.5000,0.124062,212.978,0.214828
246.4000,1.17962,214.1,0.230554
246.3000,0.888973,214.63,0.237964
246.2000,1.63425,215.12,0.244791
246.1000,-1.0682,213.728,0.225351
246.0000,0.111897,213.699,0.224938
245.9000,0.0185119,214.833,0.240794
245.8000,0.624543,214.843,0.240936
245.7000,0.742333,214.287,0.233168
245.6000,0.548211,214.947,0.24239
245.5000,0.550087,214.012,0.229317
245.4000,0.928103,214.277,0.233025
245.3000,1.19251,214.595,0.237474
245.2000,2.3306,214.538,0.236683
245.1000,0.725892,213.898,0.227731
245.0000,1.79155,214.302,0.233374
244.9000,1.92584,214.899,0.241711
244.8000,-0.353519,214.549,0.236825
244.7000,1.28544,214.354,0.234102
244.6000,1.78112,214.736,0.239435
244.5000,1.69097,214.975,0.242769
244.4000,2.30276,214.997,0.243085
244.3000,0.474726,214.73,0.239355
244.2000,0.905843,214.686,0.238739
244.1000,1.20817,214.681,0.238676
244.0000,0.0963781,214.709,0.239071
243.9000,0.991804,214.76,0.239783
243.8000,0.758855,215.147,0.24517
243.7000,1.3642,215.145,0.245138
243.6000,0.748267,214.822,0.240636
243.5000,-0.232665,214.808,0.240446
243.4000,1.61584,214.762,0.239798
243.3000,-0.628043,215.809,0.254377
243.2000,0.640975,215.702,0.252897
243.1000,1.5826,214.993,0.243022
243.0000,1.5077,214.649,0.238233
242.9000,-1.15526,214.563,0.237031
242.8000,-0.556791,214.85,0.241031
242.7000,0.276831,215.589,0.251321
242.6000,1.7668,215.895,0.255574
242.5000,2.31519,215.27,0.24689
242.4000,0.0766305,215.115,0.244728
242.3000,-0.211371,215.5,0.250092
242.2000,2.19196,215.296,0.247253
242.1000,0.434044,215.711,0.253023
242.0000,-1.45969,215.967,0.256581
241.9000,0.398432,215.735,0.253354
241.8000,-0.147653,215.699,0.25285
241.7000,0.961365,216.18,0.259539
241.6000,1.4947,215.551,0.250801
241.5000,-0.681113,216.632,0.265807
241.4000,0.529766,216.418,0.262839
241.3000,0.1712,216.76,0.267581
241.2000,0.527491,217.113,0.272457
241.1000,-0.0361233,216.354,0.261944
241.0000,-0.158555,217.238,0.274196
240.9000,-1.33906,216.628,0.265744
240.8000,-0.657993,216.425,0.262934
240.7000,0.319219,216,0.257038
240.6000,1.19047,216.989,0.270749
240.5000,2.00512,216.974,0.270545
240.4000,2.04673,216.993,0.270796
240.3000,1.3289,216.831,0.268553
240.2000,0.0065874,217.316,0.275261
240.1000,0.353034,216.697,0.266702
240.0000,-0.177249,217.166,0.273193
239.9000,1.2008,216.356,0.261975
239.8000,0.614605,216.874,0.269149
239.7000,-1.05153,217.132,0.272723
239.6000,-1.35154,217.517,0.278046
239.5000,0.841848,217.204,0.273726
239.4000,1.63908,217.029,0.271297
239.3000,0.720922,217.157,0.273068
239.2000,0.63711,216.911,0.269667
239.1000,0.92571,217.365,0.275949
239.0000,0.981308,217.796,0.281893
238.9000,0.390963,217.73,0.280986
238.8000,0.628508,218.436,0.290712
238.7000,1.6765,217.297,0.27501
238.6000,0.600674,217.252,0.274384
238.5000,-0.798029,218.259,0.288279
238.4000,0.488809,218.016,0.284923
238.3000,1.3186,218.112,0.28625
238.2000,2.02291,217.486,0.277608
238.1000,-0.21095,218.273,0.288467
238.0000,0.295391,218.421,0.290509
237.9000,1.40007,218.219,0.287718
237.8000,-0.465602,218.569,0.292536
237.7000,-0.429822,219.045,0.299075
237.6000,1.79197,218.325,0.289184
237.5000,1.72985,218.874,0.296725
237.4000,0.497353,218.903,0.29713
237.3000,0.698397,218.739,0.294872
237.2000,-0.387856,219.692,0.307946
237.1000,1.3704,218.779,0.295433
237.0000,1.46503,219.617,0.306921
236.9000,-0.240534,219.534,0.305788
236.8000,-0.553167,218.877,0.296772
236.7000,1.57825,219.968,0.31173
236.6000,0.06321,218.476,0.291258
236.5000,0.424697,219.797,0.309389
236.4000,-0.411535,219.525,0.305664
236.3000,0.178015,219.8,0.309435
236.2000,0.515293,219.646,0.307325
236.1000,1.79963,219.493,0.305229
236.0000,0.423164,219.262,0.30206
235.9000,-0.758309,219.423,0.304266
235.8000,-1.08574,219.056,0.29923
235.7000,0.873642,219.843,0.310024
235.6000,2.08707,219.225,0.301547
235.5000,1.42531,220.769,0.322672
235.4000,0.0431431,220.37,0.317229
235.3000,1.50997,220.09,0.313404
235.2000,3.97,220.546,0.319627
235.1000,1.57648,220.861,0.323924
235.0000,0.556739,220.804,0.323152
234.9000,0.2186,220.546,0.319627
234.8000,1.61024,220.648,0.321019
234.7000,3.58033,220.797,0.323059
234.6000,-0.16474,221.219,0.328803
234.5000,1.5758,221.027,0.326195
234.4000,1.8452,220.801,0.323105
234.3000,2.36115,221.216,0.328757
234.2000,1.35547,221.826,0.337063
234.1000,2.61293,220.864,0.32397
234.0000,-1.27068,221.606,0.334076
233.9000,2.89999,221.758,0.33614
233.8000,0.983757,221.537,0.333136
233.7000,0.547516,221.152,0.327892
233.6000,0.683721,220.765,0.322611
233.5000,2.32353,221.676,0.335015
233.4000,1.45547,222.027,0.339787
233.3000,1.03095,222.136,0.341264
233.2000,2.25734,221.286,0.329713
233.1000,1.71985,222.198,0.342109
233.0000,0.012088,222.29,0.343354
232.9000,0.278086,222.723,0.34922
232.8000,-0.661204,222.819,0.350523
232.7000,1.42129,222.778,0.349971
232.6000,0.639234,222.447,0.34549
232.5000,2.44955,222.451,0.345535
232.4000,0.947787,222.619,0.347823
232.3000,0.10816,222.941,0.35218
232.2000,0.205654,222.984,0.352762
232.1000,2.07039,222.58,0.347286
232.0000,1.53981,223.445,0.358995
231.9000,2.06515,222.75,0.349588
231.8000,0.544518,222.446,0.345474
231.7000,0.653769,222.869,0.351198
231.6000,-0.133414,224.118,0.368073
231.5000,0.835056,223.168,0.355244
231.4000,1.04612,223.17,0.355275
231.3000,1.62486,223.746,0.363048
231.2000,1.76877,223.052,0.353681
231.1000,1.61169,223.247,0.356316
231.0000,-0.590244,223.674,0.362085
230.9000,0.138946,224.308,0.370621
230.8000,-0.0581632,223.68,0.362161
230.7000,1.79339,224.048,0.367127
230.6000,1.77508,223.373,0.358016
230.5000,2.22045,224.143,0.368409
230.4000,1.92888,224.796,0.377189
230.3000,1.11496,223.954,0.365859
230.2000,1.4597,224.078,0.367523
230.1000,-0.773103,224.373,0.371506
230.0000,0.372874,224.615,0.374753
229.9000,1.80647,224.577,0.37425
229.8000,0.971309,225.095,0.381207
229.7000,2.07887,225.059,0.38072
229.6000,1.8356,224.594,0.374478
229.5000,-0.548172,224.999,0.379914
229.4000,-0.108451,223.681,0.362176
229.3000,0.331118,224.542,0.373777
229.2000,0.736359,224.192,0.369065
229.1000,-0.467763,224.734,0.376352
229.0000,2.97145,224.859,0.378042
228.9000,0.891738,225.17,0.382211
228.8000,1.11312,225.341,0.384506
228.7000,2.45254,225.872,0.391626
228.6000,1.11367,225.114,0.381465
228.5000,0.0482261,224.439,0.37239
228.4000,3.98251,226.014,0.393521
228.3000,0.0858958,225.961,0.392808
228.2000,-0.675778,226.57,0.400956
228.1000,2.20183,226.28,0.397081
228.0000,0.538081,225.858,0.391429
227.9000,-0.0436922,226.229,0.3964
227.8000,-0.223367,226.332,0.397778
227.7000,-0.398747,226.722,0.402982
227.6000,0.2934,226.234,0.39646
227.5000,-0.510199,226.557,0.400774
227.4000,0.306841,226.496,0.399957
227.3000,0.380696,228.068,0.4209
227.2000,0.039664,226.534,0.400472
227.1000,-0.0787256,227.728,0.416384
227.0000,1.02138,228.073,0.42096
226.9000,-0.135893,227.547,0.413973
226.8000,2.35248,228.018,0.420238
226.7000,0.729665,228.755,0.430006
226.6000,2.28907,227.01,0.406821
226.5000,1.65792,227.754,0.41673
226.4000,1.14192,228.807,0.430697
226.3000,0.903305,227.607,0.414771
226.2000,-0.42914,227.665,0.41554
226.1000,0.751888,227.819,0.417589
226.0000,1.55715,228.13,0.421713
225.9000,1.45457,228.301,0.423983
225.8000,1.15229,229.826,0.444162
225.7000,2.11703,228.865,0.431462
225.6000,0.0119061,229.397,0.438506
225.5000,0.63208,229.256,0.436634
225.4000,1.59829,228.831,0.431012
225.3000,0.186326,229.769,0.443414
225.2000,2.60072,229.412,0.438701
225.1000,2.86501,229.651,0.441859
225.0000,2.39627,229.569,0.440767
224.9000,0.860002,229.85,0.444476
224.8000,0.458013,229.152,0.435255
224.7000,1.14336,230.033,0.446897
224.6000,2.07048,229.189,0.43575
224.5000,-0.0210694,230.302,0.450435
224.4000,2.4719,229.842,0.444371
224.3000,0.845681,229.459,0.439315
224.2000,1.02962,230.418,0.451973
224.1000,2.44684,230.564,0.453896
224.0000,-0.054851,230.937,0.458799
223.9000,1.52046,229.535,0.440318
223.8000,2.21541,230.001,0.446478
223.7000,1.04813,230.865,0.457846
223.6000,0.419446,230.495,0.452987
223.5000,-0.24362,231.352,0.464245
223.4000,-1.15889,231.862,0.47093
223.3000,2.35364,230.703,0.455715
223.2000,2.00854,231.443,0.465434
223.1000,1.30321,232.162,0.474861
223.0000,1.65791,231.036,0.460094
222.9000,1.79876,231.796,0.470069
222.8000,2.04497,231.48,0.465925
222.7000,0.48366,232.578,0.480298
222.6000,0.623302,231.198,0.462222
222.5000,1.14673,231.836,0.470588
222.4000,1.21143,232.726,0.482237
222.3000,-0.208165,232.3,0.476669
222.2000,0.638163,232.487,0.479113
222.1000,-0.246924,232.331,0.477069
222.0000,0.98147,232.78,0.482932
221.9000,1.61147,232.802,0.483228
221.8000,0.410665,232.749,0.482533
221.7000,1.23513,232.766,0.482755
221.6000,-0.199428,232.325,0.476995
221.5000,1.50443,233.419,0.491266
221.4000,1.13352,232.539,0.479795
221.3000,2.89752,233.601,0.493642
221.2000,-0.695314,232.185,0.475157
221.1000,0.196546,233.684,0.494718
221.0000,1.8111,233.781,0.495986
220.9000,3.48666,233.633,0.494055
220.8000,-0.128342,234.403,0.50407
220.7000,2.71472,234.283,0.502511
220.6000,1.33458,233.87,0.497136
220.5000,-0.269445,233.863,0.497048
220.4000,1.60139,234.886,0.510331
220.3000,1.40276,234.527,0.505673
220.2000,1.34672,234.38,0.503762
220.1000,3.4602,234.82,0.509479
220.0000,1.60716,234.731,0.508319
219.9000,-0.236387,234.812,0.509376
219.8000,2.47415,234.531,0.505732
219.7000,-0.273332,234.867,0.510081
219.6000,2.81686,235.058,0.512562
219.5000,-0.480212,234.236,0.501893
219.4000,2.05806,234.863,0.510037
219.3000,-0.0127188,235.111,0.513252
219.2000,4.02868,235.626,0.519907
219.1000,2.84727,235.264,0.515232
219.0000,-0.62931,235.133,0.513531
218.9000,0.737688,235.376,0.516669
218.8000,2.7654,236.296,0.528553
218.7000,0.87291,235.705,0.520932
218.6000,3.36092,235.757,0.521606
218.5000,3.52793,236.07,0.525644
218.4000,2.70499,235.854,0.52285
218.3000,-0.319448,235.806,0.522235
218.2000,-1.6932,236.626,0.532817
218.1000,1.9507,236.349,0.529239
218.0000,-0.132413,236.43,0.530291
217.9000,1.89613,236.307,0.528699
217.8000,2.97653,236.784,0.534845
217.7000,1.46233,237.233,0.540616
217.6000,2.81818,237.296,0.541432
217.5000,1.83148,237.714,0.546801
217.4000,0.720847,236.997,0.537586
217.3000,2.45288,237.591,0.545216
217.2000,2.61058,237.626,0.545667
217.1000,0.728961,238.023,0.550768
217.0000,0.465348,237.781,0.547659
216.9000,0.564338,237.914,0.549359
216.8000,-0.220555,238.098,0.551726
216.7000,4.23799,238.284,0.554107
216.6000,4.3959,237.179,0.539932
216.5000,1.47808,238.906,0.562065
216.4000,1.32075,238.256,0.553744
216.3000,-0.362131,238.297,0.554266
216.2000,-0.685361,238.534,0.557312
216.1000,2.10591,239.194,0.565741
216.0000,-0.84387,238.337,0.554789
215.9000,1.63187,238.375,0.555268
215.8000,-0.652262,238.486,0.556689
215.7000,1.14213,238.8,0.560703
215.6000,4.32687,238.872,0.56163
215.5000,0.805852,239.297,0.567057
215.4000,1.08673,239.422,0.568647
215.3000,1.99187,239.878,0.574467
215.2000,1.19835,239.887,0.574582
215.1000,-1.15789,239.772,0.57311
215.0000,1.47345,239.555,0.570352
214.9000,0.253809,239.626,0.571248
214.8000,0.127105,239.944,0.575304
214.7000,2.33476,240.16,0.578058
214.6000,-1.55976,238.782,0.560472
214.5000,2.78594,239.894,0.574669
214.4000,0.450863,240.175,0.578246
214.3000,4.63771,239.899,0.574727
214.2000,0.825687,240.065,0.576847
214.1000,3.0745,239.919,0.574987
214.0000,1.81806,240.232,0.578967
213.9000,0.444528,240.533,0.582799
213.8000,-1.74246,240.786,0.586008
213.7000,-1.30723,240.882,0.587231
213.6000,-1.12258,241.25,0.591902
213.5000,0.74819,241.467,0.594644
213.4000,-0.268449,241.376,0.593495
213.3000,-0.160303,241.467,0.594644
213.2000,3.29249,241.348,0.593137
213.1000,2.37358,240.75,0.585548
213.0000,1.9597,241.168,0.590853
212.9000,1.58276,241.756,0.598302
212.8000,1.16323,241.627,0.596667
212.7000,0.594607,240.83,0.586569
212.6000,1.48773,241.108,0.590091
212.5000,2.06057,242.07,0.602271
212.4000,1.45289,241.46,0.594558
212.3000,0.216844,242.616,0.609168
212.2000,1.8017,242.318,0.605407
212.1000,-0.708732,241.741,0.598115
212.0000,1.81974,242.175,0.603603
211.9000,1.34586,243.054,0.614697
211.8000,-0.198574,243.165,0.616096
211.7000,2.41549,243.222,0.616809
211.6000,-1.42796,243.804,0.624134
211.5000,0.393511,242.585,0.608782
211.4000,1.07688,242.568,0.608568
211.3000,1.61008,243.446,0.619632
211.2000,-0.487909,243.372,0.618692
211.1000,4.04503,243.585,0.621371
211.0000,1.35646,243.709,0.622938
210.9000,1.93028,244.025,0.62691
210.8000,0.420287,243.909,0.625444
210.7000,0.911709,244.762,0.636146
210.6000,2.45188,243.952,0.625985
210.5000,2.06736,244.642,0.634642
210.4000,2.39782,243.596,0.621514
210.3000,-1.77897,245.054,0.639806
210.2000,1.68272,244.031,0.626981
210.1000,-1.10294,245.218,0.641861
210.0000,1.43842,245.16,0.641125
209.9000,2.99326,245.553,0.646039
209.8000,2.51891,246.149,0.653477
209.7000,0.527738,244.537,0.633335
209.6000,-0.188104,246.208,0.654212
209.5000,1.2231,246.196,0.65407
209.4000,-2.60084,246.203,0.654155
209.3000,2.79929,245.928,0.650721
209.2000,1.67354,246.752,0.660985
209.1000,5.01504,246.697,0.660308
209.0000,2.81147,246.415,0.656795
208.9000,1.74901,247.559,0.671022
208.8000,-1.0607,246.528,0.658206
208.7000,-0.267032,246.737,0.660801
208.6000,-1.86676,246.891,0.662718
208.5000,-1.54623,247.073,0.664986
208.4000,4.24331,247.045,0.664634
208.3000,-0.0480516,247.785,0.673819
208.2000,1.56263,248.196,0.678915
208.1000,2.63493,247.565,0.671093
208.0000,1.00778,248.418,0.681664
207.9000,2.75804,247.727,0.673103
207.8000,-1.15165,248.119,0.677961
207.7000,0.443787,248.687,0.684985
207.6000,-1.47067,248.024,0.676782
207.5000,0.280707,248.278,0.679925
207.4000,0.352254,249.31,0.692681
207.3000,1.47617,248.35,0.680823
207.2000,0.960944,249.623,0.696536
207.1000,0.63498,249.591,0.696146
207.0000,3.16921,249.586,0.69609
206.9000,0.306683,249.159,0.690821
206.8000,3.37023,248.595,0.68385
206.7000,2.03538,249.967,0.700779
206.6000,0.70362,250.472,0.706994
206.5000,3.21018,250.28,0.704626
206.4000,1.10858,250.434,0.706521
206.3000,2.61242,251.115,0.71488
206.2000,0.729968,250.709,0.709903
206.1000,-2.26633,250.887,0.712087
206.0000,1.07149,250.52,0.707579
205.9000,0.284363,251.284,0.71695
205.8000,1.43369,251.394,0.718297
205.7000,2.97571,251.523,0.719879
205.6000,3.57964,251.977,0.725439
205.5000,-1.44976,252.292,0.729289
205.4000,3.37624,251.875,0.724192
205.3000,0.411861,252.757,0.734959
205.2000,0.600994,252.674,0.73395
205.1000,3.51627,252.722,0.73453
205.0000,-1.48651,253.086,0.738978
204.9000,1.40085,253.747,0.747017
204.8000,0.353353,253.65,0.745833
204.7000,1.7343,252.93,0.737073
204.6000,1.75439,253.935,0.749304
204.5000,2.45811,253.159,0.739862
204.4000,0.391889,253.639,0.745709
204.3000,-0.214741,254.124,0.751602
204.2000,0.976535,254.761,0.759326
204.1000,0.649033,254.743,0.759106
204.0000,5.20859,255.229,0.764992
203.9000,-0.0338023,254.391,0.754833
203.8000,2.14317,256.055,0.774972
203.7000,0.954311,255.494,0.768198
203.6000,3.77726,255.623,0.769759
203.5000,-0.360155,256.653,0.782183
203.4000,-0.0577858,255.681,0.770457
203.3000,0.747696,256.189,0.776584
203.2000,1.81235,256.236,0.777158
203.1000,2.2533,256.444,0.779658
203.0000,1.49123,257.215,0.788945
202.9000,2.25389,256.708,0.782838
202.8000,-0.860204,256.909,0.785266
202.7000,-1.07242,257.155,0.788223
202.6000,2.33085,257.433,0.79156
202.5000,-1.84087,257.852,0.796592
202.4000,0.895494,258.071,0.799215
202.3000,3.93007,258.619,0.805783
202.2000,4.66024,258.504,0.8044
202.1000,1.15252,258.328,0.802297
202.0000,2.75431,259.517,0.816507
201.9000,1.90294,260.368,0.826647
201.8000,0.25574,259.909,0.821182
201.7000,2.59574,259.778,0.819629
201.6000,3.11011,259.954,0.821722
201.5000,-1.79416,260.414,0.8272
201.4000,4.09496,259.888,0.820939
201.3000,0.501144,260.522,0.82848
201.2000,3.65589,259.621,0.81775
201.1000,2.90396,261.909,0.84494
201.0000,1.45328,261.019,0.834392
200.9000,1.92016,261.277,0.837459
200.8000,-3.1984,262.387,0.850598
200.7000,-0.641991,262.456,0.851415
200.6000,0.252121,262.611,0.85325
200.5000,0.276507,263.007,0.85792
200.4000,6.73176,262.463,0.851496
200.3000,3.43381,263.173,0.859885
200.2000,2.14231,262.248,0.848963
200.1000,-1.72396,263.733,0.866481
200.0000,2.94008,263.714,0.866254
199.9000,4.23091,263.963,0.869188
199.8000,0.331992,264.502,0.875528
199.7000,-1.66451,263.363,0.862129
199.6000,3.80159,265.283,0.884687
199.5000,1.83332,265.151,0.883146
199.4000,3.77546,265.409,0.88616
199.3000,3.41012,265.092,0.882456
199.2000,1.29045,266.68,0.901021
199.1000,3.22149,266.609,0.900188
199.0000,0.53196,267.131,0.906278
198.9000,1.50341,266.715,0.90143
198.8000,0.0928053,267.215,0.907255
198.7000,-0.202386,267.328,0.908574
198.6000,-3.54429,267.373,0.909102
198.5000,3.40141,267.371,0.909075
198.4000,1.75969,267.461,0.910117
198.3000,3.32176,267.611,0.911871
198.2000,0.705743,268.377,0.92077
198.1000,4.60721,268.136,0.917968
198.0000,1.92769,268.469,0.921835
197.9000,1.73303,269.501,0.933791
197.8000,-1.72786,269.252,0.930907
197.7000,-0.941461,269.557,0.934433
197.6000,2.24067,270.115,0.940887
197.5000,1.06129,270.093,0.940625
197.4000,0.0788699,270.273,0.942704
197.3000,-1.67706,270.853,0.949391
197.2000,3.40084,269.939,0.938846
197.1000,0.866343,270.433,0.944547
197.0000,4.14143,270.975,0.9508
196.9000,1.69512,272.2,0.964875
196.8000,0.97447,271.626,0.95828
196.7000,-0.852748,271.861,0.960987
196.6000,-1.42479,272.811,0.971873
196.5000,-3.37603,272.585,0.96929
196.4000,1.675,273.222,0.976578
196.3000,1.24778,273.188,0.97619
196.2000,-2.00391,273.876,0.984046
196.1000,-1.51413,274.314,0.989046
196.0000,3.6677,273.996,0.985416
195.9000,3.0427,275.09,0.997868
195.8000,-0.841159,275.322,1.00051
195.7000,-4.31259,275.895,1.00702
195.6000,0.60774,275.914,1.00723
195.5000,-0.114986,276.479,1.01363
195.4000,-3.50697,276.736,1.01654
195.3000,0.0682168,277.783,1.02836
195.2000,1.21299,276.799,1.01726
195.1000,-0.748047,277.528,1.02549
195.0000,-0.912443,277.552,1.02576
194.9000,-0.842222,278.454,1.03592
194.8000,2.92516,278.681,1.03848
194.7000,0.365108,279.329,1.04577
194.6000,-1.99009,279.451,1.04713
194.5000,-2.09764,280.132,1.05476
194.4000,-1.58151,280.621,1.06024
194.3000,-4.98855,281.211,1.06683
194.2000,0.548301,281.522,1.0703
194.1000,1.80083,281.993,1.07555
194.0000,-0.0549014,282.502,1.08121
193.9000,6.21549,283.607,1.09348
193.8000,-0.164282,283.885,1.09657
193.7000,3.4572,285.085,1.10983
193.6000,0.25576,285.56,1.11507
193.5000,-0.995488,285.196,1.11106
193.4000,3.41882,286.343,1.12369
193.3000,-0.625775,286.861,1.12938
193.2000,2.08856,286.814,1.12887
193.1000,4.75466,288.186,1.14389
193.0000,4.2936,287.639,1.13792
192.9000,-1.42578,289.213,1.15512
192.8000,1.34937,289.968,1.16334
192.7000,3.41193,291.229,1.17704
192.6000,0.466253,291.654,1.18164
192.5000,-6.1606,293.029,1.19651
192.4000,4.33452,293.604,1.2027
192.3000,2.73269,294.795,1.2155
192.2000,2.52619,294.988,1.21758
192.1000,3.2301,295.632,1.22448
192.0000,1.08281,296.972,1.23881
191.9000,1.07519,297.494,1.24436
191.8000,-1.22784,298.962,1.25997
191.7000,3.939,299.073,1.26115
191.6000,3.50376,301.136,1.28297
191.5000,1.62981,300.417,1.27538
191.4000,-4.142,302.22,1.29437
191.3000,0.141285,302.645,1.29884
191.2000,-0.185656,304.427,1.31751
191.1000,-10.8892,305.498,1.32868
191.0000,-1.54888,307.228,1.34667
190.9000,-2.07546,308.013,1.3548
190.8000,9.16644,309.698,1.3722
190.7000,-0.548951,311.761,1.39339
190.6000,-6.54563,312.895,1.40499
190.5000,-10.2691,315.137,1.42781
190.4000,5.41173,315.254,1.42901
190.3000,2.51486,317.657,1.45331
190.2000,-1.19542,318.955,1.46639
190.1000,0.592748,319.854,1.47541
190.0000,6.74896,321.508,1.49196

##### Extended Information
[Comments]
Sample name,KMGM_BUFFER_928
Comment,BUFFER ALONE
User,KYLE MURPHY
Division
Company,Saint Mary's College

[Detailed Information]
Creation date,9/28/2022 3:03 PM

Data array type,Linear data array * 3
Horizontal axis,Wavelength [nm]
Vertical axis(1),CD [mdeg]
Vertical axis(2),HT [V]
Vertical axis(3),Abs
Start,320 nm
End,190 nm
Data interval,0.1 nm
Data points,1301    

[Measurement Information]
Instrument name,J-1500
Model name,J-1500
Serial No.,B051061638

Detector,PM-539
Detector S/N,B051061638
  Lock-in amp.,X mode
  HT volt,Auto

Accessory,PTC-517
Accessory S/N,B026561646
  Temperature,27.70 C
  Control sensor,Holder
  Monitor sensor,Holder

Measurement date,9/28/2022 3:03 PM

CD Overload detect,1276
Photometric mode,CD, HT, Abs
Measure range,320 - 190 nm
Data pitch,0.1 nm
CD scale,20 mdeg/0.05 dOD
FL scale,20 mdeg/0.05 dOD
D.I.T.,8 msec
Bandwidth,2.00 nm
Start mode,Immediately
Scanning mode,Continuous
Scanning speed,200 nm/min
Baseline correction,None
Shutter control,Auto
No. of cycle,1/1
N2 Flowmeter,Manual

Solvent,NaPO4 buffer

