TITLE,KMGM_Additive&PROTEIN_928_Averages,,
DATA TYPE,,,
ORIGIN,JASCO,,
OWNER,,,
DATE,22/09/28,,
TIME,15:27:31,,
SPECTROMETER/DATA SYSTEM,,,
LOCALE,1033,,
RESOLUTION,,,
DELTAX,-0.1,,
XUNITS,NANOMETERS,,
YUNITS,CD [mdeg],,
Y2UNITS,HT [V],,
Y3UNITS,ABSORBANCE,,
FIRSTX,320,,
LASTX,190,,
NPOINTS,1301,,
FIRSTY,0.43344,,
MAXY,54.05992,,
MINY,-64.3879,,
XYDATA,,,
320,1.299203667,208.107,0.1457046667
319.9,0.6658263333,208.965,0.1580003333
319.8,1.810516667,208.473,0.1509703333
319.7,1.241895,208.3346667,0.1489876667
319.6,2.173026667,208.6473333,0.153464
319.5,1.364981,209.084,0.1596586667
319.4,1.860635,208.3203333,0.1487806667
319.3,1.880087333,208.8886667,0.156897
319.2,0.6834186667,208.0503333,0.1449236667
319.1,0.4617466667,208.437,0.150451
319,1.866236667,208.034,0.1446916667
318.9,0.7958346667,208.341,0.149085
318.8,1.280783333,208.3996667,0.149917
318.7,1.635313333,207.9493333,0.143475
318.6,0.206244,208.558,0.1521803333
318.5,2.481283333,208.213,0.147253
318.4,2.319643333,208.1466667,0.1463066667
318.3,1.050237367,208.5816667,0.152523
318.2,0.7687322333,208.2086667,0.147192
318.1,2.040326667,208.609,0.152913
318,2.262956667,208.6303333,0.1532116667
317.9,1.472930333,208.8653333,0.1565703333
317.8,1.835180667,208.5526667,0.152109
317.7,1.993496667,207.247,0.133381
317.6,1.018174,208.149,0.1463363333
317.5,1.837486667,208.2103333,0.147221
317.4,2.04734,208.116,0.1458683333
317.3,1.87139,208.064,0.1451163333
317.2,0.9327763333,208.473,0.1509756667
317.1,1.858563333,208.3546667,0.149285
317,1.133944333,208.7036667,0.1542573333
316.9,2.210023333,208.497,0.151313
316.8,1.68706,208.653,0.1535436667
316.7,0.6712515333,207.9056667,0.1428543333
316.6,1.270801333,208.5576667,0.152182
316.5,1.139760667,208.043,0.1448163333
316.4,1.597816667,208.166,0.146578
316.3,1.187638333,208.0003333,0.1442076667
316.2,1.567828,207.8013333,0.1413526667
316.1,1.133898,208.663,0.153691
316,1.516732333,208.1986667,0.1470473333
315.9,2.072933,208.128,0.1460426667
315.8,1.121522,208.5253333,0.1517176667
315.7,0.9353986667,208.798,0.1556096667
315.6,1.957433333,208.3973333,0.149883
315.5,1.506963667,208.394,0.1498456667
315.4,1.293409,207.7523333,0.1406443333
315.3,1.41745,208.1203333,0.1459266667
315.2,0.5181423333,208.2656667,0.1480103333
315.1,1.65396,208.4453333,0.1505793333
315,1.611226667,207.8586667,0.1421713333
314.9,1.120953,208.4806667,0.1510836667
314.8,0.924134,208.0943333,0.1455556667
314.7,1.136893333,207.5856667,0.138255
314.6,2.068393333,208.1843333,0.1468423333
314.5,1.709791667,207.934,0.1432586667
314.4,0.782755,208.384,0.1496893333
314.3,2.270133333,208.1546667,0.1464146667
314.2,1.074797,208.0223333,0.144523
314.1,1.338481667,208.393,0.1498273333
314,2.484273333,207.724,0.1402453333
313.9,1.772804667,207.183,0.1324753333
313.8,0.649551,207.8596667,0.1421953333
313.7,1.199581333,207.4303333,0.1360133333
313.6,1.312875667,207.674,0.1395363333
313.5,2.59338,208.06,0.1450626667
313.4,0.9235,208.5246667,0.151701
313.3,1.827563133,207.239,0.1332693333
313.2,2.242863333,207.941,0.1433543333
313.1,1.141230333,207.7676667,0.1408713333
313,1.023466,207.792,0.141226
312.9,0.3107254333,207.5696667,0.1380346667
312.8,0.8937496667,207.8363333,0.1418553333
312.7,1.934616667,208.561,0.1521983333
312.6,2.164516667,207.798,0.141311
312.5,1.507272667,207.5,0.1370293333
312.4,1.545356667,207.5013333,0.137054
312.3,1.110174667,207.6563333,0.1392666667
312.2,1.238182,207.7956667,0.141273
312.1,0.2419764,207.8256667,0.1417073333
312,1.258754333,208.2366667,0.147591
311.9,1.069654,206.7806667,0.1266736667
311.8,1.651398667,207.493,0.1369233333
311.7,1.66413319,207.2856667,0.133945
311.6,-0.08002166667,207.4666667,0.1365553333
311.5,1.220217667,207.5296667,0.1374603333
311.4,1.76152,207.4073333,0.135704
311.3,0.8847999667,208.431,0.150369
311.2,1.126708333,208.139,0.146184
311.1,1.122204333,208.011,0.1443596667
311,0.8808673333,207.862,0.1422053333
310.9,0.8922423333,207.8453333,0.1419836667
310.8,1.086050667,207.8043333,0.1414006667
310.7,1.697603333,208.1583333,0.146468
310.6,0.703868,207.8486667,0.142038
310.5,1.622554667,208.153,0.146385
310.4,1.179225667,207.8373333,0.1418763333
310.3,0.5432546667,207.7116667,0.140051
310.2,1.192756667,208.2966667,0.1484506667
310.1,1.155156667,207.5986667,0.1384416667
310,-0.2316281667,208.5413333,0.15192
309.9,1.143773333,208.1896667,0.1469073333
309.8,0.7527604333,207.5446667,0.1376716667
309.7,2.452953333,207.4313333,0.1360393333
309.6,1.2124208,208.097,0.1455983333
309.5,0.7529956667,207.975,0.1438456667
309.4,0.8139091667,207.8896667,0.142628
309.3,0.6517123333,207.6753333,0.139541
309.2,1.342884333,207.6733333,0.139515
309.1,0.7944582333,207.5733333,0.138086
309,1.441415667,208.14,0.1462016667
308.9,1.31118,207.7753333,0.140981
308.8,1.97276,207.5503333,0.1377546667
308.7,0.720583,207.9083333,0.1428926667
308.6,0.9351403333,207.821,0.1416373333
308.5,1.72504,207.555,0.137824
308.4,1.396244667,207.361,0.1350413333
308.3,1.517835,207.562,0.1379246667
308.2,0.7591736667,207.5413333,0.137627
308.1,1.866153333,207.523,0.137354
308,1.099617267,207.6876667,0.1397196667
307.9,2.17295,207.6523333,0.139218
307.8,1.785266,207.3156667,0.1343876667
307.7,1.791746667,207.7666667,0.1408596667
307.6,0.9051203333,208.106,0.1457223333
307.5,0.8833023333,207.4343333,0.1360753333
307.4,1.606176,207.5293333,0.1374573333
307.3,0.630585,207.4273333,0.1359883333
307.2,0.8385996667,207.397,0.1355526667
307.1,0.868694,207.6243333,0.1388133333
307,2.037083333,207.8223333,0.1416586667
306.9,1.541953667,207.322,0.1344783333
306.8,1.714386,207.908,0.1428876667
306.7,1.178188333,207.4753333,0.1366786667
306.6,1.956276667,207.7493333,0.1406066667
306.5,2.602663333,207.2086667,0.1328496667
306.4,1.2589658,207.4313333,0.1360453333
306.3,0.8451383333,207.6706667,0.1394823333
306.2,1.289585,207.3376667,0.1346936667
306.1,1.068602667,207.581,0.1381946667
306,1.304422,207.2523333,0.1334756667
305.9,1.022897667,207.8993333,0.1427536667
305.8,1.40602,207.7,0.139897
305.7,1.078265033,208.0276667,0.144603
305.6,1.628253,207.237,0.1332556667
305.5,1.9143,207.704,0.139964
305.4,0.5049096667,207.612,0.138635
305.3,2.188342333,207.93,0.1431966667
305.2,0.2264786667,207.8093333,0.1414673333
305.1,1.714028333,207.2723333,0.13376
305,0.7811216667,208.0623333,0.145078
304.9,1.823556667,207.2733333,0.133775
304.8,0.8990226667,207.6316667,0.1389153333
304.7,1.008479,207.2216667,0.133036
304.6,1.305856667,207.3846667,0.1353746667
304.5,1.299506667,207.533,0.1375123333
304.4,0.3750190333,207.5136667,0.1372286667
304.3,1.447032333,207.8246667,0.1416866667
304.2,1.796963333,207.9256667,0.143139
304.1,1.309512,207.9436667,0.143384
304,1.630677667,207.317,0.1344033333
303.9,1.204114667,207.513,0.1371926667
303.8,1.182132667,207.765,0.1408176667
303.7,1.065353533,208.0476667,0.1448846667
303.6,1.867536667,207.2256667,0.1330956667
303.5,1.418296,207.868,0.1423116667
303.4,1.389506667,207.6576667,0.139302
303.3,1.04544,207.9366667,0.143279
303.2,0.8294603333,207.7863333,0.1411433333
303.1,0.7421771667,207.8526667,0.142078
303,0.921872,207.0896667,0.1311346667
302.9,1.60129,207.7526667,0.140656
302.8,1.379858,207.6716667,0.1394893333
302.7,1.248495,207.4113333,0.13576
302.6,0.4379823333,207.7033333,0.139921
302.5,1.983066667,207.2526667,0.13348
302.4,1.787056,207.743,0.140513
302.3,0.5671416667,206.5646667,0.1235826667
302.2,1.529474667,207.1686667,0.132269
302.1,1.1688575,207.2196667,0.132998
302,2.19876,207.3373333,0.134691
301.9,0.955614,207.5486667,0.1377283333
301.8,0.8290376667,207.6546667,0.139232
301.7,1.237831667,207.244,0.1333546667
301.6,-0.08238383333,207.4776667,0.1366993333
301.5,1.48223,207.3856667,0.1353893333
301.4,0.299034,207.2863333,0.1339663333
301.3,-0.04527,207.1333333,0.131769
301.2,-0.2550176667,207.5506667,0.1377356667
301.1,1.584930333,207.4843333,0.1368033333
301,1.562613333,206.955,0.1292053333
300.9,0.32489,206.5363333,0.1231723333
300.8,1.352143333,207.294,0.1340753333
300.7,0.6827473333,207.3416667,0.134757
300.6,1.322448,206.851,0.1276986667
300.5,0.7767013333,206.946,0.1290653333
300.4,0.989296,207.507,0.137132
300.3,0.6392096667,206.8533333,0.1277396667
300.2,0.9046063333,207.3323333,0.1346233333
300.1,1.536596667,207.2593333,0.133582
300,1.503505667,207.53,0.1374633333
299.9,1.015497,206.826,0.1273516667
299.8,1.47697,207.0933333,0.1311843333
299.7,1.349907667,207.195,0.1326413333
299.6,1.953842667,207.1073333,0.1313856667
299.5,1.282861,207.05,0.130567
299.4,1.783339667,207.2606667,0.133599
299.3,2.21107,207.0646667,0.1307746667
299.2,1.262656,207.1196667,0.1315736667
299.1,1.442753,207.0383333,0.130378
299,1.111097,207.118,0.131541
298.9,1.140692667,207.5203333,0.137322
298.8,1.190086667,207.6936667,0.139806
298.7,0.8917643,207.0783333,0.1309763333
298.6,1.091758,206.8313333,0.1274236667
298.5,1.285928333,206.8523333,0.1277273333
298.4,0.6336586667,207.2513333,0.1334573333
298.3,0.4385286667,207.5126667,0.1372136667
298.2,0.8093763333,206.8233333,0.1273056667
298.1,2.61988,207.4536667,0.136371
298,0.1302243333,207.3736667,0.135215
297.9,1.253658767,207.0226667,0.1301736667
297.8,0.962244,207.6403333,0.139049
297.7,0.4823011,207.5363333,0.1375493333
297.6,1.395697333,206.96,0.1292503333
297.5,1.101297333,206.965,0.129345
297.4,1.908485,207.4006667,0.1356116667
297.3,1.863846667,207.3386667,0.1347123333
297.2,0.7279716667,207.231,0.1331653333
297.1,2.365236667,207.133,0.1317646667
297,0.9000803333,207.785,0.1411233333
296.9,0.6704178,207.0816667,0.1310076667
296.8,0.9160343333,206.7946667,0.126902
296.7,2.553716667,206.7803333,0.1266936667
296.6,1.137156667,207.2243333,0.133072
296.5,1.344866667,207.611,0.138617
296.4,1.198862667,207.1126667,0.131476
296.3,0.4199542333,207.4323333,0.136061
296.2,1.90892,207.1336667,0.1317686667
296.1,1.638468433,207.3153333,0.1343806667
296,1.267698333,207.2243333,0.1330726667
295.9,1.186143333,207.5393333,0.1375953333
295.8,1.226313333,206.6526667,0.1248543333
295.7,1.252450333,206.9986667,0.129831
295.6,0.9922893333,207.1416667,0.1318893333
295.5,1.304921667,206.6943333,0.1254503333
295.4,1.645903,207.3036667,0.1342033333
295.3,0.631288,207.0423333,0.1304603333
295.2,1.457677,206.752,0.126276
295.1,0.28790687,207.1666667,0.1322473333
295,0.17739,207.0256667,0.130195
294.9,0.8678973333,207.0136667,0.130049
294.8,1.064833333,206.5873333,0.1239096667
294.7,1.32047,207.1233333,0.1316293333
294.6,0.3873423333,207.3746667,0.1352173333
294.5,0.5006726667,206.7653333,0.1264683333
294.4,1.154443333,206.7936667,0.126883
294.3,1.185169333,206.8786667,0.1281046667
294.2,1.832950333,206.3383333,0.120315
294.1,1.431776667,207.5266667,0.137419
294,1.938176667,207.0216667,0.1301673333
293.9,1.715793333,207.2716667,0.1337503333
293.8,2.035229,207.2413333,0.1333086667
293.7,1.572313333,207.308,0.134282
293.6,1.130055667,207.2843333,0.1339386667
293.5,0.6966646667,206.9316667,0.12887
293.4,0.85973,207.0653333,0.1307913333
293.3,2.192156667,207.651,0.1392023333
293.2,1.86699,206.923,0.1287393333
293.1,1.037373667,207.567,0.137996
293,1.334575667,206.348,0.120464
292.9,1.586662,206.7806667,0.1266843333
292.8,1.621284667,207.1783333,0.1324143333
292.7,1.55355,206.3806667,0.1209166667
292.6,1.401221667,207.2923333,0.1340216667
292.5,0.9498183333,206.932,0.1288656667
292.4,1.285737,206.282,0.1195053333
292.3,1.908706667,207.0186667,0.130117
292.2,1.918561,206.709,0.1256513333
292.1,0.3798396667,207.2216667,0.133034
292,1.611912667,206.8183333,0.127235
291.9,0.738126,205.9836667,0.115206
291.8,1.389857333,206.645,0.124708
291.7,1.779211,206.206,0.1184043333
291.6,1.568313333,206.672,0.1251343333
291.5,0.9197106667,206.635,0.124594
291.4,0.356922,206.6956667,0.1254643333
291.3,1.533486667,206.478,0.1223363333
291.2,1.71178,205.9786667,0.1151253333
291.1,1.878946667,206.1773333,0.1180003333
291,1.174037667,206.134,0.1173753333
290.9,1.689806667,206.7306667,0.1259723333
290.8,0.7762576667,206.6016667,0.1241053333
290.7,0.9601926667,206.6303333,0.1245286667
290.6,0.4736206667,206.7223333,0.125857
290.5,0.3336133333,207.1706667,0.132302
290.4,0.962979,206.5246667,0.1230093333
290.3,0.880974,206.9483333,0.129109
290.2,0.4284873333,206.906,0.128493
290.1,0.7501531,206.884,0.1281846667
290,1.36425,206.9966667,0.1298006667
289.9,0.3967203333,206.9066667,0.128499
289.8,0.7696856667,207.6553333,0.1392603333
289.7,1.139762333,206.6223333,0.1244013333
289.6,0.470979,206.57,0.123665
289.5,0.208432,206.7586667,0.1263753333
289.4,0.9433653333,207.049,0.1305563333
289.3,0.9979573333,207.2276667,0.133127
289.2,1.282713,206.945,0.1290496667
289.1,1.653136667,207.1726667,0.1323063333
289,0.466702,206.9303333,0.1288466667
288.9,1.528422667,207.406,0.135686
288.8,1.18692,207.1333333,0.13177
288.7,0.3332723333,207.2226667,0.1330486667
288.6,1.230906667,207.2246667,0.133077
288.5,1.625529667,206.764,0.1264566667
288.4,0.967683,207.0706667,0.1308676667
288.3,1.305612667,207.5223333,0.1373426667
288.2,0.1812126667,206.334,0.120251
288.1,1.054653333,207.0333333,0.1303306667
288,1.041579333,207.4726667,0.136642
287.9,2.193056667,206.9106667,0.12857
287.8,1.101710333,207.2086667,0.1328496667
287.7,0.994396,206.8186667,0.1272353333
287.6,0.2984936667,207.329,0.134567
287.5,0.181123,207.4316667,0.136049
287.4,0.06041366667,207.4576667,0.1364193333
287.3,2.28439,206.9793333,0.1295523333
287.2,1.730346667,207.5426667,0.137649
287.1,1.052449333,207.3676667,0.1351256667
287,1.109381133,207.3846667,0.135379
286.9,1.240053667,207.2936667,0.1340706667
286.8,1.308157333,207.2633333,0.133627
286.7,1.769033333,207.402,0.135623
286.6,1.340969,207.7536667,0.1406726667
286.5,0.515615,207.423,0.1359233333
286.4,1.688426667,207.494,0.13695
286.3,1.83297,207.454,0.1363763333
286.2,1.520594667,207.214,0.132927
286.1,0.8283263333,207.0803333,0.1310083333
286,1.231587667,207.9183333,0.143022
285.9,0.4018086667,207.173,0.132327
285.8,0.2513506667,207.5586667,0.1378766667
285.7,0.4457966667,207.463,0.1365063333
285.6,1.43678,207.7423333,0.1405073333
285.5,0.9508996667,207.5636667,0.1379483333
285.4,0.08267466667,207.3673333,0.135129
285.3,1.532809333,207.416,0.1358193333
285.2,1.467022333,206.7253333,0.125902
285.1,0.7587973333,207.411,0.1357493333
285,0.8568336667,207.6986667,0.1398876667
284.9,1.057241667,207.7706667,0.140906
284.8,0.631791,207.2096667,0.132867
284.7,1.445901333,207.344,0.1347896667
284.6,-0.09404033333,207.53,0.1374663333
284.5,0.982149,206.2956667,0.119701
284.4,1.140058667,207.4516667,0.1363353333
284.3,0.1402226667,207.4593333,0.136453
284.2,0.2746056667,207.5386667,0.1375816667
284.1,0.7713683333,207.582,0.1382093333
284,-0.3758916667,207.8523333,0.1420923333
283.9,0.9136945333,207.854,0.1421113333
283.8,-0.02697133333,207.5943333,0.1383853333
283.7,0.648198,207.4866667,0.136842
283.6,0.610769,207.585,0.1382476667
283.5,0.942228,207.0973333,0.1312333333
283.4,1.374162667,207.7226667,0.1401996667
283.3,0.6876276667,207.5413333,0.137631
283.2,1.55607,208.1376667,0.1461763333
283.1,0.6378243333,207.6026667,0.1385043333
283,1.350444333,207.3746667,0.135237
282.9,0.4026776667,207.7896667,0.141189
282.8,1.225792333,207.39,0.135452
282.7,0.9231103333,207.307,0.1342653333
282.6,1.98345,207.858,0.142169
282.5,2.263116333,207.5356667,0.1375523333
282.4,1.119284333,207.599,0.1384453333
282.3,0.4456123333,207.6136667,0.1386573333
282.2,0.7804376667,207.7916667,0.1412206667
282.1,0.7803273333,207.5176667,0.1372846667
282,0.5113713667,207.344,0.1347973333
281.9,1.640328,207.3486667,0.1348576667
281.8,1.541597,206.8683333,0.127953
281.7,0.9939933333,208.0803333,0.1453476667
281.6,1.413154,207.389,0.135438
281.5,0.9019196667,207.719,0.1401736667
281.4,-0.3955453333,207.958,0.1436043333
281.3,1.603303,207.079,0.1309863333
281.2,1.023069,207.7803333,0.1410483333
281.1,0.88973939,207.5943333,0.1383836667
281,0.5099733333,207.4596667,0.1364563333
280.9,0.6789827333,207.2583333,0.1335553333
280.8,0.604677,207.4246667,0.135931
280.7,0.4974666667,207.5226667,0.1373563333
280.6,0.6793753333,207.8463333,0.1420033333
280.5,0.3833426667,207.0853333,0.1310606667
280.4,0.905722,207.656,0.1392733333
280.3,1.77487,206.7903333,0.126807
280.2,0.2834326667,207.6713333,0.13949
280.1,0.6787716667,207.525,0.137395
280,1.340554,207.6353333,0.1389756667
279.9,1.063413333,207.8723333,0.1423666667
279.8,1.799087667,207.7936667,0.1412463333
279.7,1.863725333,208.5583333,0.1521863333
279.6,1.535042333,207.5673333,0.1380013333
279.5,0.5627723333,207.4683333,0.1365763333
279.4,0.28159,207.4303333,0.1360303333
279.3,1.726418333,207.753,0.1406553333
279.2,0.3934259633,207.537,0.1375683333
279.1,0.5622826667,207.4806667,0.1367536667
279,0.5329433333,207.6516667,0.1392083333
278.9,0.07281866667,207.4933333,0.1369033333
278.8,1.313410667,207.4343333,0.13609
278.7,0.7513076667,207.5826667,0.1382086667
278.6,0.41088,207.6986667,0.1398816667
278.5,1.191778333,207.503,0.137066
278.4,1.450096,207.4183333,0.1358496667
278.3,0.7416256667,207.9133333,0.142964
278.2,0.826985,207.6246667,0.138807
278.1,0.5099301,208.198,0.1470416667
278,0.2393457667,208.022,0.1445216667
277.9,2.232342,207.8543333,0.142119
277.8,0.7660945,207.7226667,0.140225
277.7,1.144903367,207.8896667,0.1426216667
277.6,0.6317233333,207.33,0.1345893333
277.5,1.197045,207.889,0.142612
277.4,2.108593333,207.727,0.1402866667
277.3,0.5227773333,207.292,0.1340313333
277.2,0.1372693667,207.0823333,0.1310323333
277.1,0.3650378,207.5393333,0.1375993333
277,0.3947863333,207.409,0.1357313333
276.9,1.138097333,208.1896667,0.1469136667
276.8,1.494678667,207.892,0.1426543333
276.7,0.4080321333,208.051,0.1449336667
276.6,0.768452,207.874,0.1423953333
276.5,0.527738,207.811,0.1414973333
276.4,0.8189876667,207.2566667,0.1335393333
276.3,0.2381013333,207.7783333,0.1410063333
276.2,0.17866,207.8053333,0.1414133333
276.1,0.5884932333,207.3786667,0.135296
276,1.662751667,207.9003333,0.1427733333
275.9,0.9947743333,207.778,0.1410186667
275.8,-0.918269,207.861,0.142198
275.7,0.183909,208.1933333,0.1469663333
275.6,0.799238,207.7393333,0.1404636667
275.5,1.204319333,206.9803333,0.1295686667
275.4,0.9163586667,207.6216667,0.138775
275.3,0.3370913333,207.7713333,0.140924
275.2,1.742353333,207.8143333,0.1415413333
275.1,0.4409613333,208.3456667,0.149151
275,1.47919,207.5183333,0.137297
274.9,1.056119667,208.107,0.1457363333
274.8,0.481559,208.0133333,0.1443926667
274.7,1.409348667,207.8856667,0.1425633333
274.6,0.8677473333,207.8763333,0.142428
274.5,1.65817,207.5183333,0.1372976667
274.4,0.1891757013,207.415,0.1358036667
274.3,0.755825,207.8923333,0.1426636667
274.2,1.708606667,207.6276667,0.1388633333
274.1,1.082471333,207.78,0.14101
274,-0.3743587667,207.2803333,0.133879
273.9,1.155097133,208.1016667,0.145661
273.8,1.394397667,207.6213333,0.1387743333
273.7,0.9212,208.031,0.1446446667
273.6,0.695684,207.4386667,0.136145
273.5,0.4423766667,207.7543333,0.140683
273.4,0.1043123667,207.2843333,0.133937
273.3,1.332844,208.103,0.1456776667
273.2,0.3705810667,207.649,0.139171
273.1,0.8113013333,208.2056667,0.1471483333
273,-0.09062333333,207.9686667,0.143748
272.9,1.109029333,207.892,0.1426556667
272.8,0.7418976667,208.0593333,0.1450486667
272.7,0.5472282667,207.9676667,0.1437283333
272.6,0.9964753333,207.9516667,0.14351
272.5,1.083994333,207.4873333,0.1368456667
272.4,0.09225733333,207.851,0.1420696667
272.3,1.17658,207.4683333,0.136581
272.2,0.2421766667,207.8096667,0.1414596667
272.1,0.7469913333,208.2846667,0.1482766667
272,1.260316567,207.9776667,0.1438793333
271.9,0.792933,208.0696667,0.1452006667
271.8,0.8267656667,208.0733333,0.1452416667
271.7,-0.1446673333,207.9226667,0.1430953333
271.6,1.058828667,208.0686667,0.1451783333
271.5,0.250163,207.737,0.1404153333
271.4,0.5073353333,207.823,0.141663
271.3,0.7381506667,207.7686667,0.140887
271.2,-0.287027,208.1583333,0.1464746667
271.1,0.6657936667,208.102,0.1456663333
271,0.1251626667,207.8456667,0.1419693333
270.9,1.452158667,208.205,0.1471343333
270.8,0.2294236667,207.4426667,0.1362053333
270.7,1.454849133,208.0313333,0.1446523333
270.6,0.32743,207.915,0.1429673333
270.5,0.5325526667,208.2703333,0.1480656667
270.4,0.7102453333,207.6123333,0.1386413333
270.3,0.8383886667,208.097,0.1455973333
270.2,0.7055723333,208.1306667,0.1460796667
270.1,0.531829,208.1786667,0.1467603333
270,1.063745,208.4333333,0.1504033333
269.9,-0.1722753333,207.7046667,0.1399693333
269.8,-0.3692086667,207.8393333,0.1419053333
269.7,0.4690053333,207.5106667,0.137184
269.6,0.6653213333,208.423,0.1502556667
269.5,0.6021462833,207.991,0.1440726667
269.4,1.368960333,208.304,0.1485553333
269.3,0.4459936667,208.2526667,0.147821
269.2,0.47849,208.1646667,0.1465633333
269.1,-0.2310966667,207.797,0.1412963333
269,0.680858,208.4153333,0.150132
268.9,-0.1874706667,208.7153333,0.1544363333
268.8,-0.188393,208.3993333,0.149922
268.7,-0.1662066,208.5606667,0.152228
268.6,1.335526333,208.4583333,0.1507593333
268.5,0.2290206667,208.4256667,0.1502953333
268.4,0.014713,208.0566667,0.145001
268.3,0.3724696667,208.508,0.1514716667
268.2,1.150122,208.271,0.1480833333
268.1,0.7013353333,208.708,0.154329
268,-0.5899513333,208.2643333,0.1479873333
267.9,-0.04451766667,208.2843333,0.1482733333
267.8,0.3294621667,208.173,0.146676
267.7,2.48733,208.3766667,0.1495963333
267.6,0.4739672667,208.623,0.1531196667
267.5,0.6388636667,208.2386667,0.147616
267.4,0.653952,207.687,0.1396773333
267.3,1.318672,208.336,0.1490146667
267.2,0.1373981333,209.4406667,0.1647823333
267.1,0.9539886667,208.7206667,0.1545086667
267,-0.01828633333,208.4196667,0.150213
266.9,1.014527667,208.2566667,0.147865
266.8,0.6370686667,208.508,0.1514783333
266.7,0.0173735,208.4056667,0.1500066667
266.6,-0.3312856667,208.0556667,0.1449926667
266.5,1.157969333,208.5963333,0.1527303333
266.4,1.124964667,208.4646667,0.150853
266.3,0.8306723333,208.845,0.156283
266.2,-0.3223703333,209.08,0.1596353333
266.1,0.1620086667,209.034,0.1589846667
266,-0.1839266667,208.5996667,0.1527846667
265.9,0.08697983333,208.9213333,0.1573773333
265.8,0.2860293333,208.816,0.155875
265.7,0.4686959,208.9006667,0.1570813333
265.6,1.049202333,208.7226667,0.1545406667
265.5,0.2788376667,209.444,0.1648206667
265.4,-1.086419667,209.5673333,0.1665873333
265.3,2.068914,209.0266667,0.1588766667
265.2,-0.07403266667,208.8553333,0.1564373333
265.1,0.7519516667,209,0.1584896667
265,1.65827,209.7453333,0.169117
264.9,-0.01095403333,208.9733333,0.1581106667
264.8,0.4560583333,208.825,0.1560043333
264.7,1.059535333,209.315,0.1629883333
264.6,1.232081667,209.061,0.1593746667
264.5,0.381482,209.4503333,0.164915
264.4,0.8063783333,209.4146667,0.1644116667
264.3,-0.2615042667,209.242,0.1619536667
264.2,0.1333096667,209.904,0.1713716667
264.1,-0.8231796667,209.396,0.1641406667
264,0.445135,210.1053333,0.1742363333
263.9,1.758996667,209.1443333,0.16056
263.8,0.3339186667,209.3433333,0.1633923333
263.7,0.454811,209.5503333,0.1663433333
263.6,0.0503238,209.7166667,0.1687126667
263.5,0.965271,209.5493333,0.1663263333
263.4,-0.2697038,208.607,0.1528816667
263.3,-0.2907162,209.2123333,0.161507
263.2,0.768616,210.2383333,0.176121
263.1,0.271799,209.7683333,0.1694523333
263,1.221172667,209.2763333,0.1624396667
262.9,0.6377343333,209.515,0.1658366667
262.8,-0.167551,210.4363333,0.178939
262.7,-0.1116613333,209.5656667,0.166566
262.6,0.3377423333,209.049,0.159201
262.5,0.5488095667,209.252,0.1620886667
262.4,0.83836,209.8103333,0.1700483333
262.3,0.8906823333,210.0443333,0.1733696667
262.2,0.5272923333,210.0903333,0.174027
262.1,0.496723,209.5553333,0.166408
262,0.23899,209.8473333,0.1705746667
261.9,1.432971,209.902,0.1713486667
261.8,1.914216667,209.889,0.1711666667
261.7,-1.169149667,209.9933333,0.1726483333
261.6,1.65576,209.7153333,0.1686783333
261.5,1.406068,209.471,0.1652146667
261.4,1.412253333,210.3926667,0.1783233333
261.3,1.111381667,210.3026667,0.1770333333
261.2,-0.272881,209.9103333,0.1714636667
261.1,-0.1072066667,210.7223333,0.182991
261,1.12292,209.9856667,0.1725366667
260.9,1.226872,209.6086667,0.16717
260.8,0.04203366667,210.3883333,0.178253
260.7,0.9014523333,210.1756667,0.175227
260.6,0.04707193333,209.8543333,0.1706703333
260.5,-0.154009,210.0016667,0.172756
260.4,0.335298,210.0836667,0.17393
260.3,0.587213,210.046,0.173386
260.2,1.035491,209.7936667,0.1698076667
260.1,0.4519086667,209.9153333,0.1715386667
260,0.384517,210.2603333,0.1764363333
259.9,0.360645,210.596,0.1811953333
259.8,-0.046269,210.7063333,0.182764
259.7,0.3961996667,210.7276667,0.183066
259.6,1.005257167,209.822,0.1702026667
259.5,-0.078126,210.4096667,0.1785626667
259.4,0.7433981667,210.855,0.1848716667
259.3,1.063892667,209.9026667,0.1713623333
259.2,-0.7062416667,210.8876667,0.185328
259.1,0.1621529667,210.759,0.1835123333
259,0.3751256667,210.945,0.1861493333
258.9,0.5657756667,210.2283333,0.1759806667
258.8,0.2837992333,210.5156667,0.180069
258.7,0.1911020667,210.906,0.18559
258.6,0.4518936667,211.2283333,0.19016
258.5,0.2094631333,210.853,0.1848503333
258.4,0.534228,210.3516667,0.177739
258.3,-0.2541663333,211.733,0.1972796667
258.2,-0.7537333333,211.5796667,0.1951196667
258.1,-0.180431,210.5636667,0.1807466667
258,-0.2103003333,211.0793333,0.1880486667
257.9,0.6246333333,210.746,0.1833236667
257.8,-0.6929195667,210.7693333,0.183661
257.7,0.443135,210.838,0.184637
257.6,0.288345,210.57,0.1808333333
257.5,0.9026733333,211.3303333,0.191602
257.4,-0.3015546667,211.067,0.187863
257.3,0.1397016667,211.663,0.196303
257.2,0.000496,211.6636667,0.1963146667
257.1,0.71746889,211.0706667,0.1879233333
257,0.0455555,210.39,0.178277
256.9,1.1260104,211.485,0.193775
256.8,0.7321633333,211.8333333,0.1987026667
256.7,0.4019174667,211.3883333,0.1924173333
256.6,0.5896493333,211.2453333,0.1903906667
256.5,1.067733667,211.0413333,0.1875106667
256.4,-0.06447,211.059,0.187761
256.3,1.200811333,212.0023333,0.2010703333
256.2,0.6407698667,212.3846667,0.206447
256.1,-0.3296113333,211.3453333,0.1917983333
256,-0.2494703333,211.778,0.1979013333
255.9,-0.052231,211.5283333,0.1944043333
255.8,0.1986963333,211.8843333,0.199428
255.7,1.375730533,211.5813333,0.1951416667
255.6,0.3738406667,212.1163333,0.202696
255.5,0.158094,212.0383333,0.2015966667
255.4,-0.6121671333,211.6756667,0.196485
255.3,1.4068,211.7446667,0.197452
255.2,0.032195,211.9806667,0.200783
255.1,0.06745666667,211.561,0.1948523333
255,1.654453333,212.3643333,0.2061786667
254.9,0.126643,212.3363333,0.2057956667
254.8,-0.452874,211.794,0.198146
254.7,1.140110133,211.9716667,0.2006506667
254.6,0.07092533333,212.4023333,0.206732
254.5,0.4354783333,212.3693333,0.2062586667
254.4,-0.2987963333,211.494,0.19391
254.3,0.2376376667,212.3223333,0.2056046667
254.2,0.9384933333,211.7473333,0.1974976667
254.1,1.071096667,211.957,0.2004493333
254,-0.7058263333,212.2473333,0.20454
253.9,0.6732896667,211.5656667,0.1949313333
253.8,0.03219733333,212.242,0.2044693333
253.7,0.7874773333,212.5383333,0.2086423333
253.6,1.184017667,212.6176667,0.2097606667
253.5,-0.1385541333,212.2663333,0.204815
253.4,0.16530253,212.3976667,0.2066636667
253.3,0.849397,212.836,0.2128286667
253.2,1.038001667,212.5463333,0.2087546667
253.1,-0.02676313333,212.9866667,0.2149426667
253,0.3061259,212.6513333,0.210232
252.9,0.3601633333,212.652,0.210244
252.8,0.61482,212.371,0.2062746667
252.7,1.276429,212.0213333,0.2013446667
252.6,1.197162333,212.6603333,0.2103613333
252.5,0.73378,212.2396667,0.204428
252.4,1.223588,213.2426667,0.2185336667
252.3,0.5747527,212.4723333,0.207713
252.2,-0.1132944,212.5746667,0.2091506667
252.1,-0.1931396667,212.9886667,0.214976
252,0.1249924667,213.224,0.2182776667
251.9,-0.374072,213.4903333,0.2220033333
251.8,-0.6090973,212.4503333,0.2074006667
251.7,-0.2010403333,212.115,0.2026776667
251.6,0.0742247,213.0226667,0.2154423333
251.5,0.6189476667,212.789,0.2121673333
251.4,0.5519944333,213.9273333,0.2281253333
251.3,-1.0309623,212.4996667,0.2080953333
251.2,0.07090933333,213.3706667,0.2203326667
251.1,0.402348,212.9246667,0.214069
251,1.674496667,213.4526667,0.221483
250.9,-0.4350073333,212.5033333,0.2081406667
250.8,1.335131,213.0446667,0.2157596667
250.7,0.418163,213.0876667,0.2163603333
250.6,-0.1122516667,213.319,0.2196026667
250.5,-0.1730259,213.543,0.2227413333
250.4,0.3099836667,213.5663333,0.2230773333
250.3,0.3800556333,213.338,0.219875
250.2,-0.6646103333,213.3466667,0.219999
250.1,0.067562,213.044,0.215745
250,0.1564072333,213.4223333,0.2210566667
249.9,-0.007953166667,213.9206667,0.228035
249.8,-1.213726667,213.6633333,0.2244346667
249.7,0.101203,213.667,0.2244793333
249.6,1.056394333,213.7776667,0.2260433333
249.5,1.343246333,213.3363333,0.2198316667
249.4,1.626196333,214.1086667,0.2306743333
249.3,-0.3416033333,213.6856667,0.2247566667
249.2,0.06313066667,213.557,0.2229516667
249.1,0.3790533333,213.5043333,0.2222033333
249,-1.136367267,213.311,0.219488
248.9,-0.17141561,214.172,0.2315446667
248.8,1.191188,213.9573333,0.228561
248.7,0.4017343333,213.5403333,0.2227133333
248.6,0.677839,213.6016667,0.2235763333
248.5,0.054613,213.9203333,0.228041
248.4,-0.229747,213.8283333,0.226751
248.3,-0.169641,213.6773333,0.2246356667
248.2,1.089424,214.1656667,0.231472
248.1,-0.03533433333,213.357,0.22014
248,-0.100661,214.129,0.2309516667
247.9,-0.4824695667,213.5933333,0.2234513333
247.8,-0.8036196667,214.2843333,0.2331306667
247.7,-0.6730546667,213.8296667,0.2267726667
247.6,-0.6356390667,214.43,0.2351653333
247.5,-0.3320543667,214.239,0.232495
247.4,-0.4120263333,214.6036667,0.2375783333
247.3,0.09638933333,214.353,0.2340923333
247.2,-0.7850716667,214.2746667,0.2329923333
247.1,-0.2487343,214.081,0.2302886667
247,-0.723093,214.6453333,0.2381796667
246.9,0.1472843333,214.7026667,0.238969
246.8,-0.8774326667,214.671,0.2385323333
246.7,-0.902179,214.77,0.2399073333
246.6,-0.633979,214.608,0.2376503333
246.5,-0.277761,214.894,0.2416346667
246.4,-0.4962303333,215.1266667,0.244883
246.3,-1.934941,215.007,0.2432213333
246.2,-1.184316,215.279,0.2470066667
246.1,-0.7577356667,215.3106667,0.2474503333
246,-0.490254,215.1846667,0.2456953333
245.9,-1.25776,215.5146667,0.2502896667
245.8,-0.4801894667,214.9986667,0.2430973333
245.7,-1.024121667,214.8726667,0.241335
245.6,-2.376143333,215.3863333,0.2485036667
245.5,-1.81601,215.2133333,0.2460913333
245.4,-0.8297331333,215.0996667,0.24451
245.3,-0.9607366667,215.117,0.2447536667
245.2,-1.785886,214.961,0.2425783333
245.1,-1.798302333,215.3623333,0.2481663333
245,-1.903343333,215.4363333,0.249197
244.9,-1.334413333,215.2873333,0.2471196667
244.8,-2.25364,215.5763333,0.2511403333
244.7,-2.365246667,215.8286667,0.254647
244.6,-1.86695,215.453,0.2494023333
244.5,-1.145701667,215.519,0.250342
244.4,-2.18498,215.0913333,0.244394
244.3,-3.043685,215.4876667,0.249918
244.2,-2.37728,215.5283333,0.2504786667
244.1,-2.117830667,216.2346667,0.260291
244,-2.64014,215.6233333,0.2517953333
243.9,-1.975106667,216.508,0.264083
243.8,-1.60291,216.393,0.2624846667
243.7,-2.399043333,216.185,0.259592
243.6,-1.537666667,216.1763333,0.259474
243.5,-2.716483333,215.879,0.25535
243.4,-2.76746,216.478,0.263654
243.3,-3.13083,215.9176667,0.2558933333
243.2,-2.16624,216.2746667,0.260847
243.1,-2.968566667,216.6973333,0.2667046667
243,-2.53048,216.597,0.2653206667
242.9,-3.79201,216.907,0.2696076667
242.8,-2.40992,216.8976667,0.269476
242.7,-3.894016667,216.3096667,0.261326
242.6,-3.12802,217.4106667,0.2765583333
242.5,-2.689466667,217.1783333,0.273365
242.4,-4.19642,217.1306667,0.2727066667
242.3,-4.056606667,217.6506667,0.2798906667
242.2,-4.178786667,217.1263333,0.2726346667
242.1,-4.42726,217.2443333,0.2742733333
242,-4.42299,217.3086667,0.275161
241.9,-5.091203333,217.4356667,0.2769076667
241.8,-4.68321,218.1986667,0.287433
241.7,-5.24425,216.967,0.2704293333
241.6,-4.581963333,217.8883333,0.283167
241.5,-5.82543,218.149,0.2867486667
241.4,-3.901156667,217.7383333,0.2810956667
241.3,-4.407746667,217.8776667,0.283012
241.2,-3.893423333,218.434,0.290681
241.1,-5.083013333,218.2283333,0.287846
241,-5.89735,218.525,0.2919323333
240.9,-6.143466667,218.1036667,0.2861346667
240.8,-6.323323333,218.151,0.286786
240.7,-6.139536667,218.6173333,0.2931983333
240.6,-5.59214,219.0126667,0.2986326667
240.5,-5.62649,219.4526667,0.3046743333
240.4,-5.21483,219.1166667,0.300054
240.3,-6.63931,219.2813333,0.3023186667
240.2,-6.201416667,219.4396667,0.3044973333
240.1,-6.261973333,219.1736667,0.300838
240,-5.809803333,219.8396667,0.3099713333
239.9,-6.42596,219.8816667,0.310543
239.8,-7.07661,219.5123333,0.3054693333
239.7,-8.06776,219.908,0.310913
239.6,-6.63139,219.2096667,0.3013366667
239.5,-7.776246667,220.8643333,0.323968
239.4,-7.416463333,220.9683333,0.3253773333
239.3,-8.63059,219.7663333,0.308956
239.2,-8.784016667,220.781,0.322827
239.1,-9.056073333,220.572,0.3199773333
239,-7.968323333,220.6573333,0.3211146667
238.9,-10.02521667,221.3503333,0.3305886667
238.8,-8.901773333,221.3736667,0.3309066667
238.7,-10.65211667,220.912,0.3246183333
238.6,-8.434816667,221.4083333,0.3313703333
238.5,-10.39962,222.0013333,0.3394373333
238.4,-9.666183333,221.3593333,0.3307136667
238.3,-9.753043333,221.3286667,0.330299
238.2,-9.4133,222.0366667,0.3399246667
238.1,-10.03078667,222.4283333,0.3452323333
238,-11.6225,222.149,0.341439
237.9,-11.18590333,222.5513333,0.3468963333
237.8,-10.96846333,221.682,0.3350966667
237.7,-10.60512,222.3076667,0.3435983333
237.6,-10.94626667,222.9393333,0.352154
237.5,-11.96446667,222.6323333,0.347996
237.4,-11.9318,223.029,0.3533613333
237.3,-13.86116667,223.1563333,0.3550843333
237.2,-12.95176667,223.2923333,0.3569283333
237.1,-11.84396667,222.843,0.3508286667
237,-12.60473333,223.4173333,0.358615
236.9,-14.3268,224.243,0.3697446667
236.8,-13.72756667,223.5983333,0.3610596667
236.7,-13.4128,224.3193333,0.3707696667
236.6,-12.74433333,223.7303333,0.36283
236.5,-14.58926667,224.14,0.368357
236.4,-15.0743,224.4906667,0.3730816667
236.3,-16.0467,224.8893333,0.3784416667
236.2,-16.0704,225.2203333,0.3828833333
236.1,-16.1837,224.9376667,0.3790906667
236,-14.48193333,225.1656667,0.3821493333
235.9,-15.46826667,225.619,0.3882353333
235.8,-15.2532,225.712,0.3894706667
235.7,-17.2225,225.9873333,0.3931603333
235.6,-16.87866667,226.169,0.395588
235.5,-15.93393333,226.1563333,0.395417
235.4,-17.29396667,226.097,0.394632
235.3,-18.36396667,226.6283333,0.4017256667
235.2,-18.03223333,226.16,0.3954756667
235.1,-18.047,226.8596667,0.4048056667
235,-18.88693333,227.165,0.408883
234.9,-20.3208,226.7593333,0.4034736667
234.8,-19.35933333,227.357,0.411439
234.7,-19.721,227.1736667,0.4090046667
234.6,-20.30093333,227.8383333,0.4178403333
234.5,-21.61463333,228.6386667,0.4284423333
234.4,-20.8929,228.4706667,0.426236
234.3,-19.95293333,228.191,0.422528
234.2,-22.66703333,228.5106667,0.42677
234.1,-22.81186667,228.722,0.4295706667
234,-22.60496667,228.8923333,0.4318206667
233.9,-22.36126667,229.0663333,0.4341253333
233.8,-22.4565,229.253,0.4365986667
233.7,-21.8516,229.9303333,0.4455413333
233.6,-22.73713333,229.8316667,0.4442346667
233.5,-22.35906667,229.375,0.4382043333
233.4,-24.1302,229.7803333,0.4435583333
233.3,-25.4093,230.8006667,0.457005
233.2,-23.80103333,230.7613333,0.4564836667
233.1,-24.4522,230.53,0.453437
233,-25.79043333,230.5506667,0.4537173333
232.9,-26.37383333,230.6956667,0.4556196667
232.8,-25.21273333,231.347,0.4641736667
232.7,-26.40973333,231.108,0.4610356667
232.6,-26.9812,231.6446667,0.4680833333
232.5,-27.28773333,231.3426667,0.464126
232.4,-26.5634,231.9423333,0.4719823333
232.3,-25.73403333,232.2496667,0.4760053333
232.2,-28.00106667,232.166,0.474909
232.1,-28.74986667,232.9076667,0.484598
232,-28.5131,232.7496667,0.4825373333
231.9,-28.90766667,232.7993333,0.4831813333
231.8,-28.9359,233.539,0.492835
231.7,-29.6231,233.6933333,0.494837
231.6,-31.16203333,234.503,0.5053473333
231.5,-30.73106667,234.2916667,0.5026186667
231.4,-30.8877,234.5126667,0.5054876667
231.3,-31.2992,234.193,0.5013426667
231.2,-30.93426667,234.3846667,0.5038283333
231.1,-31.72396667,234.9716667,0.5114413333
231,-31.7908,234.9393333,0.5110183333
230.9,-33.6054,235.156,0.513827
230.8,-32.8298,235.3573333,0.5164323333
230.7,-32.70483333,235.617,0.519789
230.6,-35.6113,235.481,0.5180226667
230.5,-33.3589,235.7466667,0.5214606667
230.4,-35.0689,236.0606667,0.5255146667
230.3,-34.12523333,236.096,0.525974
230.2,-35.70103333,235.506,0.5183483333
230.1,-34.46856667,236.7173333,0.533975
230,-37.2062,236.9946667,0.5375553333
229.9,-36.14033333,236.9713333,0.5372553333
229.8,-36.78153333,237.091,0.538798
229.7,-36.05526667,236.4853333,0.530999
229.6,-36.42303333,237.448,0.5433803333
229.5,-38.39036667,237.4673333,0.5436253333
229.4,-39.10956667,237.6213333,0.5456056667
229.3,-38.55373333,237.929,0.5495573333
229.2,-38.3689,237.8703333,0.5488043333
229.1,-38.70626667,238.2716667,0.5539473333
229,-40.2481,238.8756667,0.5616676667
228.9,-39.11983333,239.1413333,0.5650673333
228.8,-40.25183333,238.6586667,0.5588903333
228.7,-40.67713333,239.5763333,0.570604
228.6,-40.16343333,240.1553333,0.5779856667
228.5,-41.27683333,239.3503333,0.5677286667
228.4,-40.6544,240.0136667,0.576192
228.3,-41.35746667,240.392,0.5810016667
228.2,-42.1164,240.8133333,0.5863526667
228.1,-42.89506667,241.2353333,0.5917093333
228,-42.29056667,241.829,0.5992193333
227.9,-43.13803333,240.8226667,0.5864653333
227.8,-41.27443333,241.814,0.5990273333
227.7,-45.31043333,242.697,0.610184
227.6,-45.1046,241.9966667,0.601344
227.5,-43.8309,242.2243333,0.6042136667
227.4,-44.69,242.3676667,0.606035
227.3,-45.46156667,242.8123333,0.6116446667
227.2,-44.63383333,243.163,0.6160613333
227.1,-46.8567,243.426,0.619375
227,-45.92853333,243.708,0.622923
226.9,-45.9841,243.8943333,0.6252636667
226.8,-45.9837,244.2036667,0.6291466667
226.7,-46.4861,244.3646667,0.631169
226.6,-47.6281,244.6586667,0.63485
226.5,-46.33856667,244.485,0.632679
226.4,-47.268,244.7486667,0.6359726667
226.3,-47.6891,244.5816667,0.6338866667
226.2,-47.1786,245.3123333,0.643034
226.1,-48.68523333,245.2606667,0.6423663333
226,-49.0711,245.4023333,0.6441513333
225.9,-49.61403333,245.6483333,0.647233
225.8,-49.34713333,246.0366667,0.6520766667
225.7,-50.23213333,246.1776667,0.653823
225.6,-48.68656667,246.4736667,0.657518
225.5,-50.41643333,246.6016667,0.6591196667
225.4,-49.83423333,247.395,0.6689763333
225.3,-51.62803333,246.9996667,0.6640626667
225.2,-48.438,247.683,0.6725453333
225.1,-48.6918,246.9176667,0.6630353333
225,-50.4124,247.8873333,0.6750843333
224.9,-51.22613333,248.446,0.6820036667
224.8,-50.96273333,248.5216667,0.682944
224.7,-49.77436667,248.731,0.6855263333
224.6,-51.9602,249.0333333,0.689258
224.5,-50.41116667,248.9946667,0.6887833333
224.4,-52.2951,249.061,0.68958
224.3,-51.34003333,249.5093333,0.6951386667
224.2,-49.34966667,249.482,0.694803
224.1,-52.46646667,250.4843333,0.7071303333
224,-52.6074,249.9513333,0.700578
223.9,-52.15913333,250.1653333,0.703218
223.8,-52.94933333,250.5983333,0.708536
223.7,-52.99753333,250.7016667,0.7098076667
223.6,-53.0073,251.1096667,0.7148153333
223.5,-52.9897,251.0353333,0.7139023333
223.4,-53.2123,251.1136667,0.7148613333
223.3,-52.53583333,251.558,0.7203026667
223.2,-52.74803333,251.97,0.725347
223.1,-52.28846667,251.9356667,0.724931
223,-53.05963333,252.0466667,0.7262883333
222.9,-52.60936667,252.6126667,0.7331976667
222.8,-51.85463333,252.941,0.7372016667
222.7,-52.83413333,252.987,0.7377596667
222.6,-52.78516667,253.6213333,0.7454743333
222.5,-54.0113,253.8153333,0.7478486667
222.4,-54.47336667,253.7853333,0.747484
222.3,-53.34216667,253.7,0.74644
222.2,-54.36746667,254.4126667,0.7551036667
222.1,-53.67123333,254.9063333,0.7610576667
222,-53.3537,255.09,0.7632996667
221.9,-54.32323333,255.062,0.7629653333
221.8,-54.4809,255.473,0.7679413333
221.7,-54.82596667,255.938,0.7735576667
221.6,-55.10036667,256.2416667,0.777219
221.5,-52.1619,256.6696667,0.782379
221.4,-52.1419,256.128,0.7758433333
221.3,-51.95133333,256.6146667,0.781713
221.2,-54.86766667,257.0193333,0.7865873333
221.1,-54.0923,257.7166667,0.7949573333
221,-53.7819,257.475,0.792063
220.9,-53.48393333,258.1016667,0.799585
220.8,-54.09503333,257.9326667,0.797555
220.7,-53.39223333,257.7893333,0.795836
220.6,-53.1481,257.9476667,0.7977386667
220.5,-53.7951,259.0446667,0.8108566667
220.4,-53.6232,259.387,0.814957
220.3,-54.87963333,259.8503333,0.820466
220.2,-54.5647,260.31,0.8259633333
220.1,-55.0664,259.9396667,0.8215433333
220,-53.0833,259.997,0.8222326667
219.9,-53.58063333,260.203,0.8246863333
219.8,-52.6864,260.2713333,0.8254993333
219.7,-53.02926667,260.685,0.8304203333
219.6,-51.31926667,260.9003333,0.832977
219.5,-53.5483,261.3116667,0.83786
219.4,-54.7696,261.799,0.8436393333
219.3,-53.27396667,262.6223333,0.8533713333
219.2,-51.36793333,261.6633333,0.8420313333
219.1,-50.94763333,262.154,0.847846
219,-54.07183333,262.2,0.8483843333
218.9,-53.60686667,262.7513333,0.854908
218.8,-53.94053333,263.3233333,0.861652
218.7,-53.0914,263.5396667,0.864199
218.6,-53.27606667,263.4363333,0.8629873333
218.5,-51.7739,263.759,0.8667916667
218.4,-53.19663333,264.449,0.8748963333
218.3,-53.63183333,264.624,0.8769606667
218.2,-53.74846667,264.1233333,0.871076
218.1,-53.12763333,264.735,0.8782603333
218,-52.68766667,265.0226667,0.881633
217.9,-51.91543333,265.5633333,0.887967
217.8,-52.13016667,265.3693333,0.885699
217.7,-54.6531,265.828,0.891066
217.6,-53.31146667,266.023,0.893349
217.5,-54.44773333,267.0343333,0.9051366667
217.4,-52.54063333,266.8993333,0.9035786667
217.3,-54.6336,267.0483333,0.905314
217.2,-52.8692,267.3893333,0.9092856667
217.1,-53.1186,268.2073333,0.9187966667
217,-52.08923333,267.755,0.913544
216.9,-51.5053,268.5123333,0.9223386667
216.8,-51.92243333,268.433,0.9214153333
216.7,-53.49283333,268.9976667,0.9279603333
216.6,-54.1152,268.783,0.925464
216.5,-53.15326667,269.785,0.9370693333
216.4,-53.88103333,269.827,0.937555
216.3,-53.1808,269.755,0.9367246667
216.2,-52.7663,270.3586667,0.9436833333
216.1,-51.02173333,270.699,0.9476186667
216,-53.02693333,270.5603333,0.9460216667
215.9,-52.6731,271.4646667,0.9564223333
215.8,-53.91826667,271.312,0.954671
215.7,-53.4547,272.0633333,0.9633036667
215.6,-52.78046667,272.0703333,0.9633833333
215.5,-53.52706667,272.4713333,0.967976
215.4,-53.85566667,272.8483333,0.972299
215.3,-52.47106667,272.349,0.9665806667
215.2,-51.1639,273.5556667,0.980388
215.1,-49.91526667,273.399,0.9785946667
215,-52.74166667,272.9496667,0.973457
214.9,-50.0808,273.8913333,0.984222
214.8,-52.12323333,274.3746667,0.9897346667
214.7,-52.61493333,274.9876667,0.9967016667
214.6,-52.69876667,274.7373333,0.993863
214.5,-52.2086,275.0173333,0.9970433333
214.4,-52.918,275.5153333,1.002702333
214.3,-54.72653333,275.562,1.003232333
214.2,-53.35853333,276.8153333,1.01743
214.1,-51.53316667,276.5133333,1.01402
214,-51.3074,277.104,1.0207
213.9,-50.38786667,276.9493333,1.018956667
213.8,-54.9916,277.5473333,1.025706667
213.7,-53.2399,278.049,1.031356667
213.6,-53.20006667,278.2526667,1.033656667
213.5,-53.45083333,278.2306667,1.03341
213.4,-53.57486667,278.4883333,1.036313333
213.3,-54.11176667,279.0393333,1.0425
213.2,-53.66936667,279.854,1.051646667
213.1,-52.75406667,279.99,1.053176667
213,-56.45226667,279.2726667,1.045123333
212.9,-53.47436667,280.18,1.055293333
212.8,-57.17456667,280.9626667,1.064053333
212.7,-51.8134,280.4543333,1.058366667
212.6,-52.63013333,281.3453333,1.068323333
212.5,-54.90646667,281.673,1.071976667
212.4,-57.3024,282.5133333,1.081336667
212.3,-54.3573,282.4123333,1.080213333
212.2,-53.99966667,282.7556667,1.08402
212.1,-56.76536667,283.2886667,1.089946667
212,-55.15363333,284.0186667,1.09804
211.9,-53.4639,284.5356667,1.10376
211.8,-54.82506667,285.1936667,1.111023333
211.7,-54.67516667,285.5223333,1.114653333
211.6,-55.28406667,285.477,1.114146667
211.5,-57.08893333,286.743,1.128083333
211.4,-53.21343333,286.6463333,1.127013333
211.3,-53.20166667,287.057,1.13153
211.2,-55.93333333,287.176,1.132833333
211.1,-56.1127,288.586,1.148273333
211,-57.91486667,288.2513333,1.144616667
210.9,-55.1989,288.295,1.14509
210.8,-58.7721,289.0513333,1.15335
210.7,-56.86506667,290.1366667,1.16517
210.6,-56.06213333,290.1553333,1.16538
210.5,-55.00053333,290.4003333,1.16804
210.4,-59.12946667,290.924,1.173726667
210.3,-55.32193333,291.4843333,1.179803333
210.2,-57.5407,292.058,1.186013333
210.1,-55.11096667,292.616,1.192036667
210,-60.45783333,293.259,1.198966667
209.9,-57.65883333,293.632,1.203006667
209.8,-56.737,294.172,1.20881
209.7,-60.56833333,295.2816667,1.220726667
209.6,-56.96293333,295.1533333,1.21935
209.5,-60.07886667,295.9936667,1.228346667
209.4,-61.25066667,296.2823333,1.231433333
209.3,-54.63073333,296.8473333,1.23746
209.2,-60.3048,297.9023333,1.248713333
209.1,-59.18663333,298.6066667,1.256193333
209,-58.54626667,299.1123333,1.261566667
208.9,-56.58836667,299.46,1.265246667
208.8,-56.4819,300.1,1.27202
208.7,-56.28843333,300.198,1.27305
208.6,-58.53523333,301.145,1.28306
208.5,-57.21596667,301.2833333,1.284506667
208.4,-56.2789,302.1493333,1.293636667
208.3,-60.3824,302.7593333,1.30004
208.2,-54.44076667,304.474,1.318003333
208.1,-57.7331,304.7093333,1.320456667
208,-59.1008,306.1423333,1.335383333
207.9,-55.8069,306.6783333,1.340963333
207.8,-55.53216667,307.355,1.34798
207.7,-54.33746667,307.9476667,1.35412
207.6,-54.60743333,308.7066667,1.361963333
207.5,-53.19746667,309.7003333,1.37222
207.4,-50.86126667,310.1763333,1.377116667
207.3,-58.49466667,309.927,1.37455
207.2,-55.09616667,311.4813333,1.390513333
207.1,-51.92563333,311.948,1.395296667
207,-52.49463333,313.166,1.407756667
206.9,-53.44686667,312.984,1.40589
206.8,-51.3423,313.9503333,1.415746667
206.7,-48.3319,315.2563333,1.429026667
206.6,-51.519,315.3436667,1.42991
206.5,-52.0412,316.8866667,1.445533333
206.4,-48.54673333,317.8516667,1.455276667
206.3,-46.8734,319.1506667,1.46835
206.2,-45.7347,319.6656667,1.473516667
206.1,-46.7338,320.6743333,1.48363
206,-46.40236667,321.16,1.488483333
205.9,-43.8951,322.155,1.49841
205.8,-50.12466667,322.7963333,1.5048
205.7,-46.2573,323.9806667,1.516563333
205.6,-49.42256667,324.8063333,1.52475
205.5,-40.5479,326.1066667,1.5376
205.4,-48.17093333,326.3376667,1.539876667
205.3,-40.6854,327.101,1.547396667
205.2,-38.81953333,329.6666667,1.572566667
205.1,-40.22763333,329.5293333,1.571226667
205,-36.65966667,331.0326667,1.5859
204.9,-39.50273333,332.2176667,1.597426667
204.8,-35.72793333,333.5056667,1.60992
204.7,-38.6243,334.3033333,1.617633333
204.6,-37.0784,335.455,1.628746667
204.5,-32.65216667,336.0843333,1.634803333
204.4,-33.28376667,337.6716667,1.65005
204.3,-35.92816667,338.531,1.658276667
204.2,-30.24293333,339.866,1.671023333
204.1,-33.8641,340.8613333,1.680493333
204,-27.51213333,341.8733333,1.690103333
203.9,-30.96846667,343.2716667,1.703346667
203.8,-30.62063333,344.5266667,1.715186667
203.7,-26.2796,345.7086667,1.726313333
203.6,-21.0645,347.1443333,1.739776667
203.5,-22.3468,348.5563333,1.752976667
203.4,-18.7323,350.1573333,1.76789
203.3,-21.64613333,350.2863333,1.76909
203.2,-20.52783333,352.148,1.786353333
203.1,-20.56426667,353.5453333,1.799256667
203,-16.67606667,354.8843333,1.811586667
202.9,-16.49146667,356.003,1.821856667
202.8,-15.50981,357.3046667,1.83377
202.7,-11.30756333,358.211,1.84205
202.6,-11.23950667,359.5213333,1.853976667
202.5,-13.59796667,360.627,1.864023333
202.4,-11.48134,362.3846667,1.87993
202.3,-3.733331667,363.6993333,1.891783333
202.2,-10.08312667,365.0546667,1.903973333
202.1,-12.14294,366.7066667,1.91877
202,-8.318006667,368.6106667,1.935763333
201.9,-1.285566667,370.0016667,1.948133333
201.8,-1.295833333,372.121,1.9669
201.7,-4.12465,373.4926667,1.978993333
201.6,2.379423333,375.0453333,1.99265
201.5,-1.283071333,376.6283333,2.006513333
201.4,3.08805,377.6966667,2.015846667
201.3,2.615233333,379.858,2.03466
201.2,-1.212366667,381.088,2.04532
201.1,8.23362,382.832,2.060396667
201,9.315906667,384.6503333,2.07605
200.9,7.466733333,386.0233333,2.087823333
200.8,12.7755,387.4866667,2.100343333
200.7,12.62474,389.3246667,2.116006667
200.6,9.901346,391.2613333,2.132443333
200.5,8.701256667,392.816,2.14559
200.4,16.91863333,396.0243333,2.172576667
200.3,14.79616667,396.6506667,2.177826667
200.2,18.40946667,398.34,2.19194
200.1,15.4215,400.45,2.209513333
200,18.98976667,401.7073333,2.219943333
199.9,24.27896667,404.0786667,2.239536667
199.8,20.05356667,406.3623333,2.25832
199.7,23.49496667,408.0803333,2.272386667
199.6,15.95881667,409.4203333,2.283323333
199.5,23.81746667,411.8706667,2.30325
199.4,22.86813333,412.7066667,2.310023333
199.3,24.1687,414.3556667,2.32336
199.2,32.3379,415.485,2.33246
199.1,32.12206667,417.6976667,2.350233333
199,27.84313333,419.9606667,2.36834
198.9,29.5692,421.7013333,2.38221
198.8,31.05083333,424.5,2.404396667
198.7,36.45426667,426.1386667,2.417333333
198.6,35.13543333,428.32,2.43449
198.5,31.53446667,430.6143333,2.45246
198.4,28.73063333,433.0926667,2.471776667
198.3,31.3872,434.9633333,2.486293333
198.2,34.6134,436.7756667,2.500306667
198.1,35.74743333,438.4426667,2.513156667
198,39.34106667,440.4843333,2.528836667
197.9,36.17326667,442.8466667,2.546903333
197.8,40.87626667,444.2793333,2.557826667
197.7,36.5673,446.934,2.577976667
197.6,44.5641,448.5983333,2.590563333
197.5,33.49706667,450.4386667,2.604426667
197.4,28.8091,452.1833333,2.61753
197.3,34.58673333,454.897,2.637826667
197.2,37.5334,456.9243333,2.65292
197.1,35.99143333,458.821,2.666996667
197,39.51523333,461.0463333,2.683436667
196.9,44.00823333,463.2936667,2.69998
196.8,44.34903333,465.3596667,2.715133333
196.7,40.80913333,467.448,2.730386667
196.6,35.57843333,470.0183333,2.749076667
196.5,37.42023333,472.7223333,2.768653333
196.4,46.5124,474.7096667,2.782976667
196.3,41.90083333,476.44,2.795413333
196.2,33.59166667,478.9543333,2.813413333
196.1,29.25573333,481.436,2.831093333
196,32.87356667,484.1903333,2.850636667
195.9,39.1171,485.2636667,2.85822
195.8,46.8553,487.857,2.876496667
195.7,43.54046667,490.9,2.897843333
195.6,32.52786667,491.367,2.901103333
195.5,38.3588,494.1513333,2.920516667
195.4,36.4313,495.7386667,2.931546667
195.3,36.15883333,497.706,2.94517
195.2,36.75173333,499.1233333,2.954956667
195.1,44.15603333,501.0236667,2.968046667
195,29.74553333,502.7906667,2.980173333
194.9,38.14536667,504.752,2.9936
194.8,39.88946667,506.2203333,3.00362
194.7,35.3217,507.9083333,3.015106667
194.6,43.1866,509.4733333,3.025726667
194.5,40.63926667,511.7566667,3.041176667
194.4,39.18643333,513.348,3.05191
194.3,37.12453333,515.8833333,3.068946667
194.2,38.2912,517.4453333,3.07941
194.1,38.44693333,520.02,3.0966
194,36.9034,521.65,3.107443333
193.9,40.30243333,523.9463333,3.12267
193.8,40.3028,526.4356667,3.13912
193.7,35.09853333,528.089,3.150003333
193.6,34.5568,530.4,3.16517
193.5,37.2074,532.1286667,3.17648
193.4,32.15773333,533.2386667,3.183723333
193.3,36.8488,534.3596667,3.191026667
193.2,32.87916667,536.1216667,3.202483333
193.1,32.94466667,537.4863333,3.211336667
193,31.9582,539.5276667,3.224536667
192.9,40.69083333,541.668,3.23833
192.8,31.62916667,542.936,3.24648
192.7,28.3781,544.4143333,3.255966667
192.6,34.86573333,547.182,3.273663333
192.5,30.7438,548.2983333,3.280776667
192.4,36.57636667,551.8916667,3.303603333
192.3,40.5815,553.337,3.31275
192.2,29.62416667,555.116,3.323976667
192.1,26.09816667,556.685,3.333856667
192,37.61326667,558.6576667,3.34624
191.9,29.3226,559.758,3.35313
191.8,30.78463333,561.7626667,3.36566
191.7,28.26316667,563.545,3.376766667
191.6,34.5033,565.244,3.387323333
191.5,36.06293333,566.402,3.394506667
191.4,29.43333333,569.0893333,3.411123333
191.3,30.65026667,570.6396667,3.420676667
191.2,29.153,573.186,3.436326667
191.1,33.32433333,575.5276667,3.450663333
191,24.6054,578.604,3.469423333
190.9,39.59513333,580.7516667,3.48248
190.8,23.6989,582.7986667,3.494876667
190.7,24.31783333,585.0453333,3.508436667
190.6,19.23873333,587.8983333,3.5256
190.5,22.02733333,589.5523333,3.535513333
190.4,22.68456667,591.879,3.549426667
190.3,20.04636667,593.8746667,3.56132
190.2,29.9136,596.325,3.575876667
190.1,19.8079,597.772,3.58445
190,18.8325,599.735,3.59605
,,,
##### Extended Information,,,
[Comments],,,
Sample name,KMGM_Additive&PROTEIN_928,,
Comment,Additive AND PROTEIN,,
User,KYLE MURPHY,,
Division,,,
Company,Saint Mary's College,,
,,,
[Detailed Information],,,
Creation date,9/28/2022 3:27 PM,,
,,,
Data array type,Linear data array * 3,,
Horizontal axis,Wavelength [nm],,
Vertical axis(1),CD [mdeg],,
Vertical axis(2),HT [V],,
Vertical axis(3),Abs,,
Start,320 nm,,
End,190 nm,,
Data interval,0.1 nm,,
Data points,1301,,
,,,
[Measurement Information],,,
Instrument name,J-1500,,
Model name,J-1500,,
Serial No.,B051061638,,
,,,
Detector,PM-539,,
Detector S/N,B051061638,,
Lock-in amp.,X mode,,
HT volt,Auto,,
,,,
Accessory,PTC-517,,
Accessory S/N,B026561646,,
Temperature,27.99 C,,
Control sensor,Holder,,
Monitor sensor,Holder,,
,,,
Measurement date,9/28/2022 3:27 PM,,
,,,
CD Overload detect,997,,
Photometric mode,CD,HT,Abs
Measure range,320 - 190 nm,,
Data pitch,0.1 nm,,
CD scale,20 mdeg/0.05 dOD,,
FL scale,20 mdeg/0.05 dOD,,
D.I.T.,8 msec,,
Bandwidth,2.00 nm,,
Start mode,Immediately,,
Scanning mode,Continuous,,
Scanning speed,200 nm/min,,
Baseline correction,None,,
Shutter control,Auto,,
No. of cycle,1/1,,
N2 Flowmeter,Manual,,
,,,
Solvent,NaPO4 buffer,,