TITLE,KMGM_ADDATIVE&PROTEIN_928
DATA TYPE,
ORIGIN,JASCO
OWNER,
DATE,22/09/28
TIME,15:30:43
SPECTROMETER/DATA SYSTEM,
LOCALE,1033
RESOLUTION,
DELTAX,-0.1
XUNITS,NANOMETERS
YUNITS,CD [mdeg]
Y2UNITS,HT [V]
Y3UNITS,ABSORBANCE
FIRSTX,  320.0000
LASTX,  190.0000
NPOINTS,    1301
FIRSTY,     1.43322
MAXY,    56.68815
MINY,   -62.10860
XYDATA
320.0000,1.43322,206.572,0.123688
319.9000,0.867724,208.966,0.158017
319.8000,2.75492,208.392,0.14981
319.7000,1.47378,207.78,0.141048
319.6000,1.78901,208.827,0.156028
319.5000,1.62081,210.756,0.183476
319.4000,2.95624,208.118,0.145902
319.3000,0.415292,209.867,0.17085
319.2000,-0.28148,208.343,0.149113
319.1000,1.17225,207.765,0.140837
319.0000,1.74683,208.56,0.152224
318.9000,1.58454,208.071,0.145221
318.8000,2.04391,209.069,0.159489
318.7000,2.08443,207.552,0.137781
318.6000,0.310454,208.517,0.151609
318.5000,3.30665,208.222,0.147378
318.4000,3.03261,208.394,0.149842
318.3000,-0.0256679,208.832,0.156109
318.2000,1.31009,208.236,0.147589
318.1000,1.40458,208.291,0.148367
318.0000,1.14962,208.087,0.145448
317.9000,1.83594,209.653,0.167803
317.8000,3.55544,208.847,0.156319
317.7000,1.31434,207.771,0.140918
317.6000,1.583,207.928,0.143175
317.5000,1.77062,208.348,0.149194
317.4000,1.74807,208.286,0.148302
317.3000,1.67311,207.454,0.136382
317.2000,1.47072,208.296,0.148448
317.1000,1.18507,208.135,0.146145
317.0000,1.42381,209.602,0.167077
316.9000,1.45928,209.007,0.158599
316.8000,1.16836,209.092,0.159812
316.7000,1.58786,207.869,0.142331
316.6000,0.475214,208.227,0.147459
316.5000,0.799946,208.036,0.144718
316.4000,2.04932,207.649,0.139179
316.3000,1.55519,208.031,0.144653
316.2000,-0.714516,207.614,0.138675
316.1000,1.90571,208.757,0.155041
316.0000,2.89465,208.208,0.147183
315.9000,2.95611,208.118,0.145902
315.8000,0.755898,208.47,0.150928
315.7000,1.14956,209.397,0.164157
315.6000,2.97667,209.033,0.158971
315.5000,1.95468,208.492,0.151252
315.4000,2.27572,207.958,0.143598
315.3000,1.17836,208.532,0.151819
315.2000,0.856569,208.329,0.148919
315.1000,2.33951,208.594,0.15271
315.0000,2.19298,207.834,0.141827
314.9000,0.291059,208.508,0.151479
314.8000,1.34599,208.038,0.14475
314.7000,1.26964,206.832,0.127441
314.6000,2.88399,208.01,0.144344
314.5000,0.890065,208.359,0.14934
314.4000,-0.878798,208.444,0.150555
314.3000,1.53687,208.336,0.149016
314.2000,0.839281,207.629,0.138886
314.1000,0.397344,208.508,0.151479
314.0000,2.62546,207.796,0.141275
313.9000,2.29733,207.099,0.131271
313.8000,1.28933,207.912,0.142948
313.7000,1.67713,208.227,0.147459
313.6000,2.45541,207.513,0.137228
313.5000,3.13343,207.873,0.14238
313.4000,2.09876,208.149,0.14634
313.3000,-0.0135706,207.781,0.141064
313.2000,2.68695,207.338,0.134707
313.1000,1.30668,207.747,0.140577
313.0000,0.364598,207.775,0.140983
312.9000,-0.0230257,207.806,0.141421
312.8000,1.68472,207.269,0.133713
312.7000,1.10718,207.885,0.142558
312.6000,1.60411,208.151,0.146372
312.5000,1.9849,207.339,0.134723
312.4000,1.72407,207.352,0.134918
312.3000,1.09623,206.843,0.127587
312.2000,0.947486,208.111,0.145789
312.1000,0.0530892,208.071,0.145221
312.0000,2.39773,208.054,0.144977
311.9000,2.69161,207.11,0.131434
311.8000,0.483696,207.995,0.144133
311.7000,2.9414,207.425,0.135959
311.6000,-0.511495,207.43,0.136024
311.5000,0.188753,207.356,0.134967
311.4000,1.35866,207.442,0.136203
311.3000,1.34788,208.725,0.154571
311.2000,1.88457,208.966,0.158017
311.1000,0.205487,208.268,0.148043
311.0000,1.17572,206.928,0.12881
310.9000,1.08765,208.235,0.147573
310.8000,-0.150688,207.316,0.134397
310.7000,1.66687,208.5,0.151366
310.6000,1.11145,207.615,0.138692
310.5000,1.59915,207.828,0.141746
310.4000,1.98601,207.849,0.142039
310.3000,-0.777236,206.719,0.12581
310.2000,1.29548,208.65,0.153503
310.1000,2.43132,208.033,0.144685
310.0000,0.297784,208.611,0.152953
309.9000,2.38445,208.543,0.151981
309.8000,1.58932,208.118,0.145902
309.7000,2.99757,207.175,0.132362
309.6000,0.0218124,208.226,0.147443
309.5000,1.07341,208.225,0.147427
309.4000,0.336129,207.86,0.142201
309.3000,0.656338,208.02,0.14449
309.2000,3.31286,207.077,0.130962
309.1000,2.07966,207.164,0.132216
309.0000,1.62738,208.92,0.157354
308.9000,1.15501,208.011,0.14436
308.8000,2.58033,208.031,0.144653
308.7000,0.578712,207.624,0.138821
308.6000,0.119386,208.399,0.149923
308.5000,1.48645,207.519,0.137309
308.4000,1.13183,207.044,0.130489
308.3000,0.777315,207.402,0.135634
308.2000,0.537835,207.894,0.142688
308.1000,2.31074,208.531,0.151803
308.0000,2.09686,207.626,0.138838
307.9000,1.86801,208.053,0.144961
307.8000,0.767168,207.147,0.131971
307.7000,1.17747,208.296,0.148448
307.6000,1.32554,208.358,0.149324
307.5000,1.80897,207.645,0.139114
307.4000,1.95632,207.47,0.13661
307.3000,0.825224,207.882,0.14251
307.2000,1.29337,206.897,0.12837
307.1000,0.713787,207.816,0.141568
307.0000,1.33135,207.641,0.139065
306.9000,0.934361,207.297,0.13412
306.8000,2.35774,208.006,0.144296
306.7000,1.83533,207.391,0.135471
306.6000,3.43906,207.737,0.14043
306.5000,2.80063,207.35,0.134885
306.4000,2.5469,207.626,0.138838
306.3000,1.0315,207.338,0.134707
306.2000,2.31035,206.613,0.124276
306.1000,1.27155,207.23,0.13316
306.0000,0.991046,207.5,0.137033
305.9000,1.25785,208.126,0.146016
305.8000,1.06159,207.315,0.134381
305.7000,1.21633,207.884,0.142542
305.6000,1.978,207.457,0.136415
305.5000,2.07178,207.895,0.142705
305.4000,0.342319,206.906,0.1285
305.3000,0.455027,208.134,0.146129
305.2000,1.16268,208.248,0.147751
305.1000,1.28551,206.564,0.123574
305.0000,1.56596,209.152,0.160668
304.9000,2.48879,206.814,0.12718
304.8000,0.822399,206.821,0.127278
304.7000,2.24888,206.772,0.126576
304.6000,1.33607,206.989,0.12969
304.5000,1.80604,207.054,0.130636
304.4000,-0.0610089,207.42,0.135894
304.3000,2.06365,208.277,0.148173
304.2000,1.69726,208.39,0.149794
304.1000,1.0864,208.881,0.156804
304.0000,2.59422,207.505,0.137114
303.9000,1.90455,208.857,0.156465
303.8000,2.49611,208.84,0.156222
303.7000,2.30286,208.087,0.145448
303.6000,1.9479,206.89,0.128272
303.5000,2.31249,207.394,0.13552
303.4000,1.0686,207.377,0.135276
303.3000,1.60761,209.123,0.160264
303.2000,1.2407,207.415,0.135813
303.1000,0.0946265,206.96,0.129283
303.0000,0.168456,207.03,0.130277
302.9000,2.05462,207.518,0.137293
302.8000,-0.533206,207.308,0.134283
302.7000,1.59499,207.944,0.143403
302.6000,0.716078,209.009,0.158632
302.5000,2.33264,207.313,0.134348
302.4000,2.57782,208.092,0.145529
302.3000,1.28996,206.549,0.123362
302.2000,0.778034,206.805,0.12705
302.1000,2.7738,206.387,0.121027
302.0000,1.89037,207.326,0.134544
301.9000,2.29906,207.134,0.131776
301.8000,1.76502,206.76,0.126397
301.7000,0.322045,207.05,0.13057
301.6000,-0.938815,208.463,0.150831
301.5000,1.49908,207.466,0.136545
301.4000,1.06655,206.948,0.129104
301.3000,-0.192428,206.963,0.129315
301.2000,0.982397,208.742,0.154814
301.1000,2.17935,206.795,0.126903
301.0000,1.44433,206.815,0.127196
300.9000,-0.954883,206.513,0.122839
300.8000,0.44494,207.609,0.138594
300.7000,1.36942,207.436,0.136122
300.6000,1.9527,207.425,0.135959
300.5000,0.955846,206.999,0.129837
300.4000,0.918568,207.15,0.132004
300.3000,2.37168,206.218,0.118592
300.2000,1.50143,207.399,0.135585
300.1000,2.14393,207.511,0.137195
300.0000,0.746852,207.035,0.130359
299.9000,0.719119,207.028,0.130261
299.8000,1.00949,207.47,0.13661
299.7000,2.14563,206.688,0.125369
299.6000,0.883858,207.878,0.142461
299.5000,0.350263,207.041,0.13044
299.4000,0.623579,207.212,0.132899
299.3000,2.03475,207.686,0.139699
299.2000,2.4342,207.284,0.133941
299.1000,0.437449,205.98,0.115157
299.0000,1.44228,207.782,0.14108
298.9000,1.52953,208.261,0.147946
298.8000,2.30117,208.377,0.149599
298.7000,-0.0441511,206.843,0.127587
298.6000,1.45147,206.814,0.12718
298.5000,2.00386,206.583,0.123851
298.4000,0.18961,207.534,0.137521
298.3000,0.292399,207.655,0.13926
298.2000,1.41025,206.266,0.119278
298.1000,3.87537,207.428,0.136008
298.0000,0.886743,208.06,0.145058
297.9000,0.0736863,207.099,0.131271
297.8000,2.12082,207.747,0.140577
297.7000,-0.128948,208.314,0.148708
297.6000,2.02714,205.682,0.110851
297.5000,1.40705,206.194,0.118248
297.4000,0.872265,207.283,0.133925
297.3000,1.49847,208.012,0.144377
297.2000,0.153708,206.835,0.127473
297.1000,2.98645,207.211,0.132883
297.0000,0.297953,207.97,0.143776
296.9000,1.28546,206.281,0.119491
296.8000,0.105317,206.943,0.129039
296.7000,2.45593,206.858,0.127816
296.6000,1.56302,207.44,0.136171
296.5000,1.65925,207.84,0.141909
296.4000,0.808381,207.162,0.132183
296.3000,0.817807,208.118,0.145902
296.2000,2.18254,206.902,0.128436
296.1000,-0.0336947,207.38,0.135309
296.0000,1.65523,206.839,0.127539
295.9000,1.90265,208.232,0.147524
295.8000,1.54949,207.077,0.130962
295.7000,1.24801,206.994,0.129772
295.6000,0.540508,207.21,0.132867
295.5000,1.53344,206.303,0.119817
295.4000,1.25315,206.988,0.129674
295.3000,-0.407586,207.136,0.131808
295.2000,1.79269,206.123,0.117218
295.1000,2.09604,207.249,0.133437
295.0000,-0.565859,205.795,0.112473
294.9000,-0.575018,207.018,0.130114
294.8000,1.05092,206.233,0.118804
294.7000,1.58897,207.12,0.13158
294.6000,-0.812555,208.249,0.147767
294.5000,0.378275,206.963,0.129315
294.4000,1.28888,207.103,0.131336
294.3000,1.52188,206.344,0.120406
294.2000,2.30482,205.558,0.109049
294.1000,1.86782,206.984,0.129625
294.0000,2.11282,207.309,0.1343
293.9000,0.65252,207.115,0.131499
293.8000,0.779647,206.665,0.125027
293.7000,1.2396,207.036,0.130375
293.6000,1.32137,207.543,0.137651
293.5000,1.01598,206.941,0.129006
293.4000,1.73939,207.156,0.132102
293.3000,2.11804,208.169,0.146632
293.2000,1.00362,206.625,0.124455
293.1000,0.370881,207.332,0.134625
293.0000,3.75937,206.154,0.11766
292.9000,1.9845,206.289,0.119605
292.8000,2.31211,207.294,0.134072
292.7000,2.22087,206.819,0.127245
292.6000,1.53167,205.93,0.114437
292.5000,2.12647,207.133,0.131759
292.4000,0.410831,205.951,0.114732
292.3000,1.30719,207.12,0.13158
292.2000,1.67558,205.915,0.114208
292.1000,0.325581,207.445,0.136252
292.0000,2.23236,207.236,0.133242
291.9000,0.952705,205.987,0.115255
291.8000,0.741482,207.924,0.14311
291.7000,2.95515,206.409,0.121337
291.6000,1.21785,206.797,0.126935
291.5000,1.52409,206.831,0.127424
291.4000,0.518254,205.975,0.115075
291.3000,1.09848,206.87,0.127979
291.2000,1.12176,206.291,0.119638
291.1000,1.99085,206.462,0.122104
291.0000,0.563918,205.887,0.113815
290.9000,1.15157,206.116,0.11712
290.8000,0.278875,205.687,0.110917
290.7000,0.350808,206.903,0.128452
290.6000,0.653949,206.525,0.123019
290.5000,0.292992,207.571,0.138057
290.4000,0.680947,206.986,0.129658
290.3000,1.76867,207.026,0.130228
290.2000,0.694054,207.26,0.133583
290.1000,0.0788943,207.051,0.130587
290.0000,2.33269,207.291,0.134039
289.9000,-0.340635,206.375,0.120847
289.8000,1.88646,207.729,0.140317
289.7000,0.334347,207.013,0.130033
289.6000,0.50668,206.694,0.125451
289.5000,1.21072,206.767,0.126495
289.4000,1.23097,206.942,0.129022
289.3000,1.02018,207.417,0.135846
289.2000,1.37487,207.067,0.130815
289.1000,1.3364,205.978,0.115125
289.0000,0.586574,207.014,0.130049
288.9000,1.39441,207.033,0.130326
288.8000,1.48281,207.06,0.130717
288.7000,-1.07939,207.609,0.138594
288.6000,1.62089,206.945,0.129055
288.5000,0.867679,206.63,0.124521
288.4000,1.72014,206.855,0.127767
288.3000,0.220188,207.152,0.132037
288.2000,-1.69844,206.852,0.127718
288.1000,0.7391,207.201,0.132737
288.0000,2.48946,207.686,0.139699
287.9000,2.97939,206.687,0.125353
287.8000,0.919459,207.226,0.133095
287.7000,0.877358,206.303,0.119817
287.6000,0.99492,207.96,0.14363
287.5000,-0.251378,207.12,0.13158
287.4000,1.09549,207.559,0.137879
287.3000,2.28434,207.178,0.132411
287.2000,2.22043,207.263,0.133632
287.1000,1.98513,206.878,0.128093
287.0000,0.594007,207.998,0.144182
286.9000,0.867491,207.551,0.137765
286.8000,2.25048,208.039,0.144766
286.7000,1.96723,206.828,0.127376
286.6000,1.06544,207.995,0.144133
286.5000,-0.781615,206.99,0.129707
286.4000,2.03906,207.623,0.138805
286.3000,1.37454,207.274,0.133795
286.2000,1.11699,207.616,0.138708
286.1000,0.923677,207.369,0.135162
286.0000,0.156563,207.167,0.132248
285.9000,0.504294,207.498,0.137
285.8000,0.868594,207.295,0.134088
285.7000,0.504618,207.493,0.136935
285.6000,1.26886,208.27,0.148075
285.5000,0.272885,207.457,0.136415
285.4000,-0.618396,207.524,0.137374
285.3000,0.999588,206.852,0.127718
285.2000,0.25886,206.839,0.127539
285.1000,0.503659,207.896,0.142721
285.0000,0.806514,207.479,0.13674
284.9000,1.24088,206.868,0.127946
284.8000,0.228533,206.679,0.125239
284.7000,1.61376,207.738,0.140447
284.6000,0.161563,207.878,0.142461
284.5000,1.22856,206.698,0.1255
284.4000,0.921114,206.972,0.129446
284.3000,0.509881,207.726,0.140284
284.2000,1.03422,207.248,0.133421
284.1000,1.18022,207.448,0.136285
284.0000,-0.233831,207.751,0.140642
283.9000,-0.0809884,207.384,0.135374
283.8000,-1.04784,207.149,0.131988
283.7000,0.785395,207.775,0.140983
283.6000,0.307489,207.373,0.135211
283.5000,0.700099,206.061,0.116319
283.4000,-0.342742,206.999,0.129837
283.3000,-0.530124,208.016,0.144442
283.2000,1.85289,208.21,0.147216
283.1000,1.30509,207.971,0.143792
283.0000,1.32019,207.066,0.130799
282.9000,1.82951,208.297,0.148465
282.8000,1.43695,206.938,0.128957
282.7000,1.34509,207.119,0.131564
282.6000,1.04443,208.449,0.150636
282.5000,0.854119,207.768,0.140886
282.4000,1.16546,206.679,0.125239
282.3000,-0.024723,208.319,0.148773
282.2000,0.719914,207.845,0.14199
282.1000,0.504513,207.262,0.133616
282.0000,0.578905,207.512,0.137212
281.9000,1.63374,206.937,0.128941
281.8000,2.46778,207.692,0.139797
281.7000,0.441414,207.502,0.137066
281.6000,1.92674,207.577,0.138139
281.5000,-0.370936,207.695,0.139829
281.4000,-1.11225,208.348,0.149194
281.3000,3.67916,207.384,0.135374
281.2000,0.567861,208.629,0.153212
281.1000,-0.00548183,207.737,0.14043
281.0000,0.167245,207.718,0.140171
280.9000,0.0248652,207.213,0.132916
280.8000,-0.228138,208.354,0.149275
280.7000,1.55087,207.362,0.135048
280.6000,-0.471756,208.295,0.148432
280.5000,0.847726,207.785,0.141129
280.4000,0.142829,208.123,0.145967
280.3000,2.06843,205.341,0.105917
280.2000,0.926677,207.303,0.134202
280.1000,1.73055,207.792,0.141227
280.0000,1.17767,207.195,0.132655
279.9000,1.57242,207.835,0.141844
279.8000,0.719623,208.117,0.145886
279.7000,3.11473,208.127,0.146032
279.6000,1.83832,207.237,0.133258
279.5000,1.5789,207.366,0.135113
279.4000,0.905427,207.988,0.144036
279.3000,0.874175,207.322,0.134479
279.2000,-0.552366,207.407,0.135699
279.1000,1.47557,207.129,0.131711
279.0000,-1.40665,207.406,0.135683
278.9000,-0.436344,209.018,0.158761
278.8000,0.539602,206.861,0.127848
278.7000,0.710274,208.442,0.150539
278.6000,-1.26607,208.03,0.144636
278.5000,1.79842,206.827,0.127359
278.4000,1.25355,206.819,0.127245
278.3000,0.597467,207.854,0.14212
278.2000,1.7658,206.818,0.127229
278.1000,0.0388723,207.955,0.143565
278.0000,-0.0369847,207.733,0.140382
277.9000,4.44173,207.938,0.143322
277.8000,-0.0421745,208.243,0.147686
277.7000,0.0791201,207.572,0.138074
277.6000,2.35815,207.63,0.138903
277.5000,0.714725,208.077,0.145302
277.4000,2.24323,207.335,0.134674
277.3000,-0.176144,206.323,0.120095
277.2000,-1.1689,206.477,0.122317
277.1000,0.933125,207.369,0.135162
277.0000,0.526217,207.42,0.135894
276.9000,2.18899,208.486,0.151155
276.8000,2.31223,207.788,0.141162
276.7000,-0.0622887,208.113,0.145821
276.6000,-0.171534,207.891,0.14264
276.5000,0.314194,207.76,0.140772
276.4000,1.41237,207.379,0.135292
276.3000,1.71162,208.308,0.148611
276.2000,0.542921,207.397,0.135553
276.1000,-0.0083003,207.682,0.13965
276.0000,1.32727,207.955,0.143565
275.9000,0.109533,207.073,0.130896
275.8000,-0.266926,207.189,0.132574
275.7000,0.247287,208.806,0.155737
275.6000,1.726,207.181,0.13246
275.5000,2.08909,206.619,0.124374
275.4000,0.655981,207.356,0.134967
275.3000,-0.133913,208.337,0.149032
275.2000,1.61295,207.683,0.139667
275.1000,0.638154,208.705,0.154296
275.0000,2.06528,207.687,0.139715
274.9000,1.49474,207.724,0.140252
274.8000,-0.602277,208.531,0.151803
274.7000,1.83128,207.655,0.13926
274.6000,0.701213,208.335,0.149
274.5000,2.25567,207.798,0.141308
274.4000,-0.554721,207.903,0.142818
274.3000,0.737719,207.75,0.140625
274.2000,1.12158,207.255,0.133518
274.1000,1.18053,209.262,0.162235
274.0000,-0.876681,206.851,0.127702
273.9000,2.22376,208.319,0.148773
273.8000,0.176673,207.44,0.136171
273.7000,-1.50486,208.428,0.150329
273.6000,1.50591,207.509,0.137163
273.5000,1.1672,207.893,0.142672
273.4000,-1.14239,207.798,0.141308
273.3000,2.02216,207.731,0.140349
273.2000,0.0268872,207.246,0.133388
273.1000,-0.350727,208.582,0.152532
273.0000,0.180103,208.631,0.153228
272.9000,0.175766,207.789,0.141178
272.8000,0.936202,207.256,0.133534
272.7000,0.440931,208.239,0.147622
272.6000,0.540223,208.055,0.144993
272.5000,1.80681,207.183,0.132476
272.4000,0.655666,207.533,0.137505
272.3000,1.18487,207.163,0.132199
272.2000,-1.23825,208.825,0.156012
272.1000,0.423957,208.058,0.145042
272.0000,1.4246,208.487,0.151171
271.9000,-0.342195,208.566,0.152305
271.8000,0.354837,207.205,0.132802
271.7000,-0.424102,208.431,0.150377
271.6000,-0.106564,207.474,0.136659
271.5000,0.216552,208.773,0.155267
271.4000,1.47446,207.967,0.143728
271.3000,-1.1296,207.262,0.133616
271.2000,-0.247987,208.254,0.147848
271.1000,0.528237,207.917,0.143013
271.0000,-0.546341,208.789,0.155494
270.9000,0.696646,207.836,0.14186
270.8000,0.151851,207.916,0.142997
270.7000,1.61823,208.2,0.14707
270.6000,1.86727,208.33,0.148935
270.5000,0.507472,208.036,0.144718
270.4000,1.79574,207.841,0.141925
270.3000,1.66632,207.817,0.141584
270.2000,1.02366,208.192,0.146956
270.1000,1.25737,208.436,0.150442
270.0000,1.78862,207.952,0.143516
269.9000,0.596637,207.618,0.138724
269.8000,-0.340801,207.486,0.136838
269.7000,0.794928,206.972,0.129446
269.6000,-0.435393,207.87,0.142347
269.5000,-0.00763715,207.351,0.134902
269.4000,1.06864,208.174,0.146697
269.3000,0.249003,208.307,0.148594
269.2000,0.915889,208.679,0.153924
269.1000,-0.717157,207.602,0.138496
269.0000,-0.251251,209.338,0.163317
268.9000,-1.27266,208.127,0.146032
268.8000,-0.766098,208.593,0.152694
268.7000,0.537091,208.65,0.153503
268.6000,0.118509,207.775,0.140983
268.5000,0.697418,208.392,0.14981
268.4000,0.289267,207.815,0.141551
268.3000,-0.480784,208.718,0.154474
268.2000,0.366796,207.954,0.143549
268.1000,0.89879,209.051,0.15923
268.0000,-1.11078,208.35,0.14921
267.9000,0.29849,208.329,0.148919
267.8000,1.52668,208.608,0.152904
267.7000,3.03341,208.694,0.154135
267.6000,0.0798428,208.521,0.151657
267.5000,0.032474,208.791,0.155526
267.4000,0.884279,206.099,0.116875
267.3000,1.80418,208.422,0.150248
267.2000,-0.0993636,209.458,0.165028
267.1000,0.662366,209.195,0.161282
267.0000,-0.212546,208.101,0.145659
266.9000,0.53583,208.938,0.157613
266.8000,1.63369,208.347,0.149178
266.7000,0.335137,207.64,0.139049
266.6000,-0.368482,208.512,0.151528
266.5000,2.18646,208.652,0.153536
266.4000,0.230522,208.178,0.146762
266.3000,0.967283,209.517,0.165867
266.2000,-1.43078,208.943,0.157694
266.1000,-0.982934,209.454,0.16498
266.0000,0.258085,208.605,0.152855
265.9000,-0.0755685,209.162,0.160814
265.8000,-0.319813,208.586,0.152596
265.7000,0.331751,209.412,0.164383
265.6000,1.71975,209.188,0.161185
265.5000,2.09925,208.746,0.154879
265.4000,-1.32036,209.738,0.169012
265.3000,1.89204,208.262,0.147962
265.2000,-0.961956,208.991,0.158373
265.1000,1.06863,209.655,0.167836
265.0000,1.64302,209.283,0.162542
264.9000,0.641098,208.283,0.148254
264.8000,0.6072,208.705,0.154296
264.7000,-0.274454,209.54,0.166206
264.6000,1.94533,208.85,0.156368
264.5000,1.69596,209.457,0.165012
264.4000,0.711743,208.929,0.157484
264.3000,-0.18099,208.985,0.158292
264.2000,0.432961,210.292,0.176887
264.1000,-1.29193,210.111,0.174328
264.0000,1.16168,209.438,0.164754
263.9000,1.94606,209.287,0.162591
263.8000,0.455406,209.842,0.170495
263.7000,1.40689,209.38,0.163915
263.6000,1.86987,210.174,0.175214
263.5000,0.642073,209.103,0.159973
263.4000,-0.529732,207.786,0.141145
263.3000,-0.694861,210.3,0.177
263.2000,-0.800842,210.378,0.178109
263.1000,-0.434441,209.98,0.172461
263.0000,0.756977,208.636,0.153309
262.9000,-0.288483,209.927,0.171704
262.8000,-0.542991,210.332,0.177466
262.7000,-0.645959,209.752,0.169222
262.6000,1.0984,209.324,0.163123
262.5000,1.03762,209.777,0.169577
262.4000,3.11562,209.564,0.166545
262.3000,0.850722,209.579,0.166755
262.2000,0.807367,210.049,0.173443
262.1000,0.453455,208.889,0.156918
262.0000,1.48155,210.109,0.174296
261.9000,0.598653,209.862,0.170785
261.8000,2.30947,209.888,0.171156
261.7000,-1.05046,210.113,0.174344
261.6000,2.01336,210.143,0.174779
261.5000,0.688674,209.723,0.168803
261.4000,1.34595,210.28,0.176726
261.3000,1.96505,209.778,0.169593
261.2000,-0.339916,210.39,0.178286
261.1000,0.929853,209.99,0.172606
261.0000,1.99373,209.758,0.169303
260.9000,1.45647,209.699,0.168464
260.8000,-1.90254,211.044,0.187553
260.7000,1.26675,210.692,0.182561
260.6000,1.14393,210.264,0.176501
260.5000,0.699987,210.805,0.184167
260.4000,-1.22104,210.091,0.174039
260.3000,1.98876,210.843,0.184712
260.2000,-0.583957,209.81,0.170044
260.1000,0.870616,209.905,0.171398
260.0000,1.225,209.673,0.168094
259.9000,1.15623,209.915,0.171543
259.8000,-0.473704,210.337,0.17753
259.7000,0.444031,210.832,0.184552
259.6000,2.20885,210.193,0.175487
259.5000,-0.517731,210.006,0.172831
259.4000,-0.0581275,210.422,0.178736
259.3000,1.14259,210.28,0.176726
259.2000,-0.29101,210.83,0.18452
259.1000,-0.0936384,211.032,0.187376
259.0000,0.115109,211.333,0.19164
258.9000,-0.118477,210.777,0.183765
258.8000,0.364081,210.86,0.184953
258.7000,0.836336,210.735,0.183171
258.6000,0.892078,211.333,0.19164
258.5000,-0.0990696,210.988,0.186766
258.4000,-0.23008,210.539,0.180392
258.3000,0.25726,210.837,0.184616
258.2000,1.04979,211.315,0.191384
258.1000,0.327222,210.773,0.183717
258.0000,-0.684538,211.323,0.191496
257.9000,0.737403,211.308,0.191287
257.8000,-0.0325647,211.168,0.1893
257.7000,0.386297,211.013,0.187119
257.6000,1.34222,210.213,0.175777
257.5000,2.26031,211.188,0.189589
257.4000,-1.78818,211.824,0.19857
257.3000,0.283955,211.861,0.199098
257.2000,0.821464,211.479,0.193706
257.1000,0.845213,210.727,0.183059
257.0000,0.0181665,210.382,0.178174
256.9000,1.09378,211.13,0.188771
256.8000,-1.68718,211.157,0.189156
256.7000,0.0696074,211.621,0.195707
256.6000,-0.744002,210.879,0.18521
256.5000,0.127039,211.873,0.199274
256.4000,0.278812,211.672,0.196427
256.3000,1.87335,212.378,0.206381
256.2000,0.0746856,212.288,0.20512
256.1000,-0.863646,211.012,0.187103
256.0000,-1.03933,210.744,0.1833
255.9000,-0.468301,211.277,0.190855
255.8000,-0.160638,211.751,0.197547
255.7000,0.0959316,211.109,0.188467
255.6000,1.63578,212.869,0.213299
255.5000,-0.713619,212.048,0.201735
255.4000,0.0401716,211.897,0.19961
255.3000,3.01356,211.921,0.199945
255.2000,0.300069,211.928,0.200041
255.1000,0.713202,211.87,0.199226
255.0000,2.15018,213.459,0.221571
254.9000,-1.39566,212.337,0.205807
254.8000,-1.71241,212.074,0.202103
254.7000,1.81167,211.399,0.192569
254.6000,0.558032,212.427,0.207083
254.5000,1.10238,212.697,0.210878
254.4000,-1.78009,211.948,0.200329
254.3000,0.191913,212.348,0.205966
254.2000,2.72563,212.018,0.20132
254.1000,2.27948,211.735,0.197323
254.0000,0.041636,212.89,0.213586
253.9000,-0.120602,211.939,0.200201
253.8000,0.077758,211.947,0.200313
253.7000,0.100768,212.245,0.204514
253.6000,1.37904,212.691,0.210798
253.5000,0.0469236,212.171,0.203476
253.4000,0.974738,212.784,0.212105
253.3000,0.475669,212.35,0.205998
253.2000,1.63381,212.422,0.207003
253.1000,-0.336964,213.565,0.223065
253.0000,0.315096,212.748,0.211595
252.9000,-1.26969,212.969,0.214701
252.8000,1.46429,212.363,0.206174
252.7000,-0.688053,212.285,0.205073
252.6000,1.7257,212.375,0.206349
252.5000,0.361287,212.702,0.210942
252.4000,1.40895,212.444,0.207323
252.3000,0.881234,212.127,0.202853
252.2000,-0.0105112,212.756,0.211707
252.1000,-1.52462,212.756,0.211707
252.0000,-0.36434,213.643,0.22416
251.9000,-1.06425,214.462,0.235622
251.8000,0.847588,211.725,0.197179
251.7000,0.522139,212.604,0.209571
251.6000,-0.659621,213.443,0.221349
251.5000,-0.880257,213.051,0.215847
251.4000,1.18795,213.071,0.216133
251.3000,-1.17813,212.875,0.213379
251.2000,-0.619902,213.416,0.220967
251.1000,0.687182,212.44,0.207259
251.0000,1.61609,212.808,0.212439
250.9000,-0.353477,212.438,0.207227
250.8000,1.09326,213.091,0.216419
250.7000,1.22786,212.673,0.210543
250.6000,0.823992,213.392,0.220634
250.5000,0.74759,213.253,0.218694
250.4000,-0.83779,213.067,0.21607
250.3000,1.19787,213.101,0.216547
250.2000,-1.61543,213.571,0.223144
250.1000,-1.14849,213.402,0.220777
250.0000,-0.238991,212.875,0.213379
249.9000,0.0928525,214.685,0.238723
249.8000,-0.41252,214.297,0.23331
249.7000,-1.44963,214.697,0.238897
249.6000,0.117744,213.766,0.225875
249.5000,1.44591,213.02,0.215417
249.4000,3.27906,213.876,0.227414
249.3000,1.14174,213.618,0.223811
249.2000,-0.28511,213.846,0.227001
249.1000,-0.291648,213.828,0.226747
249.0000,0.0396162,213.283,0.219108
248.9000,0.00187317,213.077,0.216213
248.8000,0.125444,214.121,0.230855
248.7000,-0.481076,213.192,0.217835
248.6000,1.74861,213.793,0.226256
248.5000,0.611286,213.82,0.226637
248.4000,-0.4889,214.085,0.230348
248.3000,-1.53009,213.469,0.221714
248.2000,2.18666,213.91,0.22789
248.1000,-0.207895,213.34,0.219903
248.0000,1.01906,213.832,0.226811
247.9000,0.0925913,213.589,0.223398
247.8000,-0.673893,214.15,0.231251
247.7000,-1.54747,213.89,0.22762
247.6000,0.0145548,214.926,0.24209
247.5000,0.0790779,214.936,0.242232
247.4000,-1.16466,215.675,0.252519
247.3000,0.705204,213.83,0.226779
247.2000,-1.81678,214.084,0.230332
247.1000,-0.0261409,214.219,0.232217
247.0000,0.969271,214.734,0.239419
246.9000,0.380857,215.403,0.248736
246.8000,-0.876364,214.858,0.241142
246.7000,-1.32747,215.73,0.253291
246.6000,-0.251909,214.847,0.240984
246.5000,0.459774,215.867,0.255196
246.4000,-0.526732,214.95,0.242422
246.3000,-2.80886,215.04,0.243685
246.2000,-1.70988,215.833,0.254724
246.1000,0.886713,215.254,0.246669
246.0000,-0.902585,215.063,0.244001
245.9000,-2.59742,215.393,0.248594
245.8000,0.0261366,214.567,0.237078
245.7000,-1.18484,215.841,0.254834
245.6000,-1.3116,215.224,0.246243
245.5000,-2.18331,215.77,0.253842
245.4000,-0.328315,215.155,0.24528
245.3000,0.478884,215.303,0.247348
245.2000,-1.69135,214.813,0.24051
245.1000,-3.04475,215.632,0.25192
245.0000,-1.53403,215.405,0.248767
244.9000,-0.931071,215.079,0.244222
244.8000,-2.78149,215.949,0.25633
244.7000,-2.29981,215.609,0.251605
244.6000,-2.45358,214.029,0.229555
244.5000,-0.655645,214.856,0.24111
244.4000,-2.81764,214.723,0.239261
244.3000,-4.88492,215.457,0.249493
244.2000,-1.91173,214.895,0.241664
244.1000,-0.871762,216.656,0.266137
244.0000,-3.15227,215.681,0.252598
243.9000,-3.57215,216.912,0.269683
243.8000,-1.30485,216.365,0.262101
243.7000,-1.78388,215.15,0.245217
243.6000,-2.96461,215.47,0.249666
243.5000,-3.26679,215.078,0.244207
243.4000,-2.51806,217.452,0.277139
243.3000,-3.8436,215.245,0.246543
243.2000,-1.40096,216.091,0.258296
243.1000,-3.08755,217.112,0.272441
243.0000,-2.3541,216.589,0.265211
242.9000,-2.63956,217.206,0.273741
242.8000,-3.07213,217.308,0.275151
242.7000,-1.86215,215.447,0.249351
242.6000,-3.99293,217.087,0.272096
242.5000,-3.39763,217.223,0.273976
242.4000,-3.423,217.246,0.274305
242.3000,-4.01188,217.697,0.280533
242.2000,-4.69153,216.241,0.260388
242.1000,-4.42916,217.036,0.271391
242.0000,-5.25668,217.359,0.275855
241.9000,-6.08142,218.299,0.288825
241.8000,-5.23348,217.679,0.280283
241.7000,-5.11058,216.05,0.25773
241.6000,-3.00533,218.007,0.284799
241.5000,-6.77938,218.772,0.295324
241.4000,-3.43765,217.677,0.280252
241.3000,-3.84815,217.946,0.283955
241.2000,-3.15531,218.455,0.290977
241.1000,-3.26422,218.519,0.29185
241.0000,-4.96992,218.434,0.290681
240.9000,-5.63692,217.915,0.283534
240.8000,-5.61264,218.08,0.285814
240.7000,-6.18353,218.961,0.297923
240.6000,-7.1656,219.116,0.300055
240.5000,-6.11464,219.208,0.301314
240.4000,-3.01679,219.581,0.306425
240.3000,-6.95302,219.351,0.303272
240.2000,-6.19843,219.758,0.308861
240.1000,-6.24537,220.02,0.312443
240.0000,-6.34055,220.019,0.312427
239.9000,-6.11526,219.693,0.307961
239.8000,-6.68724,218.33,0.289246
239.7000,-7.86162,220.116,0.31376
239.6000,-6.58734,219.203,0.301252
239.5000,-6.87172,221.318,0.330145
239.4000,-7.01421,221.807,0.336802
239.3000,-9.49241,218.731,0.294764
239.2000,-7.72617,221.42,0.331533
239.1000,-9.50331,220.998,0.325793
239.0000,-7.89465,222.097,0.340741
238.9000,-10.2045,221.885,0.337864
238.8000,-8.24037,220.936,0.324944
238.7000,-10.6675,221.012,0.325978
238.6000,-8.75784,220.705,0.321792
238.5000,-11.8322,222.167,0.341694
238.4000,-8.73797,221.154,0.327923
238.3000,-10.4515,221.367,0.330823
238.2000,-11.2393,222.185,0.34194
238.1000,-10.2132,222.693,0.348821
238.0000,-12.031,222.311,0.343646
237.9000,-11.3164,223.221,0.355964
237.8000,-11.5079,221.772,0.336324
237.7000,-10.3922,222.081,0.340525
237.6000,-10.8843,222.967,0.352532
237.5000,-11.742,222.902,0.351643
237.4000,-10.6724,222.614,0.347746
237.3000,-13.3245,223.858,0.364561
237.2000,-12.2612,223.47,0.359332
237.1000,-11.1628,221.829,0.337094
237.0000,-13.2276,223.442,0.358949
236.9000,-13.9261,224.086,0.36763
236.8000,-11.8736,223.449,0.359041
236.7000,-14.6976,224.937,0.379077
236.6000,-14.9076,224.142,0.368394
236.5000,-15.9991,224.49,0.373076
236.4000,-14.0905,224.432,0.372299
236.3000,-15.2249,224.878,0.378286
236.2000,-17.8687,224.878,0.378286
236.1000,-17.1251,224.855,0.377981
236.0000,-15.1468,225.162,0.382104
235.9000,-15.2746,225.327,0.384324
235.8000,-15.526,226.328,0.397717
235.7000,-17.344,226.269,0.39693
235.6000,-18.8349,226.589,0.401198
235.5000,-15.3782,226.42,0.398944
235.4000,-18.1119,226.144,0.395264
235.3000,-20.8985,226.488,0.399852
235.2000,-19.2079,226.264,0.396869
235.1000,-18.9049,227.409,0.412133
235.0000,-18.2913,227.434,0.412465
234.9000,-19.5821,227.103,0.408059
234.8000,-18.0848,227.228,0.409719
234.7000,-19.4528,227.124,0.408346
234.6000,-21.3779,227.555,0.414078
234.5000,-22.064,229.842,0.444371
234.4000,-21.4212,228.108,0.421427
234.3000,-19.5648,228.135,0.421788
234.2000,-22.7763,228.553,0.427334
234.1000,-23.1764,228.536,0.427109
234.0000,-22.8278,228.583,0.427725
233.9000,-22.5196,229.137,0.43506
233.8000,-22.702,229.157,0.43533
233.7000,-21.7456,229.912,0.445298
233.6000,-23.2388,230.097,0.447733
233.5000,-20.783,229.002,0.433277
233.4000,-24.7481,229.922,0.445432
233.3000,-25.3744,230.91,0.458441
233.2000,-25.3691,230.802,0.457026
233.1000,-23.6566,230.489,0.452897
233.0000,-27.404,230.622,0.454657
232.9000,-26.7056,230.555,0.453777
232.8000,-23.7355,230.949,0.458948
232.7000,-25.7528,231.775,0.469787
232.6000,-26.7538,231.837,0.470603
232.5000,-26.4617,231.32,0.463829
232.4000,-24.2571,232.214,0.475543
232.3000,-24.81,232.62,0.480846
232.2000,-28.1788,232.5,0.479276
232.1000,-26.8009,232.227,0.475706
232.0000,-26.9463,232.637,0.481068
231.9000,-28.5651,233.471,0.491945
231.8000,-29.3105,233.721,0.495205
231.7000,-29.5201,233.964,0.498359
231.6000,-30.3403,233.499,0.492314
231.5000,-29.559,233.805,0.496296
231.4000,-31.0511,234.085,0.499935
231.3000,-33.0256,234.361,0.503526
231.2000,-33.1382,234.063,0.499655
231.1000,-30.6532,234.735,0.508378
231.0000,-31.1623,234.511,0.505467
230.9000,-33.0473,234.725,0.508245
230.8000,-33.8474,235.441,0.517519
230.7000,-30.6586,235.463,0.517797
230.6000,-35.3955,235.268,0.515276
230.5000,-32.5651,236.11,0.526155
230.4000,-35.6395,235.749,0.521503
230.3000,-32.3623,235.804,0.522206
230.2000,-36.3958,234.547,0.505938
230.1000,-34.3374,237.791,0.547789
230.0000,-35.9982,236.801,0.535063
229.9000,-36.2078,236.98,0.537367
229.8000,-38.0698,237.511,0.544197
229.7000,-35.2143,236.745,0.534349
229.6000,-36.678,237.907,0.549272
229.5000,-38.2033,237.603,0.545376
229.4000,-39.285,237.227,0.540543
229.3000,-37.6971,237.857,0.548632
229.2000,-39.8343,237.463,0.543572
229.1000,-38.4463,238.855,0.561413
229.0000,-41.5143,238.987,0.563092
228.9000,-40.3457,239.577,0.570626
228.8000,-41.0723,239.628,0.571276
228.7000,-40.7895,240.85,0.586828
228.6000,-41.6546,239.669,0.571796
228.5000,-39.419,239.663,0.571724
228.4000,-39.4119,240.347,0.580436
228.3000,-42.6715,240.771,0.585821
228.2000,-43.7803,240.581,0.583403
228.1000,-43.3803,241.202,0.591284
228.0000,-40.8892,241.62,0.596581
227.9000,-43.3702,241.644,0.596882
227.8000,-40.6319,241.739,0.598087
227.7000,-43.1116,242.3,0.605178
227.6000,-46.4826,242.431,0.606837
227.5000,-45.543,242.811,0.611626
227.4000,-42.9612,242.573,0.608625
227.3000,-45.0415,243.054,0.614697
227.2000,-45.9018,243.367,0.618634
227.1000,-46.7956,243.446,0.619632
227.0000,-45.2219,243.724,0.623123
226.9000,-44.7421,243.835,0.624519
226.8000,-46.0256,244.276,0.630053
226.7000,-43.7998,244.012,0.626739
226.6000,-49.032,244.652,0.634769
226.5000,-47.0594,244.009,0.626711
226.4000,-47.1321,244.803,0.636657
226.3000,-49.2893,244.236,0.629555
226.2000,-46.3453,244.757,0.63609
226.1000,-49.1843,245.678,0.64761
226.0000,-50.3357,246.057,0.652333
225.9000,-48.4242,245.847,0.649718
225.8000,-50.4678,246.365,0.656174
225.7000,-51.2738,246.882,0.662605
225.6000,-48.7583,247.214,0.666732
225.5000,-49.6573,247.192,0.666464
225.4000,-49.3948,247.342,0.668322
225.3000,-53.9342,247.827,0.674339
225.2000,-50.0482,247.383,0.668828
225.1000,-47.5645,247.252,0.66721
225.0000,-48.4507,247.651,0.672161
224.9000,-50.6418,248.404,0.681482
224.8000,-50.8454,248.485,0.682491
224.7000,-49.9207,248.779,0.686119
224.6000,-51.1544,249.087,0.689926
224.5000,-52.1036,249.636,0.696704
224.4000,-52.162,250.546,0.707899
224.3000,-49.9053,249.778,0.698449
224.2000,-49.5188,249.492,0.69493
224.1000,-52.9313,249.846,0.699286
224.0000,-52.2899,250.158,0.703121
223.9000,-54.7024,249.892,0.699858
223.8000,-51.8522,251.148,0.715283
223.7000,-52.1968,250.965,0.713046
223.6000,-52.8896,251.259,0.716645
223.5000,-51.4857,250.902,0.712267
223.4000,-53.9784,251.063,0.714241
223.3000,-50.1155,252.109,0.727046
223.2000,-51.3069,252.096,0.726893
223.1000,-51.711,252.007,0.725799
223.0000,-55.1662,251.9,0.724497
222.9000,-53.2348,252.903,0.736741
222.8000,-51.4338,253.32,0.741821
222.7000,-51.4365,252.409,0.730714
222.6000,-52.4298,252.435,0.731032
222.5000,-55.1318,253.857,0.748354
222.4000,-52.0877,254.02,0.750336
222.3000,-53.2449,254.273,0.753404
222.2000,-52.6295,254.344,0.75427
222.1000,-55.1567,254.792,0.759696
222.0000,-56.2438,254.547,0.75673
221.9000,-54.2651,255.337,0.766294
221.8000,-54.4849,255.176,0.764347
221.7000,-55.319,256.215,0.776899
221.6000,-55.8456,256.729,0.783098
221.5000,-55.1737,256.643,0.782061
221.4000,-53.4515,256.563,0.781091
221.3000,-54.1031,257.039,0.78682
221.2000,-56.3901,257.356,0.790634
221.1000,-55.1412,258.617,0.805756
221.0000,-55.2264,257.391,0.791056
220.9000,-51.548,258.212,0.800912
220.8000,-54.7843,257.57,0.793206
220.7000,-50.4964,257.971,0.798019
220.6000,-55.7118,257.956,0.797843
220.5000,-53.3165,259.037,0.810783
220.4000,-52.9576,258.763,0.807505
220.3000,-58.0128,259.126,0.811839
220.2000,-53.7568,260.247,0.825217
220.1000,-53.2451,259.662,0.818237
220.0000,-53.5874,260.392,0.826943
219.9000,-53.7186,260.224,0.824934
219.8000,-53.0469,259.994,0.822195
219.7000,-52.9899,260.547,0.828777
219.6000,-52.3376,260.744,0.831121
219.5000,-54.4109,261.551,0.840698
219.4000,-56.1924,261.872,0.844511
219.3000,-54.4567,261.977,0.845745
219.2000,-48.9626,262.364,0.85033
219.1000,-50.5357,262.22,0.848628
219.0000,-55.8481,262.537,0.85238
218.9000,-50.7897,263.005,0.857906
218.8000,-55.1959,262.737,0.854736
218.7000,-53.441,263.213,0.860352
218.6000,-53.4426,263.402,0.862583
218.5000,-52.3293,263.983,0.869428
218.4000,-51.3759,264.056,0.870281
218.3000,-55.3711,264.683,0.877657
218.2000,-54.9775,264.28,0.872919
218.1000,-53.2144,264.815,0.8792
218.0000,-56.0588,264.604,0.876726
217.9000,-50.233,264.716,0.878043
217.8000,-51.8852,265.532,0.887607
217.7000,-55.2692,265.69,0.88945
217.6000,-53.9052,265.888,0.89177
217.5000,-55.1881,266.443,0.898257
217.4000,-52.517,266.751,0.901853
217.3000,-53.3863,267.146,0.906449
217.2000,-54.6453,267.142,0.90641
217.1000,-51.3843,267.713,0.913057
217.0000,-51.5222,267.721,0.913149
216.9000,-51.3053,268.554,0.922821
216.8000,-53.2521,268.733,0.924896
216.7000,-54.3194,268.437,0.921467
216.6000,-53.904,269.527,0.934093
216.5000,-50.9059,269.694,0.936018
216.4000,-54.1495,269.869,0.938047
216.3000,-52.6749,269.782,0.937039
216.2000,-50.6665,269.807,0.937327
216.1000,-48.6808,270.589,0.946349
216.0000,-53.3202,270.897,0.9499
215.9000,-52.0497,271.115,0.952404
215.8000,-54.1424,271.302,0.954555
215.7000,-54.1031,272.574,0.969161
215.6000,-51.3946,272.284,0.965836
215.5000,-53.6987,272.928,0.973208
215.4000,-53.6893,272.453,0.967771
215.3000,-50.6979,272.38,0.96694
215.2000,-49.2659,273.201,0.976332
215.1000,-49.2943,273.35,0.978042
215.0000,-51.971,273.278,0.977213
214.9000,-53.5362,273.602,0.980916
214.8000,-52.2217,274.464,0.99075
214.7000,-52.1189,274.295,0.988827
214.6000,-51.6457,274.747,0.993975
214.5000,-55.6511,275.167,0.998744
214.4000,-53.4041,276.025,1.00849
214.3000,-55.3821,276.14,1.00979
214.2000,-51.6596,277.452,1.02463
214.1000,-51.1092,276.8,1.01727
214.0000,-50.7957,277.242,1.02226
213.9000,-51.5921,276.663,1.01572
213.8000,-51.5093,277.429,1.02438
213.7000,-54.0304,278.181,1.03285
213.6000,-52.0777,278.011,1.03093
213.5000,-49.9934,278.236,1.03347
213.4000,-52.8875,278.601,1.03758
213.3000,-54.7806,279.357,1.04607
213.2000,-54.3841,279.743,1.05041
213.1000,-53.1012,279.958,1.05282
213.0000,-54.7983,279.933,1.05254
212.9000,-55.4143,280.367,1.0574
212.8000,-54.0147,280.984,1.06429
212.7000,-51.5746,281.124,1.06586
212.6000,-52.4046,281.366,1.06855
212.5000,-54.7801,281.139,1.06602
212.4000,-59.8192,283.009,1.08684
212.3000,-53.8828,282.483,1.081
212.2000,-56.9964,283.001,1.08675
212.1000,-59.5562,283.786,1.09546
212.0000,-52.4923,284.143,1.09941
211.9000,-49.5628,284.087,1.0988
211.8000,-58.2358,285.42,1.11352
211.7000,-56.1217,285.549,1.11494
211.6000,-54.3377,285.08,1.10977
211.5000,-52.9354,286.582,1.12632
211.4000,-53.756,286.927,1.1301
211.3000,-52.0864,287.35,1.13475
211.2000,-58.16,287.057,1.13153
211.1000,-57.4824,288.287,1.14501
211.0000,-60.2886,288.515,1.1475
210.9000,-51.9882,288.344,1.14563
210.8000,-58.3678,289.455,1.15775
210.7000,-55.866,289.636,1.15972
210.6000,-55.9719,289.729,1.16074
210.5000,-55.4149,290.506,1.16919
210.4000,-61.4582,290.538,1.16954
210.3000,-57.3283,291.221,1.17695
210.2000,-59.5752,291.964,1.185
210.1000,-56.1498,292.793,1.19395
210.0000,-61.6031,293.982,1.20677
209.9000,-58.5568,294.083,1.20786
209.8000,-58.7482,294.481,1.21213
209.7000,-59.7004,295.694,1.22515
209.6000,-58.8322,295.606,1.2242
209.5000,-56.2244,295.918,1.22754
209.4000,-60.1024,296.603,1.23486
209.3000,-54.5173,296.146,1.22998
209.2000,-57.5812,297.814,1.24778
209.1000,-57.6819,298.711,1.2573
209.0000,-55.6267,299.091,1.26134
208.9000,-56.0614,299.566,1.26637
208.8000,-55.2279,299.826,1.26912
208.7000,-58.5587,300.752,1.27892
208.6000,-59.1269,301.995,1.29202
208.5000,-61.6167,301.998,1.29204
208.4000,-54.2603,302.375,1.29601
208.3000,-62.1086,303.08,1.30341
208.2000,-49.9333,304.334,1.31654
208.1000,-57.7262,304.68,1.32015
208.0000,-58.9285,305.324,1.32687
207.9000,-56.957,306.664,1.34081
207.8000,-58.6571,307.247,1.34687
207.7000,-52.5045,307.97,1.35435
207.6000,-59.2152,308.631,1.36118
207.5000,-52.8,309.335,1.36846
207.4000,-48.1893,309.78,1.37304
207.3000,-57.8055,310.513,1.38058
207.2000,-53.4619,310.345,1.37885
207.1000,-52.2771,310.969,1.38527
207.0000,-58.5225,312.776,1.40378
206.9000,-54.9018,313.439,1.41054
206.8000,-52.3564,314.21,1.41839
206.7000,-46.4829,315.318,1.42965
206.6000,-47.2059,315.693,1.43346
206.5000,-55.4993,316.836,1.44503
206.4000,-45.4775,318.057,1.45734
206.3000,-48.0496,318.625,1.46307
206.2000,-44.6863,319.736,1.47422
206.1000,-40.1143,320.788,1.48477
206.0000,-42.0194,320.821,1.4851
205.9000,-45.0963,321.727,1.49414
205.8000,-50.0979,323.189,1.50871
205.7000,-40.7461,323.404,1.51084
205.6000,-47.4183,324.501,1.52173
205.5000,-46.6759,325.689,1.53348
205.4000,-42.9554,326.242,1.53893
205.3000,-39.9338,326.953,1.54595
205.2000,-33.9566,329.3,1.56898
205.1000,-39.6211,329.61,1.57202
205.0000,-30.7831,330.638,1.58205
204.9000,-34.0258,332.04,1.5957
204.8000,-34.5562,333.694,1.61174
204.7000,-39.4185,334.828,1.6227
204.6000,-42.0847,335.207,1.62636
204.5000,-30.0864,336.418,1.63802
204.4000,-34.4684,338.183,1.65495
204.3000,-37.9047,338.632,1.65924
204.2000,-37.9861,339.329,1.6659
204.1000,-32.4026,340.998,1.68179
204.0000,-25.8043,341.572,1.68725
203.9000,-32.8006,343.773,1.70808
203.8000,-32.6577,345.028,1.71991
203.7000,-28.4933,345.187,1.72141
203.6000,-28.4584,347.111,1.73946
203.5000,-24.7879,348.773,1.755
203.4000,-21.6922,350.012,1.76654
203.3000,-19.1985,350.503,1.7711
203.2000,-22.325,352.484,1.78946
203.1000,-18.5705,352.836,1.79271
203.0000,-20.007,354.703,1.80992
202.9000,-18.747,355.438,1.81667
202.8000,-9.87273,357.099,1.83189
202.7000,-11.1281,358.51,1.84478
202.6000,-9.46292,360.109,1.85932
202.5000,-13.2861,360.621,1.86397
202.4000,-7.99805,362.226,1.87849
202.3000,-1.21688,363.525,1.89022
202.2000,-7.51006,365.46,1.90761
202.1000,-14.9083,367.396,1.92493
202.0000,-3.95152,369.415,1.94292
201.9000,2.0773,369.831,1.94662
201.8000,-3.03562,372.438,1.9697
201.7000,-6.35943,373.982,1.98331
201.6000,7.54396,375.131,1.9934
201.5000,-0.565644,376.334,2.00394
201.4000,10.5866,378.367,2.0217
201.3000,1.25612,379.836,2.03447
201.2000,-9.35515,380.535,2.04053
201.1000,11.0953,383.258,2.06407
201.0000,10.9154,384.623,2.07582
200.9000,1.4853,386.412,2.09116
200.8000,11.2224,387.864,2.10356
200.7000,12.9522,388.797,2.11152
200.6000,20.8804,391.317,2.13292
200.5000,8.70808,392.68,2.14444
200.4000,15.2206,395.079,2.16465
200.3000,17.2209,396.383,2.17559
200.2000,11.3098,398.296,2.19158
200.1000,19.5025,400.377,2.20891
200.0000,17.3461,401.195,2.2157
199.9000,21.109,404.459,2.24267
199.8000,18.1182,405.81,2.25379
199.7000,23.1538,408.214,2.27348
199.6000,22.8573,409.702,2.28562
199.5000,20.5402,411.737,2.30217
199.4000,18.712,413.283,2.31469
199.3000,22.5235,414.703,2.32616
199.2000,30.7092,416.276,2.33883
199.1000,31.9026,418.643,2.35781
199.0000,16.9124,419.818,2.3672
198.9000,30.934,421.657,2.38186
198.8000,29.721,424.01,2.40052
198.7000,42.5427,426.326,2.41881
198.6000,30.1816,428.576,2.4365
198.5000,32.069,430.817,2.45405
198.4000,28.4522,433.635,2.47599
198.3000,26.9831,435.692,2.49194
198.2000,31.0209,436.57,2.49872
198.1000,38.6873,438.921,2.51684
198.0000,41.8565,440.359,2.52788
197.9000,34.9961,442.5,2.54427
197.8000,40.2751,444.815,2.5619
197.7000,39.6871,446.856,2.57739
197.6000,54.008,448.53,2.59005
197.5000,31.3181,450.469,2.60466
197.4000,30.4235,452.681,2.62126
197.3000,28.3101,454.819,2.63724
197.2000,40.2883,457.401,2.65646
197.1000,32.4237,458.885,2.66747
197.0000,34.763,461.677,2.68809
196.9000,45.505,464.214,2.70674
196.8000,55.3673,465.839,2.71864
196.7000,54.1244,467.458,2.73046
196.6000,38.2547,470.39,2.75177
196.5000,34.1412,472.421,2.76648
196.4000,45.438,475.041,2.78536
196.3000,46.819,476.359,2.79483
196.2000,35.8494,479.105,2.81449
196.1000,43.3609,481.649,2.83261
196.0000,38.6406,483.908,2.84864
195.9000,40.7466,485.879,2.86257
195.8000,56.6882,488.234,2.87915
195.7000,40.9599,491.04,2.89882
195.6000,37.9511,492.109,2.90629
195.5000,35.6258,493.93,2.91898
195.4000,35.2603,496.022,2.93351
195.3000,33.3058,497.565,2.9442
195.2000,38.483,498.864,2.95317
195.1000,33.0864,501.421,2.97078
195.0000,28.2922,502.364,2.97725
194.9000,43.422,504.725,2.99341
194.8000,36.202,506.585,3.00611
194.7000,41.5085,508.614,3.0199
194.6000,40.7365,509.99,3.02923
194.5000,36.4295,512.08,3.04336
194.4000,34.9438,513.796,3.05493
194.3000,42.1669,515.659,3.06744
194.2000,36.0715,516.59,3.07369
194.1000,39.8165,520.229,3.09799
194.0000,36.332,521.659,3.1075
193.9000,45.7017,524.209,3.12441
193.8000,34.2623,526.139,3.13716
193.7000,35.0522,528.249,3.15105
193.6000,51.9312,530.389,3.1651
193.5000,43.1425,531.534,3.1726
193.4000,31.1532,533.983,3.18858
193.3000,36.8213,534.535,3.19217
193.2000,28.0284,536.258,3.20337
193.1000,21.0866,537.673,3.21255
193.0000,21.0745,539.302,3.22308
192.9000,38.1236,541.103,3.2347
192.8000,30.1113,543.043,3.24717
192.7000,33.4749,544.763,3.2582
192.6000,36.2697,547.579,3.2762
192.5000,27.0193,549.164,3.28629
192.4000,32.2128,552.288,3.30611
192.3000,35.4473,553.313,3.3126
192.2000,35.1552,555.414,3.32586
192.1000,28.7997,556.846,3.33487
192.0000,37.7007,558.864,3.34753
191.9000,31.3126,559.579,3.35201
191.8000,30.8288,561.684,3.36517
191.7000,32.0784,563.158,3.37436
191.6000,37.1284,565.181,3.38693
191.5000,29.3026,566.141,3.39289
191.4000,28.3768,569.2,3.41181
191.3000,30.8629,571.259,3.42449
191.2000,23.8966,572.955,3.43491
191.1000,41.4373,575.402,3.4499
191.0000,15.0246,578.118,3.46647
190.9000,37.7915,580.504,3.48098
190.8000,28.1715,582.409,3.49252
190.7000,24.1412,585.331,3.51016
190.6000,23.8891,587.679,3.52428
190.5000,16.3546,589.047,3.53249
190.4000,24.373,591.693,3.54832
190.3000,22.0585,593.775,3.56073
190.2000,29.0446,596.604,3.57753
190.1000,10.5717,597.273,3.5815
190.0000,16.081,599.737,3.59607

##### Extended Information
[Comments]
Sample name,KMGM_ADDATIVE&PROTEIN_928
Comment,ADDATIVE AND PROTEIN
User,KYLE MURPHY
Division
Company,Saint Mary's College

[Detailed Information]
Creation date,9/28/2022 3:30 PM

Data array type,Linear data array * 3
Horizontal axis,Wavelength [nm]
Vertical axis(1),CD [mdeg]
Vertical axis(2),HT [V]
Vertical axis(3),Abs
Start,320 nm
End,190 nm
Data interval,0.1 nm
Data points,1301    

[Measurement Information]
Instrument name,J-1500
Model name,J-1500
Serial No.,B051061638

Detector,PM-539
Detector S/N,B051061638
  Lock-in amp.,X mode
  HT volt,Auto

Accessory,PTC-517
Accessory S/N,B026561646
  Temperature,28.01 C
  Control sensor,Holder
  Monitor sensor,Holder

Measurement date,9/28/2022 3:30 PM

CD Overload detect,1023
Photometric mode,CD, HT, Abs
Measure range,320 - 190 nm
Data pitch,0.1 nm
CD scale,20 mdeg/0.05 dOD
FL scale,20 mdeg/0.05 dOD
D.I.T.,8 msec
Bandwidth,2.00 nm
Start mode,Immediately
Scanning mode,Continuous
Scanning speed,200 nm/min
Baseline correction,None
Shutter control,Auto
No. of cycle,1/1
N2 Flowmeter,Manual

Solvent,NaPO4 buffer

