TITLE,KMGM_BUFFER_928
DATA TYPE,
ORIGIN,JASCO
OWNER,
DATE,22/09/28
TIME,15:01:07
SPECTROMETER/DATA SYSTEM,
LOCALE,1033
RESOLUTION,
DELTAX,-0.1
XUNITS,NANOMETERS
YUNITS,CD [mdeg]
Y2UNITS,HT [V]
Y3UNITS,ABSORBANCE
FIRSTX,  320.0000
LASTX,  190.0000
NPOINTS,    1301
FIRSTY,     1.54704
MAXY,     6.02539
MINY,    -5.83343
XYDATA
320.0000,1.54704,208.218,0.14733
319.9000,1.16776,208.353,0.149259
319.8000,1.05143,208.781,0.155381
319.7000,1.56132,208.117,0.145886
319.6000,-0.0443208,208.592,0.152677
319.5000,1.7668,208.064,0.145123
319.4000,3.20775,208.188,0.146892
319.3000,1.69598,208.525,0.151722
319.2000,2.46828,208.76,0.155073
319.1000,0.530577,208.491,0.151236
319.0000,2.52829,208.59,0.152645
318.9000,1.87078,208.234,0.147557
318.8000,0.510783,208.657,0.1536
318.7000,1.04991,208.228,0.147476
318.6000,2.13172,208.446,0.150588
318.5000,1.80367,208.588,0.152613
318.4000,0.777965,208.27,0.148075
318.3000,0.931256,208.606,0.152872
318.2000,-0.676873,208.339,0.149064
318.1000,1.38484,208.144,0.146275
318.0000,0.0124968,208.939,0.157629
317.9000,-0.187611,208.422,0.150248
317.8000,2.51629,207.979,0.143906
317.7000,2.42108,208.319,0.148773
317.6000,0.730967,208.184,0.146843
317.5000,0.919581,207.917,0.143013
317.4000,2.07445,209.004,0.158567
317.3000,2.19874,208.508,0.151479
317.2000,1.42341,208.321,0.148805
317.1000,1.94923,207.943,0.143386
317.0000,-0.528385,208.328,0.148902
316.9000,2.1678,208.261,0.147946
316.8000,0.885713,208.285,0.148286
316.7000,3.10641,208.654,0.153568
316.6000,1.33978,207.901,0.142786
316.5000,1.16064,208.882,0.156821
316.4000,3.01997,208.223,0.147394
316.3000,1.19183,208.337,0.149032
316.2000,1.67689,208.767,0.15517
316.1000,-0.980321,208.055,0.144993
316.0000,0.715685,207.366,0.135113
315.9000,1.88327,207.767,0.140869
315.8000,2.61896,208.83,0.156077
315.7000,0.59457,207.537,0.13757
315.6000,2.83027,207.697,0.139862
315.5000,1.7834,207.441,0.136187
315.4000,0.434607,207.641,0.139065
315.3000,3.20056,208.909,0.157209
315.2000,1.3383,207.273,0.133779
315.1000,1.4902,208.045,0.144847
315.0000,2.49284,207.46,0.136464
314.9000,2.88684,207.691,0.13978
314.8000,2.47479,208.086,0.145432
314.7000,1.55557,208.118,0.145902
314.6000,2.09823,208.111,0.145789
314.5000,2.58416,207.866,0.142282
314.4000,1.50702,208.19,0.146924
314.3000,2.23506,207.277,0.133828
314.2000,0.409768,207.874,0.142396
314.1000,0.300668,208.158,0.14647
314.0000,0.628343,208.202,0.147102
313.9000,1.84101,208.053,0.144961
313.8000,-1.01567,207.606,0.138561
313.7000,2.47804,207.577,0.138139
313.6000,2.29353,207.859,0.142185
313.5000,2.39744,207.81,0.141486
313.4000,1.18465,207.929,0.143192
313.3000,3.1514,208.353,0.149259
313.2000,1.61618,208.096,0.145577
313.1000,2.82542,208.041,0.144799
313.0000,0.491023,207.927,0.143159
312.9000,0.214237,207.07,0.130864
312.8000,-0.692564,207.352,0.134918
312.7000,1.67939,207.587,0.138285
312.6000,-1.39235,207.482,0.136773
312.5000,-0.699725,207.601,0.13848
312.4000,0.842795,208.207,0.147167
312.3000,1.86885,207.624,0.138821
312.2000,0.289832,208.341,0.149081
312.1000,1.8185,207.386,0.135406
312.0000,2.3861,207.542,0.137635
311.9000,3.11688,207.286,0.133958
311.8000,0.673563,207.622,0.138789
311.7000,1.29805,208.173,0.146681
311.6000,1.47884,207.369,0.135162
311.5000,0.882479,207.494,0.136952
311.4000,2.16023,207.56,0.137895
311.3000,1.57743,207.84,0.141909
311.2000,0.298889,208.175,0.146713
311.1000,-0.730562,207.878,0.142461
311.0000,2.38008,208.175,0.146713
310.9000,1.03919,208.077,0.145302
310.8000,1.76881,207.586,0.138269
310.7000,1.18989,207.671,0.139488
310.6000,2.60891,208.393,0.149826
310.5000,2.90287,207.807,0.141438
310.4000,0.422852,207.834,0.141827
310.3000,0.938883,207.817,0.141584
310.2000,2.74099,207.81,0.141486
310.1000,1.32534,207.679,0.139602
310.0000,2.27086,207.809,0.14147
309.9000,-0.0967982,207.89,0.142623
309.8000,0.596816,208.169,0.146632
309.7000,2.86823,207.98,0.143922
309.6000,1.86642,207.247,0.133404
309.5000,1.39752,207.525,0.137391
309.4000,0.442034,207.953,0.143533
309.3000,-0.818195,207.782,0.14108
309.2000,1.07143,207.458,0.136431
309.1000,0.694721,207.769,0.140902
309.0000,0.439441,207.624,0.138821
308.9000,2.04668,207.465,0.136529
308.8000,-0.145358,207.791,0.14121
308.7000,1.15875,207.238,0.133274
308.6000,1.71156,207.623,0.138805
308.5000,0.974633,207.473,0.136642
308.4000,0.639208,208.141,0.146226
308.3000,1.96282,207.771,0.140918
308.2000,0.250347,208.074,0.145269
308.1000,0.521709,207.5,0.137033
308.0000,0.945323,207.687,0.139715
307.9000,0.62677,207.739,0.140463
307.8000,1.73551,207.536,0.137553
307.7000,1.14976,207.217,0.132965
307.6000,1.51379,207.308,0.134283
307.5000,1.61255,207.476,0.136691
307.4000,0.395567,207.837,0.141876
307.3000,0.94999,207.271,0.133746
307.2000,0.932626,207.529,0.137456
307.1000,-0.501461,207.264,0.133649
307.0000,1.60075,208.062,0.145091
306.9000,1.02716,208.02,0.14449
306.8000,0.345391,207.035,0.130359
306.7000,0.263443,207.952,0.143516
306.6000,1.31893,207.686,0.139699
306.5000,-0.453389,207.686,0.139699
306.4000,-0.502219,207.571,0.138057
306.3000,2.45962,207.612,0.138643
306.2000,1.52781,207.814,0.141535
306.1000,1.17264,207.852,0.142087
306.0000,1.30729,207.317,0.134413
305.9000,1.51127,207.611,0.138626
305.8000,0.701569,207.488,0.13687
305.7000,0.627697,207.153,0.132053
305.6000,1.03294,207.955,0.143565
305.5000,2.38544,207.968,0.143744
305.4000,1.25197,207.616,0.138708
305.3000,1.85837,207.29,0.134023
305.2000,1.88571,207.343,0.134788
305.1000,1.40356,207.492,0.136919
305.0000,1.03095,207.876,0.142429
304.9000,2.64817,207.107,0.131385
304.8000,1.22403,207.582,0.13822
304.7000,1.14489,207.128,0.131695
304.6000,0.859387,207.379,0.135292
304.5000,3.1212,207.611,0.138626
304.4000,2.24825,207.856,0.142136
304.3000,2.32856,207.039,0.130408
304.2000,0.724956,207.016,0.130082
304.1000,1.70082,207.211,0.132883
304.0000,3.11141,208.012,0.144377
303.9000,0.194849,207.109,0.131417
303.8000,1.30452,207.998,0.144182
303.7000,0.832534,207.373,0.135211
303.6000,1.69395,207.228,0.133127
303.5000,1.63705,206.972,0.129446
303.4000,0.85399,206.896,0.128354
303.3000,2.08764,207.598,0.138448
303.2000,0.995526,207.713,0.140089
303.1000,-0.0135008,207.663,0.139374
303.0000,1.08988,208.435,0.150426
302.9000,1.02014,207.036,0.130375
302.8000,3.13418,207.288,0.13399
302.7000,-0.629153,207.358,0.134999
302.6000,0.810466,206.906,0.1285
302.5000,0.729954,207.759,0.140755
302.4000,0.816493,206.696,0.125483
302.3000,0.574245,206.421,0.121517
302.2000,0.294135,207.705,0.139975
302.1000,1.96666,207.825,0.141698
302.0000,2.23552,207.767,0.140869
301.9000,0.180566,207.576,0.138123
301.8000,0.779659,207.388,0.135422
301.7000,1.14867,207.641,0.139065
301.6000,3.35949,206.845,0.12762
301.5000,1.33125,207.368,0.135146
301.4000,1.36838,207.568,0.138009
301.3000,2.41038,206.477,0.122317
301.2000,-0.0608971,207.661,0.139342
301.1000,1.56656,207.226,0.133095
301.0000,0.602895,207.234,0.133209
300.9000,2.11184,206.664,0.12501
300.8000,0.746937,207.12,0.13158
300.7000,0.212153,206.88,0.128126
300.6000,2.47862,207.919,0.143045
300.5000,1.19966,206.456,0.122023
300.4000,2.25602,206.712,0.125712
300.3000,1.55545,206.863,0.127881
300.2000,1.50337,207.542,0.137635
300.1000,2.51781,207.535,0.137537
300.0000,0.705036,206.71,0.125679
299.9000,0.521942,206.546,0.123313
299.8000,2.51787,207.396,0.135536
299.7000,0.6022,206.905,0.128484
299.6000,0.469833,206.674,0.125157
299.5000,-0.191756,207.416,0.135829
299.4000,1.92156,206.778,0.126658
299.3000,3.52141,207.674,0.139537
299.2000,1.63459,207.035,0.130359
299.1000,0.121759,206.58,0.123803
299.0000,0.426283,206.667,0.125059
298.9000,0.615112,207.048,0.130538
298.8000,1.27563,207.112,0.131466
298.7000,1.13029,206.983,0.129609
298.6000,-0.156139,207.244,0.133355
298.5000,0.545495,207.536,0.137553
298.4000,0.665397,207.054,0.130636
298.3000,1.83749,206.845,0.12762
298.2000,2.05672,206.972,0.129446
298.1000,1.30249,206.836,0.12749
298.0000,2.32724,206.565,0.12359
297.9000,-1.54863,206.364,0.1207
297.8000,-0.349413,206.125,0.117251
297.7000,1.75829,207.204,0.132786
297.6000,1.07468,206.397,0.121174
297.5000,0.958216,207.635,0.138968
297.4000,0.842136,207.083,0.131043
297.3000,-0.0440193,207.507,0.13713
297.2000,1.58008,206.746,0.126201
297.1000,1.84359,207.082,0.131026
297.0000,1.993,206.412,0.121386
296.9000,0.0413168,206.917,0.128663
296.8000,1.05329,206.409,0.121337
296.7000,0.584812,207.011,0.130016
296.6000,1.13451,206.853,0.127734
296.5000,1.50719,206.6,0.124096
296.4000,0.509734,207.263,0.133632
296.3000,0.772192,206.579,0.123786
296.2000,1.44805,207.084,0.131059
296.1000,2.15128,206.879,0.128109
296.0000,2.23824,206.754,0.126316
295.9000,1.14905,206.745,0.126185
295.8000,-0.267701,206.797,0.126935
295.7000,1.68602,206.383,0.120961
295.6000,-0.297848,207.159,0.132134
295.5000,2.62161,206.469,0.122202
295.4000,0.931524,206.857,0.1278
295.3000,1.41465,207.078,0.130978
295.2000,-0.362972,206.971,0.12943
295.1000,-0.151984,206.418,0.121467
295.0000,0.397828,207.265,0.133665
294.9000,0.50939,206.657,0.124912
294.8000,2.96666,206.716,0.125761
294.7000,0.584708,207.27,0.13373
294.6000,0.902612,206.611,0.124259
294.5000,0.770863,206.489,0.122496
294.4000,0.978928,206.128,0.117284
294.3000,-0.0710469,206.47,0.122219
294.2000,-0.0637954,206.071,0.116466
294.1000,2.66207,206.553,0.123411
294.0000,1.3297,207.047,0.130521
293.9000,0.490151,206.231,0.118771
293.8000,0.772707,206.443,0.121827
293.7000,0.539747,207.13,0.131727
293.6000,1.91989,206.835,0.127473
293.5000,0.261948,206.827,0.127359
293.4000,0.592159,207.219,0.132997
293.3000,1.67548,206.84,0.127555
293.2000,1.77617,206.124,0.117234
293.1000,2.02486,206.604,0.124145
293.0000,0.662087,206.36,0.120634
292.9000,0.970029,206.283,0.119523
292.8000,1.18354,206.256,0.119131
292.7000,1.15399,206.448,0.121909
292.6000,0.408099,206.004,0.115501
292.5000,0.937611,206.244,0.118968
292.4000,2.54197,206.13,0.117316
292.3000,2.01712,206.682,0.125271
292.2000,2.08117,206.194,0.118248
292.1000,2.57832,206.258,0.119164
292.0000,1.34587,206.35,0.120487
291.9000,0.68412,205.668,0.110638
291.8000,2.17784,205.695,0.111032
291.7000,-0.190231,206.171,0.117905
291.6000,0.766245,206.366,0.120716
291.5000,0.897151,205.797,0.112506
291.4000,1.38561,205.353,0.106081
291.3000,2.07492,205.297,0.105277
291.2000,2.29109,205.674,0.110737
291.1000,3.38733,206.423,0.121549
291.0000,0.222792,206.044,0.116073
290.9000,1.14865,205.648,0.11036
290.8000,-1.41153,205.682,0.110851
290.7000,1.52035,205.252,0.104621
290.6000,0.351481,206.283,0.119523
290.5000,1.23425,205.588,0.109491
290.4000,2.36758,205.714,0.11131
290.3000,1.14935,205.968,0.114977
290.2000,-0.897137,206.02,0.11573
290.1000,1.35035,205.515,0.108426
290.0000,1.34295,206.201,0.118346
289.9000,0.496687,206.132,0.117349
289.8000,1.33423,206.066,0.1164
289.7000,-0.317683,206.409,0.121337
289.6000,0.671167,206.661,0.124978
289.5000,1.81575,206.538,0.123198
289.4000,1.25902,206.579,0.123786
289.3000,0.566945,206.142,0.117496
289.2000,0.360315,206.228,0.118739
289.1000,2.11516,206.447,0.121892
289.0000,0.637804,206.181,0.118052
288.9000,-0.371391,206.621,0.12439
288.8000,2.80574,205.809,0.112686
288.7000,0.885524,206.475,0.1223
288.6000,0.788261,206.032,0.11591
288.5000,2.24599,206.448,0.121909
288.4000,1.58065,206.625,0.124455
288.3000,-0.241238,206.191,0.118199
288.2000,0.347836,206.171,0.117905
288.1000,1.85762,207.008,0.129967
288.0000,2.42751,206.006,0.115534
287.9000,1.65567,206.475,0.1223
287.8000,0.750627,206.114,0.117087
287.7000,0.682417,205.734,0.111605
287.6000,1.22555,206.499,0.122643
287.5000,-0.149004,206.153,0.117643
287.4000,0.784507,205.431,0.107213
287.3000,-0.537474,206.679,0.125239
287.2000,1.84704,206.073,0.116498
287.1000,-1.1117,206.048,0.116139
287.0000,1.14886,206.142,0.117496
286.9000,2.91558,206.962,0.129299
286.8000,-1.96932,206.29,0.119621
286.7000,1.72458,205.808,0.112669
286.6000,1.87186,206.66,0.124961
286.5000,2.00147,206.469,0.122202
286.4000,0.46635,206.124,0.117234
286.3000,1.13707,206.086,0.116679
286.2000,2.41952,205.986,0.115239
286.1000,1.62795,206.017,0.115681
286.0000,0.770577,206.145,0.117529
285.9000,1.23965,206.377,0.120879
285.8000,0.730419,206.325,0.120128
285.7000,1.55666,205.8,0.112554
285.6000,2.69639,206.708,0.125646
285.5000,1.36398,206.962,0.129299
285.4000,1.80049,206.164,0.117807
285.3000,0.613267,205.672,0.110704
285.2000,-0.169816,206.089,0.116727
285.1000,0.346843,206.42,0.1215
285.0000,1.34679,205.705,0.111179
284.9000,0.242772,205.896,0.113946
284.8000,1.46655,205.989,0.115288
284.7000,0.0214652,205.833,0.113029
284.6000,0.342366,205.749,0.111818
284.5000,0.312657,206.831,0.127424
284.4000,0.630488,206.321,0.120079
284.3000,1.02162,205.866,0.113504
284.2000,1.60657,206.062,0.116335
284.1000,0.673189,206.038,0.115991
284.0000,0.705264,205.758,0.111949
283.9000,1.28278,206.177,0.118003
283.8000,-1.31795,206.193,0.118232
283.7000,2.05125,205.984,0.115206
283.6000,1.03464,206.035,0.115943
283.5000,0.193541,206.275,0.119409
283.4000,1.53596,206.125,0.117251
283.3000,2.7812,206.131,0.117333
283.2000,2.01962,206.315,0.119981
283.1000,0.836066,205.606,0.109753
283.0000,1.31398,205.723,0.111441
282.9000,1.2781,206.003,0.115484
282.8000,0.326218,206.02,0.11573
282.7000,0.691021,205.811,0.112718
282.6000,0.335201,206.427,0.121598
282.5000,1.10258,206.469,0.122202
282.4000,0.71632,205.951,0.114732
282.3000,-0.245522,206.431,0.121664
282.2000,-1.36542,206.71,0.125679
282.1000,1.04214,207.071,0.13088
282.0000,0.21441,205.971,0.115026
281.9000,0.987116,206.287,0.119589
281.8000,2.18075,206.772,0.126576
281.7000,0.471128,205.831,0.112997
281.6000,1.41731,206.404,0.121272
281.5000,-0.0435365,206.597,0.124047
281.4000,-0.875534,206.321,0.120079
281.3000,1.83294,205.504,0.108278
281.2000,-0.715429,205.797,0.112506
281.1000,2.11211,205.866,0.113504
281.0000,3.04981,206.506,0.122741
280.9000,1.69796,206.937,0.128941
280.8000,0.271986,206.591,0.123966
280.7000,0.601378,205.95,0.114715
280.6000,0.833385,206.729,0.125956
280.5000,1.22579,205.782,0.112293
280.4000,1.24275,206.716,0.125761
280.3000,0.189259,205.167,0.10339
280.2000,2.05275,205.625,0.110016
280.1000,0.691988,206.861,0.127848
280.0000,-0.341227,206.856,0.127783
279.9000,-0.51879,206.879,0.128109
279.8000,-1.32849,206.573,0.123705
279.7000,1.40775,206.373,0.12083
279.6000,0.794655,205.819,0.112833
279.5000,1.22351,205.964,0.114928
279.4000,0.807128,206.874,0.128044
279.3000,0.11085,206.429,0.121631
279.2000,2.05837,206.767,0.126495
279.1000,0.893595,206.301,0.119785
279.0000,2.06002,205.943,0.114617
278.9000,1.25257,206.49,0.122513
278.8000,1.19076,206.41,0.121353
278.7000,2.43524,206.111,0.117038
278.6000,0.354693,206.431,0.121664
278.5000,0.447797,205.738,0.111654
278.4000,0.70713,205.927,0.114388
278.3000,1.12582,205.859,0.113406
278.2000,1.68854,205.96,0.114862
278.1000,2.23984,206.281,0.119491
278.0000,0.0615161,205.955,0.114797
277.9000,1.0178,206.16,0.117758
277.8000,1.31197,205.64,0.110245
277.7000,1.44313,207.122,0.131613
277.6000,0.304611,206.24,0.118902
277.5000,1.30255,206.725,0.125891
277.4000,-0.784315,206.052,0.116188
277.3000,-0.643957,205.927,0.114388
277.2000,0.310575,206.779,0.126674
277.1000,1.12046,206.363,0.120684
277.0000,2.07174,206.79,0.126837
276.9000,1.19868,206.829,0.127392
276.8000,0.454156,205.741,0.111703
276.7000,0.780034,205.652,0.110409
276.6000,2.35358,206.444,0.121843
276.5000,0.790703,206.454,0.12199
276.4000,2.14186,206.84,0.127555
276.3000,0.749114,206.67,0.125108
276.2000,0.212783,206.539,0.123215
276.1000,1.81679,205.858,0.113389
276.0000,0.764872,205.564,0.109147
275.9000,0.546309,207.78,0.141048
275.8000,3.01926,206.789,0.126821
275.7000,1.93279,206.128,0.117284
275.6000,-0.33653,206.446,0.121876
275.5000,1.87328,205.474,0.107836
275.4000,0.781793,206.002,0.115468
275.3000,1.99845,207.031,0.130293
275.2000,1.06725,207.016,0.130082
275.1000,0.372409,206.513,0.122839
275.0000,0.625601,205.781,0.112276
274.9000,0.327221,206.827,0.127359
274.8000,0.408033,206.344,0.120406
274.7000,1.81474,206.315,0.119981
274.6000,0.896193,206.804,0.127033
274.5000,0.986774,206.361,0.120651
274.4000,0.366135,206.396,0.121157
274.3000,-0.520392,206.163,0.11779
274.2000,0.163884,206.64,0.124667
274.1000,1.35045,206.488,0.12248
274.0000,-1.06569,207.037,0.130391
273.9000,-0.113478,206.557,0.123476
273.8000,1.78705,207.175,0.132362
273.7000,0.166414,206.275,0.119409
273.6000,1.41679,206.707,0.12563
273.5000,0.213906,206.903,0.128452
273.4000,1.25686,206.362,0.120667
273.3000,-0.0446747,206.33,0.12021
273.2000,0.575702,206.197,0.118281
273.1000,-0.0140613,206.828,0.127376
273.0000,-0.31174,206.522,0.12297
272.9000,0.622005,207.155,0.132085
272.8000,1.37415,207.003,0.129902
272.7000,2.16783,206.064,0.116368
272.6000,1.32753,206.798,0.126951
272.5000,0.55875,206.584,0.123868
272.4000,0.950161,205.983,0.11519
272.3000,1.52476,206.6,0.124096
272.2000,0.857644,206.766,0.126479
272.1000,3.13867,206.882,0.128158
272.0000,0.940137,206.65,0.124814
271.9000,0.295882,206.882,0.128158
271.8000,0.247886,206.82,0.127261
271.7000,1.60477,206.611,0.124259
271.6000,1.41333,206.786,0.126772
271.5000,1.5507,207.076,0.130945
271.4000,1.40851,206.299,0.119752
271.3000,1.24449,205.961,0.114879
271.2000,0.719704,206.549,0.123362
271.1000,2.49737,206.485,0.122431
271.0000,1.42076,206.182,0.118069
270.9000,0.0319434,206.396,0.121157
270.8000,0.602686,208.174,0.146697
270.7000,-1.516,207.701,0.139927
270.6000,1.49855,205.946,0.114666
270.5000,0.51413,206.934,0.128908
270.4000,2.3747,206.951,0.129152
270.3000,-1.59796,206.879,0.128109
270.2000,2.75888,206.772,0.126576
270.1000,1.60826,207.295,0.134088
270.0000,1.36005,207.237,0.133258
269.9000,0.71304,207.058,0.130684
269.8000,0.430626,206.643,0.124716
269.7000,1.15694,207.218,0.132981
269.6000,0.603553,207.381,0.135325
269.5000,-0.855159,207.299,0.134153
269.4000,-0.264839,206.214,0.118526
269.3000,0.721927,207.587,0.138285
269.2000,1.30439,207.241,0.133323
269.1000,0.125876,207.385,0.13539
269.0000,0.962711,207.759,0.140755
268.9000,-0.217762,207.35,0.134885
268.8000,-0.707411,206.106,0.116973
268.7000,-1.32335,207.028,0.130261
268.6000,2.86845,207.115,0.131499
268.5000,2.50615,207.453,0.136366
268.4000,0.312709,206.964,0.129332
268.3000,0.216938,207.284,0.133941
268.2000,0.436572,207.171,0.132313
268.1000,0.947135,207.494,0.136952
268.0000,0.51832,207.307,0.134267
267.9000,-0.217553,207.141,0.131874
267.8000,-0.618263,207.575,0.138106
267.7000,-0.0431912,207.082,0.131026
267.6000,0.208656,207.594,0.138383
267.5000,-0.850499,207.467,0.136561
267.4000,-0.446841,207.431,0.136041
267.3000,0.847664,207.498,0.137
267.2000,1.35155,207.158,0.132118
267.1000,-0.551044,207.25,0.133453
267.0000,0.00962549,207.768,0.140886
266.9000,-0.398169,207.394,0.13552
266.8000,1.17855,207.877,0.142445
266.7000,1.0561,206.93,0.128843
266.6000,-0.463348,208.079,0.145334
266.5000,0.296576,206.962,0.129299
266.4000,0.366962,208.067,0.145172
266.3000,2.16871,207.622,0.138789
266.2000,1.88413,207.586,0.138269
266.1000,-0.0921883,207.618,0.138724
266.0000,0.95267,208.403,0.149972
265.9000,1.38791,208.905,0.157144
265.8000,1.13968,208.065,0.145139
265.7000,0.473691,208.166,0.146583
265.6000,0.653804,208.89,0.156934
265.5000,1.96225,208.449,0.150636
265.4000,0.0404167,208.075,0.145286
265.3000,1.73466,207.846,0.142006
265.2000,-0.446245,208.577,0.152467
265.1000,-0.858337,207.994,0.144117
265.0000,0.139399,208.112,0.145805
264.9000,0.936221,208.577,0.152467
264.8000,1.15438,208.721,0.154523
264.7000,1.51383,208.201,0.147086
264.6000,1.00873,208.177,0.146746
264.5000,1.3946,207.752,0.140658
264.4000,0.707678,207.544,0.137667
264.3000,2.41236,208.684,0.153989
264.2000,0.734871,207.333,0.134641
264.1000,-0.506713,208.133,0.146113
264.0000,0.163288,208.01,0.144344
263.9000,-0.0582742,208.257,0.147881
263.8000,0.29946,208.414,0.150134
263.7000,-0.423345,208.393,0.149826
263.6000,0.393116,208.931,0.157516
263.5000,2.00508,208.439,0.150491
263.4000,1.36763,208.808,0.155769
263.3000,-0.190506,208.49,0.15122
263.2000,-0.11955,208.744,0.154847
263.1000,1.84948,208.926,0.157451
263.0000,0.669085,208.397,0.149891
262.9000,0.962313,207.801,0.141356
262.8000,1.46526,208.938,0.157613
262.7000,0.765063,208.754,0.154993
262.6000,2.47063,208.617,0.153034
262.5000,1.02382,208.846,0.156303
262.4000,1.99711,209.851,0.170624
262.3000,0.388082,208.976,0.158163
262.2000,-1.40669,209.417,0.164447
262.1000,2.48631,209.621,0.167352
262.0000,0.433284,209.976,0.172396
261.9000,1.03214,209.628,0.167448
261.8000,-0.817623,209.248,0.162042
261.7000,-1.60106,208.734,0.154701
261.6000,-0.641753,209.16,0.160781
261.5000,-0.253714,209.343,0.163398
261.4000,2.15591,210.285,0.176791
261.3000,-0.100379,208.284,0.14827
261.2000,0.206516,209.333,0.163253
261.1000,0.943352,208.781,0.155381
261.0000,0.727931,209.997,0.172702
260.9000,1.66221,209.238,0.161896
260.8000,0.818986,208.883,0.156837
260.7000,-0.0331319,209.645,0.16769
260.6000,0.757668,209.668,0.168029
260.5000,1.06225,209.342,0.163382
260.4000,0.246982,209.361,0.163656
260.3000,0.299144,209.034,0.158987
260.2000,2.70768,209.528,0.166029
260.1000,-0.988627,209.607,0.167158
260.0000,0.478297,209.94,0.171897
259.9000,-0.396857,209.265,0.162284
259.8000,0.813251,209.717,0.168722
259.7000,1.84364,209.466,0.165141
259.6000,0.385453,209.82,0.170189
259.5000,0.996064,209.719,0.168755
259.4000,0.921314,210.266,0.176517
259.3000,0.150485,210.48,0.179556
259.2000,0.595955,209.245,0.161993
259.1000,1.32833,209.844,0.170528
259.0000,0.844728,210.456,0.179219
258.9000,0.642539,209.724,0.168819
258.8000,0.664753,210.957,0.186317
258.7000,1.13484,209.323,0.163107
258.6000,0.585142,210.284,0.176775
258.5000,0.701682,209.962,0.172203
258.4000,0.0492973,209.972,0.172348
258.3000,1.11533,210.374,0.178061
258.2000,0.390325,209.644,0.167674
258.1000,0.437266,210.281,0.176742
258.0000,-0.533388,209.616,0.167287
257.9000,1.79445,209.729,0.168884
257.8000,-0.35349,210.089,0.174006
257.7000,-1.03296,210.044,0.173362
257.6000,0.605535,210.49,0.179701
257.5000,2.10498,210.795,0.184022
257.4000,0.658718,210.668,0.182224
257.3000,2.01151,210.139,0.174715
257.2000,1.03157,211.216,0.189989
257.1000,-0.55589,210.649,0.181951
257.0000,-0.155499,209.397,0.164157
256.9000,-0.268955,210.84,0.184664
256.8000,-0.00931364,210.213,0.175777
256.7000,1.45717,210.147,0.174827
256.6000,0.810177,210.87,0.185082
256.5000,2.14186,210.36,0.177852
256.4000,0.631358,210.624,0.181597
256.3000,-0.225512,211.13,0.188771
256.2000,0.678845,210.658,0.182079
256.1000,0.126987,210.918,0.185772
256.0000,-0.638553,211.519,0.194267
255.9000,-0.478533,210.939,0.18606
255.8000,-1.28857,210.919,0.185788
255.7000,0.945315,211.093,0.188242
255.6000,3.53824,211.308,0.191287
255.5000,1.45507,211.068,0.187889
255.4000,0.56323,210.891,0.185387
255.3000,2.08386,210.653,0.182015
255.2000,0.0830448,211.187,0.189573
255.1000,0.469376,210.899,0.185499
255.0000,0.81138,211.079,0.18805
254.9000,0.965974,211.141,0.188932
254.8000,0.485626,211.07,0.187921
254.7000,0.477044,211.375,0.192233
254.6000,1.09262,211.284,0.190951
254.5000,1.22912,211.107,0.188451
254.4000,1.69636,211.068,0.187889
254.3000,0.872414,211.626,0.195787
254.2000,1.52421,211.262,0.190631
254.1000,0.264814,211.571,0.195003
254.0000,1.3869,211.629,0.195819
253.9000,1.32901,211.822,0.198554
253.8000,-0.368396,211.32,0.191464
253.7000,0.731491,211.478,0.19369
253.6000,1.30607,211.793,0.198139
253.5000,-0.419762,211.359,0.192008
253.4000,-0.675574,211.48,0.193722
253.3000,1.15746,212.009,0.201192
253.2000,1.86614,211.561,0.194859
253.1000,0.241861,211.793,0.198139
253.0000,-0.893068,211.798,0.198203
252.9000,3.48279,211.736,0.197339
252.8000,-1.14989,212.944,0.21435
252.7000,1.99984,212.316,0.205519
252.6000,1.92165,211.718,0.197083
252.5000,1.05493,212.599,0.209491
252.4000,-0.887839,212.672,0.210527
252.3000,0.160631,212.264,0.204785
252.2000,1.56561,212.293,0.205184
252.1000,0.360515,211.188,0.189589
252.0000,-0.504972,211.79,0.198091
251.9000,1.16812,212.287,0.205104
251.8000,0.343186,212.077,0.20215
251.7000,-2.19832,212.485,0.207897
251.6000,3.23664,212.511,0.208264
251.5000,1.457,212.898,0.213698
251.4000,0.0226482,211.794,0.198155
251.3000,-1.16402,212.674,0.210559
251.2000,1.71349,213.001,0.215146
251.1000,0.588668,212.348,0.205966
251.0000,-1.0229,212.194,0.203796
250.9000,-0.522741,212.395,0.20662
250.8000,0.649926,212.421,0.206988
250.7000,1.26753,212.831,0.212758
250.6000,0.889555,212.332,0.205743
250.5000,1.75781,213.246,0.218583
250.4000,0.863015,213.411,0.220904
250.3000,1.31888,212.844,0.212949
250.2000,0.367147,213.022,0.215449
250.1000,0.630083,213.001,0.215146
250.0000,1.02814,211.853,0.198986
249.9000,0.680596,213.144,0.217151
249.8000,-0.874501,212.995,0.215067
249.7000,1.37224,213.025,0.215481
249.6000,1.80354,212.647,0.210177
249.5000,1.55355,212.837,0.212838
249.4000,-1.00398,213.02,0.215417
249.3000,1.50672,212.063,0.201943
249.2000,0.991331,213.037,0.215656
249.1000,0.250219,213.336,0.219855
249.0000,0.155823,213.03,0.21556
248.9000,2.03539,213.192,0.217835
248.8000,1.49633,212.975,0.21478
248.7000,1.97973,212.976,0.214796
248.6000,0.617216,213.699,0.224938
248.5000,1.4342,213.473,0.221778
248.4000,0.30485,212.318,0.205536
248.3000,-0.300936,212.793,0.212232
248.2000,1.16901,213.762,0.225827
248.1000,-0.407407,213.161,0.21739
248.0000,-0.161391,213.097,0.216499
247.9000,2.13506,213.759,0.22578
247.8000,-0.289367,213.582,0.223303
247.7000,2.40708,213.646,0.224192
247.6000,0.675949,214.055,0.229919
247.5000,0.171115,213.511,0.222302
247.4000,1.59486,213.395,0.220681
247.3000,1.61632,213.825,0.2267
247.2000,1.18589,213.085,0.216324
247.1000,1.28584,213.299,0.21933
247.0000,2.06688,213.951,0.228477
246.9000,-1.20651,214.295,0.233279
246.8000,-0.249184,214.487,0.23597
246.7000,0.596143,214.553,0.236888
246.6000,2.74407,213.717,0.225192
246.5000,0.0443503,213.938,0.228286
246.4000,0.34772,214.464,0.235638
246.3000,0.626687,213.929,0.228159
246.2000,1.05068,214.695,0.238865
246.1000,-0.052958,213.291,0.219219
246.0000,0.698375,214.574,0.237173
245.9000,1.10387,212.955,0.21451
245.8000,-0.187162,214.05,0.229856
245.7000,-0.331333,213.287,0.219171
245.6000,1.09057,213.859,0.227176
245.5000,1.88524,214.947,0.24239
245.4000,1.43565,214.817,0.240573
245.3000,0.449215,214.013,0.229333
245.2000,0.659848,214.855,0.241094
245.1000,1.75715,213.812,0.226525
245.0000,0.910545,212.903,0.213777
244.9000,-0.500925,215.857,0.255054
244.8000,0.811633,213.608,0.223668
244.7000,-0.0211161,214.962,0.242595
244.6000,0.376912,214.521,0.236445
244.5000,0.365584,214.543,0.236746
244.4000,-0.195333,214.302,0.233374
244.3000,-0.262078,214.671,0.238533
244.2000,-0.020123,214.669,0.238502
244.1000,0.522805,214.702,0.23896
244.0000,1.02153,213.181,0.217676
243.9000,-0.292391,214.371,0.23434
243.8000,2.08394,215.054,0.243875
243.7000,1.76455,215.257,0.246701
243.6000,3.65751,214.997,0.243085
243.5000,0.650059,215.522,0.250391
243.4000,0.386937,214.968,0.242674
243.3000,-1.39084,215.334,0.247774
243.2000,-0.237776,215.037,0.243638
243.1000,1.68084,215.163,0.245391
243.0000,2.06173,215.702,0.252897
242.9000,1.50376,214.927,0.242106
242.8000,1.80133,215.308,0.247411
242.7000,1.83046,215.209,0.246038
242.6000,-0.152095,215.191,0.245785
242.5000,0.0797224,215.632,0.25192
242.4000,-0.690354,215.729,0.253275
242.3000,-0.204891,215.59,0.251337
242.2000,0.832694,215.807,0.254362
242.1000,-0.938386,216.216,0.260042
242.0000,2.41079,216.049,0.257714
241.9000,1.06263,215.509,0.250218
241.8000,0.943018,215.895,0.255574
241.7000,1.98782,216.013,0.257211
241.6000,-1.14891,215.923,0.255967
241.5000,0.755275,216.278,0.260891
241.4000,-1.59388,216.07,0.258013
241.3000,2.04242,216.218,0.260058
241.2000,0.878777,216.243,0.260403
241.1000,0.998664,216.644,0.265964
241.0000,-0.260744,216.842,0.26871
240.9000,0.606013,216.733,0.267204
240.8000,2.21554,216.185,0.259601
240.7000,-0.202596,216.76,0.267581
240.6000,-0.717411,216.309,0.261331
240.5000,1.815,217.203,0.27371
240.4000,0.148005,216.474,0.263609
240.3000,-0.443981,216.09,0.25828
240.2000,1.56315,216.543,0.264567
240.1000,1.80389,217.199,0.273647
240.0000,1.29864,216.959,0.270325
239.9000,1.47193,216.692,0.266639
239.8000,2.90515,217.678,0.280267
239.7000,1.99509,217.696,0.280517
239.6000,1.0586,217.134,0.272755
239.5000,1.58299,217.628,0.279579
239.4000,-0.42978,217.084,0.272065
239.3000,0.420682,217.377,0.276106
239.2000,1.53815,217.371,0.276028
239.1000,0.803442,218.476,0.291258
239.0000,-0.451257,216.863,0.269008
238.9000,-0.26413,217.688,0.280408
238.8000,2.77256,217.756,0.281346
238.7000,0.198119,217.7,0.280564
238.6000,0.487451,218.126,0.286438
238.5000,0.466902,217.788,0.281783
238.4000,-0.467232,218.342,0.289418
238.3000,1.08946,218.551,0.292287
238.2000,-0.459629,218.568,0.29252
238.1000,-0.542999,217.561,0.278656
238.0000,0.007743,218.592,0.292863
237.9000,2.53982,218.179,0.287171
237.8000,1.95985,218.472,0.291211
237.7000,1.48782,218.681,0.294078
237.6000,1.42141,218.451,0.290915
237.5000,0.41372,219.314,0.302775
237.4000,-0.338672,219.238,0.301733
237.3000,1.81069,218.578,0.292661
237.2000,3.89259,219.289,0.302433
237.1000,0.538683,218.617,0.293206
237.0000,1.54037,218.903,0.29713
236.9000,0.574472,219.82,0.309699
236.8000,0.846013,219.336,0.30307
236.7000,2.09642,218.98,0.298188
236.6000,0.273706,219.712,0.308225
236.5000,1.63865,219.326,0.30293
236.4000,0.986387,220.105,0.313605
236.3000,0.392793,219.568,0.306254
236.2000,-0.277041,219.891,0.310676
236.1000,0.491166,219.777,0.309109
236.0000,0.422409,220.022,0.312474
235.9000,2.73968,219.854,0.310164
235.8000,1.78034,219.619,0.306952
235.7000,-0.727202,219.408,0.304064
235.6000,-1.40705,220.498,0.318977
235.5000,2.30071,219.997,0.312133
235.4000,0.869801,220.127,0.313899
235.3000,2.53699,220.702,0.321761
235.2000,1.0778,220.153,0.314256
235.1000,-0.133192,220.888,0.324295
235.0000,0.672512,220.363,0.317136
234.9000,0.675953,220.549,0.319673
234.8000,0.759437,219.82,0.309699
234.7000,-0.678477,221.231,0.328973
234.6000,3.0795,220.51,0.319132
234.5000,0.979603,220.818,0.323337
234.4000,1.83283,221.341,0.330469
234.3000,0.247037,220.911,0.324604
234.2000,0.828919,220.657,0.321142
234.1000,1.94889,221.152,0.327892
234.0000,2.13631,221.331,0.33033
233.9000,-0.858795,221.461,0.332103
233.8000,1.70182,221.689,0.3352
233.7000,0.266358,221.693,0.335246
233.6000,2.71847,221.898,0.338033
233.5000,3.26136,221.667,0.334892
233.4000,1.01987,221.287,0.329729
233.3000,-0.223721,222.359,0.344291
233.2000,0.846476,222.264,0.343
233.1000,2.52996,222.411,0.344998
233.0000,1.36054,223.129,0.354723
232.9000,3.74313,222.004,0.339479
232.8000,0.63904,222.258,0.342924
232.7000,1.19157,221.887,0.337895
232.6000,0.233392,222.216,0.342355
232.5000,2.1489,222.274,0.343139
232.4000,2.51101,222.682,0.348667
232.3000,0.347526,222.268,0.343062
232.2000,0.583847,223.134,0.354785
232.1000,0.979811,223.112,0.354494
232.0000,3.46914,223.69,0.362299
231.9000,0.657451,223.263,0.356531
231.8000,2.80484,223.195,0.355612
231.7000,0.991912,224.145,0.368424
231.6000,0.398927,223.142,0.354892
231.5000,1.13308,223.226,0.356025
231.4000,-0.5214,223.125,0.354662
231.3000,0.775144,223.38,0.358107
231.2000,2.0961,223.781,0.363522
231.1000,0.200857,223.143,0.354907
231.0000,0.186706,224.053,0.367188
230.9000,0.51936,224.286,0.370331
230.8000,1.09465,223.69,0.362299
230.7000,1.21437,223.734,0.362895
230.6000,1.13349,223.962,0.365966
230.5000,2.05671,224.141,0.368378
230.4000,1.94023,223.964,0.365997
230.3000,-1.68157,224.164,0.368684
230.2000,1.20768,224.256,0.36992
230.1000,2.53403,224.94,0.379123
230.0000,-1.43492,223.638,0.361596
229.9000,1.98207,224.684,0.375682
229.8000,1.70617,224.395,0.371795
229.7000,1.28285,224.453,0.372573
229.6000,2.55579,224.488,0.373046
229.5000,-0.265055,223.607,0.361183
229.4000,1.56281,223.899,0.365111
229.3000,3.10218,224.871,0.378194
229.2000,-0.0973831,224.903,0.37862
229.1000,2.05113,224.915,0.378788
229.0000,-2.07991,225.056,0.380675
228.9000,0.747686,225.232,0.383047
228.8000,0.294603,225.608,0.38809
228.7000,-0.413043,225.299,0.383944
228.6000,1.47841,225.389,0.385144
228.5000,0.133747,225.415,0.385493
228.4000,1.51948,225.872,0.391626
228.3000,0.549559,225.577,0.387665
228.2000,2.03293,225.339,0.384475
228.1000,0.175388,226.308,0.397445
228.0000,1.1519,226.652,0.402045
227.9000,1.4796,226.254,0.396733
227.8000,0.951322,227.058,0.407455
227.7000,1.77152,226.838,0.404524
227.6000,1.97031,226.865,0.404887
227.5000,1.08584,226.594,0.401274
227.4000,-0.67079,227.17,0.40895
227.3000,0.789798,227.288,0.410519
227.2000,2.51152,226.461,0.399488
227.1000,-0.6233,226.989,0.406534
227.0000,1.35067,227.616,0.414892
226.9000,-2.97074,227.403,0.412058
226.8000,1.0324,228.013,0.420163
226.7000,-0.375693,227.505,0.413415
226.6000,-0.816702,227.302,0.410715
226.5000,-0.141952,227.664,0.415525
226.4000,1.29288,227.554,0.414063
226.3000,0.856087,227.715,0.416203
226.2000,0.778212,227.829,0.417724
226.1000,1.25208,228.422,0.425591
226.0000,1.05159,228.794,0.430517
225.9000,0.335114,228.228,0.423021
225.8000,0.0183153,228.158,0.422089
225.7000,1.00463,228.241,0.423186
225.6000,2.77823,229.065,0.434116
225.5000,1.63526,228.654,0.42867
225.4000,0.779194,229.302,0.437248
225.3000,2.55863,229.172,0.435525
225.2000,-0.581243,228.852,0.431297
225.1000,0.849326,229.598,0.441155
225.0000,0.574546,229.544,0.440437
224.9000,2.84894,229.48,0.439599
224.8000,0.433937,230.11,0.447912
224.7000,-0.881833,229.53,0.440258
224.6000,0.239778,229.681,0.442247
224.5000,2.41021,229.59,0.441051
224.4000,2.99043,230.059,0.44724
224.3000,-0.307929,230.588,0.45421
224.2000,-1.12628,230.857,0.457741
224.1000,0.339231,230.427,0.452092
224.0000,2.60134,230.067,0.447345
223.9000,3.20629,229.921,0.445417
223.8000,2.11885,230.268,0.449988
223.7000,2.17609,230.6,0.454359
223.6000,0.903031,231.091,0.460823
223.5000,1.03298,231.754,0.469519
223.4000,-0.938036,231.429,0.465256
223.3000,0.974954,231.224,0.462564
223.2000,0.343881,232.037,0.473229
223.1000,0.412077,231.556,0.46692
223.0000,-1.07695,230.085,0.447584
222.9000,-1.52429,232.363,0.477484
222.8000,0.169899,232.291,0.47655
222.7000,0.118682,232.537,0.479765
222.6000,2.0758,230.605,0.454433
222.5000,1.12663,231.154,0.461642
222.4000,3.30448,232.07,0.47366
222.3000,0.640383,231.992,0.472636
222.2000,3.05525,231.923,0.471731
222.1000,0.148219,232.933,0.484929
222.0000,0.693685,231.477,0.46588
221.9000,-1.78527,233.379,0.490749
221.8000,-1.44022,232.597,0.480549
221.7000,1.74262,231.758,0.469564
221.6000,0.901235,233.353,0.49041
221.5000,0.637106,232.763,0.48271
221.4000,1.03517,233.322,0.490011
221.3000,4.47176,233.214,0.488594
221.2000,-1.54758,233.583,0.493406
221.1000,1.19309,234.304,0.502776
221.0000,0.114621,233.423,0.491325
220.9000,0.619065,234.766,0.508774
220.8000,-0.584172,233.489,0.492181
220.7000,3.22261,233.921,0.497799
220.6000,1.25503,232.794,0.483124
220.5000,-0.143064,233.052,0.486481
220.4000,1.56834,233.3,0.489716
220.3000,1.34023,234.77,0.508833
220.2000,0.425332,233.796,0.496178
220.1000,2.0132,234.159,0.500892
220.0000,0.542171,234.876,0.510199
219.9000,2.49384,234.752,0.508598
219.8000,4.50187,235.513,0.518442
219.7000,0.81762,234.118,0.500362
219.6000,1.5066,235.555,0.518984
219.5000,2.04707,235.012,0.51196
219.4000,0.56425,235.292,0.515584
219.3000,2.40175,235.224,0.514704
219.2000,0.0531707,234.716,0.508128
219.1000,-0.319598,235.37,0.516596
219.0000,1.46034,235.245,0.514983
218.9000,0.559606,235.639,0.520083
218.8000,2.07651,235.475,0.517959
218.7000,0.745008,235.559,0.519043
218.6000,1.16265,236.621,0.532744
218.5000,-1.1435,235.407,0.517079
218.4000,-2.20573,235.105,0.513164
218.3000,1.54433,235.763,0.521679
218.2000,1.91561,236.497,0.531153
218.1000,3.03351,236.286,0.528436
218.0000,2.47686,237.188,0.540049
217.9000,1.2852,236.499,0.531182
217.8000,3.67076,236.706,0.533838
217.7000,1.9614,236.751,0.534422
217.6000,2.39994,237.084,0.538708
217.5000,3.42409,237.04,0.53814
217.4000,2.89664,236.691,0.533648
217.3000,3.13762,237.312,0.541636
217.2000,-0.0501842,237.708,0.546728
217.1000,2.36615,237.287,0.541315
217.0000,2.83093,237.258,0.540937
216.9000,-1.90691,237.313,0.54165
216.8000,-0.367314,238.14,0.552264
216.7000,0.709142,237.993,0.550376
216.6000,1.03328,238.566,0.557718
216.5000,-1.59779,238.797,0.560674
216.4000,1.8066,238.513,0.557037
216.3000,0.0866661,238.468,0.556457
216.2000,0.868164,238.485,0.556674
216.1000,-1.62716,238.445,0.556167
216.0000,-0.90253,238.64,0.55866
215.9000,1.37124,238.438,0.55608
215.8000,1.53448,239.116,0.564742
215.7000,-0.589888,239.278,0.566811
215.6000,1.13164,239.554,0.570337
215.5000,3.15463,239.026,0.563599
215.4000,-1.67932,238.727,0.559776
215.3000,1.31707,238.937,0.562455
215.2000,1.83766,238.82,0.560964
215.1000,0.0829961,239.645,0.571493
215.0000,-1.51214,239.341,0.567621
214.9000,-1.22966,239.864,0.574279
214.8000,0.466245,239.685,0.571998
214.7000,-1.64084,239.987,0.575852
214.6000,1.87595,239.793,0.573384
214.5000,2.29914,240.167,0.578145
214.4000,0.670129,241.064,0.589531
214.3000,-1.72857,240.513,0.582539
214.2000,-0.675839,239.826,0.573803
214.1000,-0.785567,240.737,0.585389
214.0000,0.243979,241.142,0.590522
213.9000,1.86017,240.872,0.587101
213.8000,3.54509,240.924,0.587763
213.7000,0.991604,240.711,0.585058
213.6000,4.19016,240.992,0.588625
213.5000,1.39512,240.465,0.581935
213.4000,2.30533,241.104,0.590048
213.3000,1.56109,241.267,0.592117
213.2000,2.01468,241.801,0.598875
213.1000,3.57761,240.575,0.583331
213.0000,2.81358,241.008,0.588827
212.9000,0.309133,241.298,0.592505
212.8000,3.08902,240.547,0.582971
212.7000,1.73412,240.822,0.586468
212.6000,0.519943,241.782,0.598631
212.5000,-0.110056,242.491,0.607596
212.4000,2.13375,242.215,0.604104
212.3000,3.87413,242.174,0.603589
212.2000,-0.0429324,241.592,0.596222
212.1000,0.475451,242.347,0.605779
212.0000,-0.484876,242.534,0.608139
211.9000,1.18338,242.675,0.609912
211.8000,3.10007,242.553,0.608382
211.7000,2.50375,243.151,0.61591
211.6000,1.34631,242.573,0.608625
211.5000,1.97976,243.97,0.626213
211.4000,0.892038,243.241,0.617051
211.3000,2.44317,242.861,0.612255
211.2000,1.94941,243.362,0.618577
211.1000,1.46062,243.646,0.622141
211.0000,0.407488,242.991,0.613897
210.9000,-0.684464,243.391,0.618934
210.8000,0.983296,243.914,0.625515
210.7000,2.0103,244.245,0.629669
210.6000,2.72862,244.413,0.631773
210.5000,1.2453,244.03,0.626967
210.4000,-0.567821,244.219,0.629342
210.3000,2.66809,245.292,0.642782
210.2000,1.18216,244.136,0.628304
210.1000,0.568726,244.43,0.631986
210.0000,3.53411,245.42,0.644383
209.9000,3.0419,245.081,0.640146
209.8000,-0.122553,245.139,0.640869
209.7000,1.93481,245.346,0.643462
209.6000,2.20171,245.477,0.645091
209.5000,0.759195,245.843,0.649661
209.4000,-0.857181,245.838,0.649604
209.3000,0.873682,245.661,0.647398
209.2000,1.64417,246.621,0.659363
209.1000,2.30001,246.638,0.659575
209.0000,-1.24414,246.165,0.653675
208.9000,0.124859,246.261,0.654875
208.8000,0.417727,246.784,0.661393
208.7000,0.537559,246.344,0.655906
208.6000,2.96406,246.725,0.66066
208.5000,1.41174,247.035,0.664507
208.4000,1.71563,246.681,0.66011
208.3000,-0.554628,248.1,0.677723
208.2000,-3.83979,248.822,0.686651
208.1000,2.06604,247.238,0.667027
208.0000,1.79279,247.55,0.67091
207.9000,4.75122,248.492,0.682575
207.8000,0.386813,247.878,0.674971
207.7000,0.807633,248.49,0.682547
207.6000,0.91936,248.704,0.685195
207.5000,-0.0589203,248.179,0.678705
207.4000,-0.948652,248.806,0.686455
207.3000,1.24048,248.74,0.685643
207.2000,-0.452657,248.832,0.686777
207.1000,2.24065,249.247,0.691898
207.0000,-0.0538528,250.073,0.702076
206.9000,0.340046,248.692,0.685055
206.8000,2.25357,247.865,0.674816
206.7000,0.863912,248.783,0.686175
206.6000,3.67913,249.957,0.700653
206.5000,1.59087,250.77,0.710654
206.4000,2.91207,251.099,0.714686
206.3000,2.15817,250.937,0.712698
206.2000,0.41324,250.44,0.70659
206.1000,3.04552,250.682,0.709569
206.0000,0.758082,250.951,0.712865
205.9000,-1.10418,250.761,0.710543
205.8000,1.5754,251.104,0.714742
205.7000,0.79341,252.374,0.730285
205.6000,-1.37337,251.575,0.720517
205.5000,1.03292,253.062,0.738674
205.4000,-0.477007,252.4,0.730603
205.3000,0.0158786,252.534,0.732235
205.2000,-0.473796,251.331,0.717533
205.1000,4.07302,252.879,0.736451
205.0000,-0.809192,252.735,0.734696
204.9000,-1.58633,252.741,0.734765
204.8000,0.728031,252.953,0.737349
204.7000,-0.124549,253.343,0.742097
204.6000,1.65367,253.278,0.741311
204.5000,-0.308025,253.946,0.749441
204.4000,4.09573,253.6,0.745226
204.3000,3.68616,253.67,0.746081
204.2000,-1.82948,253.216,0.740552
204.1000,2.12766,254.905,0.761069
204.0000,3.02335,254.156,0.751987
203.9000,0.317705,254.586,0.757197
203.8000,2.96838,254.298,0.753706
203.7000,-1.28947,255.604,0.769526
203.6000,-1.35356,255.504,0.768321
203.5000,1.13938,256.146,0.776065
203.4000,0.653177,255.944,0.773632
203.3000,2.7824,256.522,0.7806
203.2000,0.587883,255.61,0.769595
203.1000,2.14438,256.976,0.78607
203.0000,-2.41775,255.527,0.768595
202.9000,-0.823045,256.771,0.783602
202.8000,0.445908,257.147,0.788128
202.7000,2.06354,257.392,0.79107
202.6000,-2.43688,257.725,0.79507
202.5000,1.72513,258.235,0.801184
202.4000,2.88643,256.761,0.783479
202.3000,-1.72335,258.376,0.802867
202.2000,1.06683,258.505,0.804413
202.1000,3.12208,257.718,0.794988
202.0000,5.09054,259.809,0.819993
201.9000,-0.12075,259.344,0.814451
201.8000,0.473247,259.638,0.817953
201.7000,1.09284,259.366,0.814708
201.6000,2.47194,260.003,0.822303
201.5000,-2.28728,260.343,0.82635
201.4000,0.125276,260.524,0.828507
201.3000,0.350699,261.409,0.839018
201.2000,-1.97623,260.446,0.827577
201.1000,3.91508,261.248,0.837109
201.0000,0.242804,260.826,0.832104
200.9000,-1.04762,262.085,0.847033
200.8000,-1.87071,261.962,0.845571
200.7000,-0.994344,262.153,0.847837
200.6000,0.832482,261.231,0.836907
200.5000,4.92136,262.575,0.852822
200.4000,2.54371,263.78,0.867041
200.3000,1.29547,264.16,0.871507
200.2000,2.64372,263.513,0.863892
200.1000,-0.423997,264.295,0.873092
200.0000,2.29657,264.605,0.876739
199.9000,0.0642849,264.24,0.872453
199.8000,2.4271,263.792,0.867174
199.7000,-0.385561,265.667,0.889185
199.6000,0.521839,265.283,0.884687
199.5000,1.79837,263.92,0.868681
199.4000,1.72338,265.967,0.892697
199.3000,3.34589,264.983,0.881167
199.2000,3.31823,265.4,0.886054
199.1000,0.345837,266.346,0.897119
199.0000,-3.60403,264.698,0.87783
198.9000,0.952168,265.277,0.884621
198.8000,-3.11032,267.461,0.910117
198.7000,3.62956,268.266,0.919481
198.6000,1.80012,265.552,0.887845
198.5000,0.962017,267.106,0.905988
198.4000,-0.853499,267.93,0.915572
198.3000,4.80569,267.717,0.913096
198.2000,1.97383,267.389,0.909286
198.1000,1.59615,268.257,0.919376
198.0000,-0.0790685,268.289,0.919744
197.9000,0.857752,268.483,0.921992
197.8000,2.04188,270,0.939552
197.7000,1.77516,269.228,0.930632
197.6000,-2.37017,269.162,0.929871
197.5000,-0.961178,269.507,0.933857
197.4000,4.14565,269.599,0.934918
197.3000,2.21564,270.245,0.942377
197.2000,-0.243151,271.474,0.956535
197.1000,-1.78243,271.779,0.960037
197.0000,1.45047,271.421,0.955923
196.9000,0.524945,272.454,0.967784
196.8000,1.69622,271.509,0.956939
196.7000,-0.248724,273.479,0.979518
196.6000,1.43503,272.156,0.964368
196.5000,0.830186,272.542,0.968797
196.4000,0.264594,271.493,0.956757
196.3000,5.44929,274.131,0.986954
196.2000,0.660934,274.652,0.992892
196.1000,1.05735,275.02,0.997082
196.0000,1.1228,273.824,0.983451
195.9000,3.00881,275.922,1.00732
195.8000,-0.451538,274.812,0.994711
195.7000,2.32041,276.095,1.00928
195.6000,0.536609,275.844,1.00644
195.5000,0.893486,276.536,1.01428
195.4000,6.02484,276.647,1.01554
195.3000,-0.51388,276.182,1.01027
195.2000,3.57595,277.072,1.02034
195.1000,3.0263,277.156,1.02129
195.0000,1.62449,278.224,1.03333
194.9000,1.679,279.376,1.04629
194.8000,-0.352252,279.609,1.04891
194.7000,-0.00421782,277.855,1.02918
194.6000,0.971274,279.575,1.04853
194.5000,-3.89499,280.143,1.05489
194.4000,1.17898,281.851,1.07396
194.3000,0.173755,282.154,1.07734
194.2000,-2.1682,280.851,1.06281
194.1000,-4.88041,280.131,1.05475
194.0000,1.47466,282.005,1.07568
193.9000,0.104112,283.212,1.08911
193.8000,-1.34519,284.278,1.10091
193.7000,0.25265,284.858,1.10732
193.6000,-0.721212,287.338,1.13461
193.5000,0.872494,286.019,1.12012
193.4000,-2.78282,286.655,1.12711
193.3000,2.14889,287.204,1.13315
193.2000,-0.882786,287.129,1.13233
193.1000,-1.38982,288.714,1.14967
193.0000,-1.65777,288.088,1.14283
192.9000,-1.70594,289.084,1.15371
192.8000,-3.30606,290.124,1.16504
192.7000,0.290044,291.126,1.17592
192.6000,-1.41978,291.178,1.17648
192.5000,-1.64257,293.052,1.19675
192.4000,1.58954,294.215,1.20927
192.3000,2.93557,295.106,1.21885
192.2000,-0.742751,294.539,1.21275
192.1000,2.30976,295.626,1.22442
192.0000,-0.395698,295.623,1.22438
191.9000,4.69539,297.861,1.24827
191.8000,-1.89572,300.569,1.27698
191.7000,-2.60892,298.303,1.25297
191.6000,5.52937,301.394,1.28568
191.5000,1.50773,301.212,1.28377
191.4000,-2.21513,302.662,1.29902
191.3000,-5.4226,303.702,1.30992
191.2000,1.01866,305.697,1.33076
191.1000,6.02539,305.955,1.33345
191.0000,-1.29406,308.471,1.35953
190.9000,2.27934,308.266,1.35741
190.8000,4.07345,310.566,1.38113
190.7000,5.42364,311.572,1.39145
190.6000,1.39436,313.213,1.40823
190.5000,-0.183968,314.142,1.4177
190.4000,2.53055,317.683,1.45358
190.3000,4.42141,317.645,1.4532
190.2000,0.566155,318.52,1.46201
190.1000,1.94106,319.527,1.47213
190.0000,-5.83343,321.419,1.49108

##### Extended Information
[Comments]
Sample name,KMGM_BUFFER_928
Comment,BUFFER ALONE
User,KYLE MURPHY
Division
Company,Saint Mary's College

[Detailed Information]
Creation date,9/28/2022 3:01 PM

Data array type,Linear data array * 3
Horizontal axis,Wavelength [nm]
Vertical axis(1),CD [mdeg]
Vertical axis(2),HT [V]
Vertical axis(3),Abs
Start,320 nm
End,190 nm
Data interval,0.1 nm
Data points,1301    

[Measurement Information]
Instrument name,J-1500
Model name,J-1500
Serial No.,B051061638

Detector,PM-539
Detector S/N,B051061638
  Lock-in amp.,X mode
  HT volt,Auto

Accessory,PTC-517
Accessory S/N,B026561646
  Temperature,27.65 C
  Control sensor,Holder
  Monitor sensor,Holder

Measurement date,9/28/2022 3:00 PM

CD Overload detect,1275
Photometric mode,CD, HT, Abs
Measure range,320 - 190 nm
Data pitch,0.1 nm
CD scale,20 mdeg/0.05 dOD
FL scale,20 mdeg/0.05 dOD
D.I.T.,8 msec
Bandwidth,2.00 nm
Start mode,Immediately
Scanning mode,Continuous
Scanning speed,200 nm/min
Baseline correction,None
Shutter control,Auto
No. of cycle,1/1
N2 Flowmeter,Manual

Solvent,NaPO4 buffer

