TITLE,LW+MB buffer and protein
DATA TYPE,
ORIGIN,JASCO
OWNER,
DATE,22/09/29
TIME,15:12:09
SPECTROMETER/DATA SYSTEM,
LOCALE,1033
RESOLUTION,
DELTAX,-0.1
XUNITS,NANOMETERS
YUNITS,CD [mdeg]
Y2UNITS,HT [V]
Y3UNITS,ABSORBANCE
FIRSTX,  320.0000
LASTX,  190.0000
NPOINTS,    1301
FIRSTY,     1.62059
MAXY,    24.45472
MINY,   -61.96886
XYDATA
320.0000,1.62059,209.53,0.166061
319.9000,2.75865,208.564,0.152273
319.8000,-1.72399,209.818,0.170157
319.7000,0.324911,208.891,0.15695
319.6000,1.67032,208.658,0.153617
319.5000,-0.359106,208.844,0.156271
319.4000,0.262129,209.165,0.160862
319.3000,1.05566,208.325,0.148854
319.2000,0.557058,208.632,0.153244
319.1000,0.510838,209.063,0.159408
319.0000,1.25217,208.637,0.153325
318.9000,1.12308,209.036,0.15902
318.8000,1.83022,209.148,0.16062
318.7000,0.262372,209.34,0.16335
318.6000,0.780546,208.06,0.145058
318.5000,0.556749,208.712,0.154393
318.4000,0.661681,208.101,0.145659
318.3000,1.26521,208.987,0.158325
318.2000,0.249447,208.619,0.153066
318.1000,2.10445,208.752,0.15496
318.0000,2.67026,208.325,0.148854
317.9000,2.24432,209.002,0.158535
317.8000,2.11835,208.883,0.156837
317.7000,0.167908,209.419,0.16448
317.6000,1.60488,209.641,0.167642
317.5000,0.41944,208.804,0.155704
317.4000,1.65575,209.048,0.159181
317.3000,1.37199,208.111,0.145789
317.2000,0.367024,208.788,0.155478
317.1000,2.551,208.131,0.146081
317.0000,2.38031,208.482,0.151106
316.9000,0.098605,208.65,0.153503
316.8000,-1.65016,208.72,0.154507
316.7000,1.13863,208.601,0.152807
316.6000,1.04846,208.347,0.149178
316.5000,1.21801,208.227,0.147459
316.4000,-0.817736,208.501,0.151382
316.3000,-0.100816,208.069,0.145188
316.2000,1.4024,208.254,0.147848
316.1000,-1.31142,208.892,0.156966
316.0000,1.65857,208.389,0.149778
315.9000,1.2826,208.734,0.154701
315.8000,-0.334311,209.164,0.160846
315.7000,-0.497122,208.499,0.151349
315.6000,0.23532,208.975,0.158147
315.5000,1.24223,208.531,0.151803
315.4000,-0.0162335,208.892,0.156966
315.3000,-0.14781,208.157,0.146454
315.2000,2.22923,208.348,0.149194
315.1000,0.867501,208.282,0.148238
315.0000,0.3963,208.933,0.157548
314.9000,3.21331,208.142,0.146243
314.8000,0.657524,208.449,0.150636
314.7000,1.38115,208.706,0.154313
314.6000,1.73856,208.236,0.147589
314.5000,0.138489,208.879,0.156772
314.4000,2.95699,208.387,0.149745
314.3000,0.404937,207.984,0.143971
314.2000,-0.439833,208.233,0.14754
314.1000,0.728259,208.641,0.153374
314.0000,1.917,208.701,0.154232
313.9000,1.59289,208.602,0.152823
313.8000,0.865777,209.023,0.158826
313.7000,0.170201,208.019,0.144474
313.6000,-0.0546916,208.677,0.153892
313.5000,1.38569,207.734,0.140398
313.4000,2.48617,207.844,0.141974
313.3000,0.318744,208.311,0.148659
313.2000,2.20491,208.479,0.151058
313.1000,1.17489,208.639,0.153341
313.0000,1.06122,208.217,0.147313
312.9000,0.380658,208.065,0.145139
312.8000,2.04984,208.619,0.153066
312.7000,2.03053,208.297,0.148465
312.6000,-1.77711,207.709,0.14004
312.5000,0.766166,208.134,0.146129
312.4000,1.59489,207.913,0.142964
312.3000,0.633485,207.9,0.14277
312.2000,0.254322,208.157,0.146454
312.1000,1.19349,208.157,0.146454
312.0000,0.190313,207.721,0.140203
311.9000,1.33364,208.676,0.153876
311.8000,0.716592,207.437,0.136138
311.7000,1.62558,207.382,0.135341
311.6000,0.468953,208.631,0.153228
311.5000,0.332983,208.581,0.152515
311.4000,-1.7011,208.168,0.146616
311.3000,-0.0467929,208.399,0.149923
311.2000,-0.669527,208.382,0.14968
311.1000,1.83911,208.044,0.144831
311.0000,-0.305523,208.262,0.147962
310.9000,1.15095,209.021,0.15881
310.8000,2.09202,208.291,0.148367
310.7000,-0.00944547,208.072,0.145237
310.6000,0.69236,207.714,0.140105
310.5000,0.354183,208.223,0.147394
310.4000,-0.206081,208.036,0.144718
310.3000,1.42261,207.956,0.143581
310.2000,0.372258,208.275,0.14814
310.1000,2.06588,208.778,0.155332
310.0000,2.67122,208.212,0.147248
309.9000,1.40901,208.492,0.151252
309.8000,1.20295,208.151,0.146372
309.7000,0.239897,208.415,0.15015
309.6000,0.075495,208.432,0.150393
309.5000,0.498724,208.795,0.155575
309.4000,0.748836,208.526,0.151738
309.3000,1.16589,208.393,0.149826
309.2000,2.12294,208.095,0.145561
309.1000,2.37896,208.359,0.14934
309.0000,1.67476,208.066,0.145156
308.9000,0.725207,208.318,0.148757
308.8000,-0.841898,208.423,0.150264
308.7000,0.926891,208.126,0.146016
308.6000,0.961341,207.853,0.142104
308.5000,0.551584,208.66,0.153649
308.4000,2.46883,207.985,0.143987
308.3000,1.43839,208.308,0.148611
308.2000,0.718706,208.339,0.149064
308.1000,1.32389,208.602,0.152823
308.0000,1.44308,207.733,0.140382
307.9000,1.1793,208.303,0.148546
307.8000,-0.0889096,209.359,0.163624
307.7000,-0.0136315,208.016,0.144442
307.6000,0.0230344,208.402,0.149956
307.5000,1.09393,207.819,0.141617
307.4000,0.62948,208.375,0.149567
307.3000,0.832664,208.327,0.148886
307.2000,-0.201213,208.157,0.146454
307.1000,0.208462,207.92,0.143062
307.0000,1.62262,208.457,0.15075
306.9000,1.1857,207.447,0.136268
306.8000,0.104302,208.21,0.147216
306.7000,1.21954,207.739,0.140463
306.6000,-1.00981,208.182,0.146811
306.5000,2.29117,208.061,0.145075
306.4000,1.80393,208.319,0.148773
306.3000,0.119331,208.405,0.150004
306.2000,0.325224,208.294,0.148416
306.1000,2.07374,208.513,0.151544
306.0000,0.861797,207.724,0.140252
305.9000,0.40911,209.415,0.164415
305.8000,-0.185795,208.276,0.148156
305.7000,1.68181,207.89,0.142623
305.6000,1.47312,208.459,0.150782
305.5000,0.265532,208.106,0.145724
305.4000,1.2507,208.574,0.152418
305.3000,-0.882069,207.63,0.138903
305.2000,1.38584,208.048,0.144896
305.1000,1.02616,208.104,0.145691
305.0000,1.27269,207.97,0.143776
304.9000,0.283485,208.547,0.15203
304.8000,-0.816729,208.146,0.146291
304.7000,0.51905,207.98,0.143922
304.6000,0.295958,208.31,0.148643
304.5000,-0.212814,207.377,0.135276
304.4000,0.632153,207.754,0.140674
304.3000,1.6267,207.801,0.141356
304.2000,1.69528,208.06,0.145058
304.1000,1.13103,208.78,0.155365
304.0000,2.35563,208.16,0.146502
303.9000,-0.0497468,207.683,0.139667
303.8000,0.481021,207.445,0.136252
303.7000,-0.0322456,208.422,0.150248
303.6000,0.726884,207.334,0.134658
303.5000,2.30545,207.229,0.133144
303.4000,0.251231,208.181,0.146794
303.3000,0.250779,207.483,0.136789
303.2000,0.98407,207.533,0.137505
303.1000,0.148916,208.168,0.146616
303.0000,-0.059791,207.897,0.142737
302.9000,0.602113,208.06,0.145058
302.8000,-0.62979,208.201,0.147086
302.7000,2.17906,208.539,0.151916
302.6000,0.88291,208.81,0.155785
302.5000,-0.366135,208.113,0.145821
302.4000,1.02382,207.786,0.141145
302.3000,1.50409,207.798,0.141308
302.2000,1.04991,207.75,0.140625
302.1000,-0.430598,207.772,0.140934
302.0000,-0.719157,208.569,0.152354
301.9000,-0.301862,207.948,0.143468
301.8000,0.545285,208.465,0.150863
301.7000,0.653148,208.137,0.146162
301.6000,1.50245,207.726,0.140284
301.5000,-1.18502,207.646,0.13913
301.4000,0.288625,207.578,0.138155
301.3000,0.915725,207.802,0.141373
301.2000,0.415331,207.799,0.141324
301.1000,0.150996,207.689,0.139748
301.0000,0.951082,208.111,0.145789
300.9000,1.76419,207.555,0.13783
300.8000,0.0412213,207.888,0.142607
300.7000,1.96607,207.677,0.139569
300.6000,0.291244,208.03,0.144636
300.5000,2.41204,207.653,0.139228
300.4000,2.26573,207.385,0.13539
300.3000,-0.102589,207.644,0.139098
300.2000,-0.720309,207.856,0.142136
300.1000,1.3526,207.988,0.144036
300.0000,1.84902,207.713,0.140089
299.9000,0.807895,207.665,0.139407
299.8000,0.998764,207.537,0.13757
299.7000,-0.467132,207.858,0.142168
299.6000,0.652334,207.903,0.142818
299.5000,1.87741,207.955,0.143565
299.4000,0.64832,207.705,0.139975
299.3000,0.909749,207.599,0.138464
299.2000,1.81503,207.721,0.140203
299.1000,-0.120197,207.408,0.135715
299.0000,-0.305831,207.805,0.141405
298.9000,-0.511492,207.678,0.139586
298.8000,1.634,207.654,0.139244
298.7000,0.689707,207.914,0.14298
298.6000,0.0679797,207.384,0.135374
298.5000,1.18002,207.657,0.139293
298.4000,1.36243,207.36,0.135032
298.3000,1.03454,208.555,0.152143
298.2000,1.25308,207.118,0.131548
298.1000,0.661495,207.433,0.136073
298.0000,1.25903,207.712,0.140073
297.9000,-0.999952,207.593,0.138366
297.8000,1.11477,207.379,0.135292
297.7000,1.5902,207.725,0.140268
297.6000,2.05345,207.843,0.141958
297.5000,0.821316,207.475,0.136675
297.4000,1.31274,207.052,0.130603
297.3000,0.683705,207.282,0.133909
297.2000,0.25432,207.078,0.130978
297.1000,1.20449,206.677,0.125206
297.0000,0.181463,207.593,0.138366
296.9000,0.810779,207.488,0.13687
296.8000,1.09153,207.424,0.135943
296.7000,-0.40585,207.567,0.137992
296.6000,0.556283,208.201,0.147086
296.5000,1.55154,207.076,0.130945
296.4000,-0.0785792,207.042,0.130456
296.3000,-0.254366,208.036,0.144718
296.2000,-0.808349,207.758,0.140739
296.1000,1.66777,208.325,0.148854
296.0000,1.03643,207.709,0.14004
295.9000,0.385568,207.281,0.133893
295.8000,1.31774,206.58,0.123803
295.7000,0.382616,207.615,0.138692
295.6000,0.391135,207.2,0.13272
295.5000,1.53965,207.522,0.137358
295.4000,-0.162801,207.563,0.137943
295.3000,2.67048,207.366,0.135113
295.2000,1.25923,208.138,0.146178
295.1000,-0.32777,208.004,0.144263
295.0000,0.930165,207.481,0.136756
294.9000,-0.211825,205.728,0.111506
294.8000,0.376568,207.211,0.132883
294.7000,1.22302,207.771,0.140918
294.6000,-0.385771,207.255,0.133518
294.5000,-0.551699,206.996,0.129788
294.4000,-0.323839,207.986,0.144003
294.3000,0.994981,208.138,0.146178
294.2000,-0.298896,207.704,0.139959
294.1000,0.0657348,207.948,0.143468
294.0000,-0.993053,207.481,0.136756
293.9000,1.84481,207.39,0.135455
293.8000,0.513043,207.411,0.135764
293.7000,1.33416,207.482,0.136773
293.6000,2.39034,207.646,0.13913
293.5000,-0.794948,207.873,0.14238
293.4000,-0.544847,207.067,0.130815
293.3000,0.6798,207.928,0.143175
293.2000,0.352971,207.496,0.136984
293.1000,0.737049,207.343,0.134788
293.0000,2.16191,207.743,0.140528
292.9000,0.791724,207.569,0.138025
292.8000,2.00657,207.745,0.140544
292.7000,1.23469,208.113,0.145821
292.6000,0.0402513,207.057,0.130668
292.5000,0.896299,207.126,0.131662
292.4000,-0.23958,206.853,0.127734
292.3000,2.46715,207.678,0.139586
292.2000,1.50683,207.485,0.136822
292.1000,0.880655,206.906,0.1285
292.0000,0.673979,207.397,0.135553
291.9000,1.27986,207.197,0.132688
291.8000,-0.562915,207,0.129853
291.7000,-0.513915,207.17,0.132297
291.6000,2.49385,206.579,0.123786
291.5000,1.04278,206.678,0.125222
291.4000,1.35593,206.986,0.129658
291.3000,0.368351,206.648,0.124782
291.2000,1.26383,207.345,0.134804
291.1000,-0.261715,206.802,0.127
291.0000,-0.0828437,207.049,0.130554
290.9000,0.853279,207.393,0.135504
290.8000,1.78161,207.037,0.130391
290.7000,0.643942,207.4,0.135602
290.6000,0.275727,207.206,0.132818
290.5000,1.52683,207.431,0.136041
290.4000,0.859387,207.498,0.137
290.3000,0.655836,207.575,0.138106
290.2000,0.0220006,207.222,0.133046
290.1000,2.10352,207.476,0.136691
290.0000,0.303937,207.278,0.133844
289.9000,1.71398,207.349,0.134869
289.8000,0.00371286,207.616,0.138708
289.7000,2.31389,207.925,0.143127
289.6000,0.553024,207.102,0.13132
289.5000,3.33921,207.701,0.139927
289.4000,0.18667,207.771,0.140918
289.3000,-0.54489,207.842,0.141941
289.2000,0.0538831,207.775,0.140983
289.1000,-0.125,208.149,0.14634
289.0000,1.35587,207.657,0.139293
288.9000,-1.51631,207.675,0.139553
288.8000,2.3726,207.774,0.140967
288.7000,1.2218,208.028,0.144604
288.6000,0.891405,207.945,0.143419
288.5000,0.105275,207.721,0.140203
288.4000,0.422684,207.699,0.139894
288.3000,-1.3722,207.655,0.13926
288.2000,0.225692,207.498,0.137
288.1000,1.9655,207.355,0.134951
288.0000,1.0193,208.006,0.144296
287.9000,0.256447,208.828,0.156044
287.8000,0.694777,208.379,0.149632
287.7000,-0.747595,208.131,0.146081
287.6000,0.870907,207.524,0.137374
287.5000,2.04076,207.818,0.1416
287.4000,0.739832,207.197,0.132688
287.3000,1.91743,208.293,0.1484
287.2000,1.13719,208.368,0.149469
287.1000,2.07907,208.432,0.150393
287.0000,-0.558039,207.931,0.143224
286.9000,-0.413196,207.45,0.136317
286.8000,0.127512,208.389,0.149778
286.7000,0.558877,207.901,0.142786
286.6000,0.715627,207.98,0.143922
286.5000,1.67118,208.215,0.147281
286.4000,1.09738,207.885,0.142558
286.3000,1.12875,207.606,0.138561
286.2000,1.12714,207.413,0.13578
286.1000,-1.31104,208.42,0.150215
286.0000,1.41708,208.077,0.145302
285.9000,-0.368366,208.344,0.149129
285.8000,1.49128,207.918,0.143029
285.7000,0.199445,207.951,0.1435
285.6000,1.74624,207.987,0.14402
285.5000,0.148347,207.887,0.142591
285.4000,-0.973988,208.691,0.154086
285.3000,0.059474,208.25,0.147784
285.2000,0.706613,208.403,0.149972
285.1000,0.837965,208.215,0.147281
285.0000,1.2662,207.858,0.142168
284.9000,-0.575514,207.848,0.142023
284.8000,0.153776,208.388,0.149761
284.7000,0.376779,207.666,0.139423
284.6000,-0.118254,207.414,0.135797
284.5000,0.635343,208.658,0.153617
284.4000,-0.747073,209.12,0.160216
284.3000,-0.355035,208.047,0.14488
284.2000,0.813548,207.466,0.136545
284.1000,1.19198,207.797,0.141292
284.0000,1.04837,208.084,0.145415
283.9000,1.84953,207.878,0.142461
283.8000,0.663058,208.288,0.148335
283.7000,0.418404,208.284,0.14827
283.6000,0.0163293,208.124,0.145983
283.5000,0.826656,207.399,0.135585
283.4000,0.655779,208.151,0.146372
283.3000,1.61292,207.544,0.137667
283.2000,0.448913,208.149,0.14634
283.1000,0.591111,208.981,0.158228
283.0000,-2.60993,208.572,0.152386
282.9000,0.00790965,208.325,0.148854
282.8000,0.505073,208.314,0.148708
282.7000,-0.220717,207.9,0.14277
282.6000,-0.932633,208.047,0.14488
282.5000,1.21661,207.662,0.139358
282.4000,-1.48548,207.79,0.141194
282.3000,1.20728,208.456,0.150734
282.2000,0.855922,208.251,0.1478
282.1000,1.13274,208.39,0.149794
282.0000,0.81855,208.498,0.151333
281.9000,-0.0759754,207.439,0.136154
281.8000,-0.877813,208.565,0.152289
281.7000,0.457146,208.73,0.154652
281.6000,-0.7663,208.508,0.151479
281.5000,2.00114,208.133,0.146113
281.4000,-1.85982,208.482,0.151106
281.3000,0.197123,207.529,0.137456
281.2000,0.819581,208.159,0.146486
281.1000,0.884529,208.432,0.150393
281.0000,0.563847,208.458,0.150766
280.9000,1.43121,207.79,0.141194
280.8000,0.331181,207.305,0.134234
280.7000,1.48713,207.942,0.14337
280.6000,-1.48504,208.504,0.151414
280.5000,0.595405,207.858,0.142168
280.4000,0.691128,207.2,0.13272
280.3000,-0.497635,208.33,0.148935
280.2000,1.61063,207.592,0.13835
280.1000,0.63038,208.303,0.148546
280.0000,-0.206,208.192,0.146956
279.9000,2.08191,207.797,0.141292
279.8000,-0.63261,208.493,0.151268
279.7000,-0.00676808,207.79,0.141194
279.6000,-0.163306,207.831,0.141779
279.5000,1.33555,207.962,0.143663
279.4000,1.41223,207.62,0.138756
279.3000,-0.556746,207.975,0.143841
279.2000,0.0969936,208.435,0.150426
279.1000,-0.206817,208.019,0.144474
279.0000,0.193094,209.272,0.162381
278.9000,-0.185816,207.542,0.137635
278.8000,-0.862976,208.233,0.14754
278.7000,1.0827,208.14,0.14621
278.6000,1.70129,207.899,0.142753
278.5000,-0.159423,209.157,0.160749
278.4000,-1.15142,208.617,0.153034
278.3000,-0.256765,208.677,0.153892
278.2000,1.5253,208.474,0.150993
278.1000,-0.314481,208.892,0.156966
278.0000,0.9406,208.513,0.151544
277.9000,0.0458115,208.551,0.152094
277.8000,1.24489,208.514,0.15156
277.7000,-0.109216,208.156,0.146437
277.6000,1.69562,207.9,0.14277
277.5000,-0.0459439,208.665,0.153714
277.4000,-0.0898391,208.26,0.147929
277.3000,2.10474,207.962,0.143663
277.2000,0.664024,207.537,0.13757
277.1000,0.312011,208.794,0.155559
277.0000,-0.0881463,208.464,0.150847
276.9000,-1.45147,208.02,0.14449
276.8000,0.193666,208.447,0.150604
276.7000,1.07413,208.29,0.148351
276.6000,0.525602,208.838,0.15619
276.5000,1.5172,208.425,0.150296
276.4000,0.583046,208.364,0.149421
276.3000,-0.0313746,208.577,0.152467
276.2000,1.30269,208.117,0.145886
276.1000,-0.235635,208.033,0.144685
276.0000,-0.320603,207.938,0.143322
275.9000,0.659535,208.473,0.150977
275.8000,1.46611,208.007,0.144312
275.7000,0.900604,208.361,0.149372
275.6000,0.438533,208.101,0.145659
275.5000,-0.32085,208.531,0.151803
275.4000,-0.640108,208.663,0.153698
275.3000,-0.778138,208.75,0.154928
275.2000,0.543864,207.87,0.142347
275.1000,-0.119646,208.393,0.149826
275.0000,-0.351909,207.832,0.141795
274.9000,-0.375254,208.891,0.15695
274.8000,0.0543708,207.205,0.132802
274.7000,2.02772,207.561,0.137911
274.6000,0.975447,207.568,0.138009
274.5000,1.0935,208.137,0.146162
274.4000,0.887842,209.591,0.166932
274.3000,0.298287,208.81,0.155785
274.2000,1.06247,208.107,0.14574
274.1000,-0.171264,207.571,0.138057
274.0000,1.73523,208.254,0.147848
273.9000,-0.159488,208.02,0.14449
273.8000,0.645771,208.449,0.150636
273.7000,-0.617491,207.797,0.141292
273.6000,2.02396,208.591,0.152661
273.5000,1.60812,208.522,0.151673
273.4000,0.823717,208.219,0.147346
273.3000,1.63606,208.439,0.150491
273.2000,1.48286,208.334,0.148983
273.1000,0.20546,208.174,0.146697
273.0000,-1.3424,208.547,0.15203
272.9000,-0.321059,208.219,0.147346
272.8000,-0.812914,208.33,0.148935
272.7000,0.374329,208.549,0.152062
272.6000,-0.796762,208.142,0.146243
272.5000,-0.0894572,208.912,0.157241
272.4000,-0.284688,208.325,0.148854
272.3000,1.21176,207.944,0.143403
272.2000,0.31771,208.277,0.148173
272.1000,-0.796485,208.217,0.147313
272.0000,0.372929,209.095,0.15986
271.9000,0.877553,208.673,0.153827
271.8000,-0.322865,208.304,0.148562
271.7000,0.736695,208.542,0.151965
271.6000,-1.03005,208.091,0.145513
271.5000,0.738051,208.002,0.144231
271.4000,1.51544,208.765,0.155154
271.3000,-0.122671,208.178,0.146762
271.2000,-0.140008,208.342,0.149097
271.1000,1.04747,208.087,0.145448
271.0000,1.43506,208.155,0.146421
270.9000,0.975433,208.803,0.155688
270.8000,-0.406265,209.119,0.1602
270.7000,0.0991112,208.984,0.158276
270.6000,-0.662672,208.773,0.155267
270.5000,0.297312,208.324,0.148838
270.4000,0.51393,208.548,0.152046
270.3000,0.127103,207.884,0.142542
270.2000,-1.30373,208.905,0.157144
270.1000,-0.651655,208.49,0.15122
270.0000,0.014699,208.804,0.155704
269.9000,-0.244405,207.929,0.143192
269.8000,0.211691,209.219,0.161622
269.7000,0.73164,208.233,0.14754
269.6000,-0.125926,208.154,0.146405
269.5000,-0.399153,208.899,0.157063
269.4000,-0.167184,207.975,0.143841
269.3000,2.07994,209.212,0.161524
269.2000,1.97732,209.431,0.164641
269.1000,-1.11852,208.547,0.15203
269.0000,0.390484,208.345,0.149145
268.9000,-0.474816,208.141,0.146226
268.8000,-0.0462049,208.232,0.147524
268.7000,1.35105,208.049,0.144912
268.6000,-0.489309,209.662,0.167932
268.5000,-0.246039,209.843,0.170511
268.4000,-0.190381,208.65,0.153503
268.3000,-1.14888,208.626,0.153163
268.2000,-0.131243,208.411,0.150085
268.1000,0.323826,208.965,0.158001
268.0000,2.12468,208.245,0.147719
267.9000,-0.369282,209.484,0.165399
267.8000,0.149662,209.453,0.164964
267.7000,-0.547885,209.251,0.16209
267.6000,0.612801,207.825,0.141698
267.5000,0.540363,208.612,0.152969
267.4000,1.62657,209.043,0.159117
267.3000,-1.98478,209.232,0.161815
267.2000,-0.57615,208.85,0.156368
267.1000,1.16805,209.108,0.160038
267.0000,-1.25718,209.961,0.172187
266.9000,1.29836,209.346,0.16343
266.8000,0.00109712,209.738,0.169012
266.7000,1.24691,209.952,0.172058
266.6000,-0.831314,209.23,0.161783
266.5000,-0.394202,209.598,0.167029
266.4000,0.583057,208.72,0.154507
266.3000,-0.624206,209.28,0.162494
266.2000,-0.811588,209.492,0.165513
266.1000,-0.0435702,209.712,0.168642
266.0000,-0.433339,209.692,0.168367
265.9000,-1.0609,209.765,0.169399
265.8000,-0.529534,209.891,0.171188
265.7000,1.47387,209.583,0.166819
265.6000,0.860281,210.019,0.173008
265.5000,-0.105315,209.664,0.167964
265.4000,0.458953,209.729,0.168884
265.3000,0.748198,209.731,0.168916
265.2000,0.712655,209.946,0.171977
265.1000,1.17942,209.695,0.1684
265.0000,0.844932,209.182,0.161105
264.9000,-0.0281117,209.278,0.162461
264.8000,-1.43301,210.468,0.179396
264.7000,0.113351,209.586,0.166851
264.6000,0.442498,210.439,0.178978
264.5000,0.468024,209.69,0.168335
264.4000,-0.332534,209.671,0.168061
264.3000,1.00114,210.347,0.177675
264.2000,-0.905909,209.021,0.15881
264.1000,0.636401,210.583,0.181019
264.0000,1.7087,210.062,0.17362
263.9000,0.32258,209.797,0.169851
263.8000,1.61511,210.113,0.174344
263.7000,0.280687,210.21,0.175729
263.6000,-1.4554,209.911,0.171478
263.5000,1.35928,210.433,0.178897
263.4000,-1.69217,209.511,0.165787
263.3000,-1.35012,210.412,0.178592
263.2000,1.51533,210.19,0.175439
263.1000,-1.17211,210.965,0.18643
263.0000,0.422921,209.721,0.168771
262.9000,0.014847,211.145,0.18898
262.8000,0.0679779,210.268,0.176549
262.7000,-0.420217,209.689,0.168319
262.6000,0.571666,210.22,0.175873
262.5000,-0.531551,210.034,0.173234
262.4000,-0.43465,211.202,0.189781
262.3000,0.453656,210.625,0.181613
262.2000,0.125436,210.619,0.181533
262.1000,-0.799345,210.285,0.176791
262.0000,-0.109924,209.766,0.169415
261.9000,2.46358,210.237,0.176115
261.8000,0.461684,210.819,0.184359
261.7000,-0.980275,210.931,0.185948
261.6000,0.470926,210.201,0.1756
261.5000,0.31491,209.955,0.172106
261.4000,0.922381,210.225,0.175938
261.3000,1.52924,210.797,0.184054
261.2000,0.121253,211.511,0.194154
261.1000,1.57059,209.939,0.171881
261.0000,-1.25837,211.119,0.188611
260.9000,-1.29296,211.067,0.187873
260.8000,-0.122552,209.927,0.171704
260.7000,0.956877,210.998,0.186895
260.6000,-0.308543,210.876,0.185178
260.5000,-0.46442,210.901,0.185531
260.4000,0.0724771,210.975,0.186574
260.3000,-0.0500024,211.053,0.187681
260.2000,-0.621895,210.275,0.176646
260.1000,-0.710136,210.543,0.180456
260.0000,-1.75652,211.051,0.187649
259.9000,0.210168,210.978,0.186622
259.8000,-0.112707,211.01,0.187071
259.7000,-1.12845,210.713,0.182866
259.6000,0.48312,211.115,0.188563
259.5000,-0.0517829,211.294,0.191095
259.4000,-0.382924,211.155,0.189124
259.3000,0.561979,211.03,0.18736
259.2000,0.089175,211.539,0.194555
259.1000,0.211279,211.055,0.187713
259.0000,2.5083,210.932,0.185964
258.9000,-1.57259,210.361,0.177868
258.8000,1.08454,210.654,0.182031
258.7000,-1.41891,211.122,0.188659
258.6000,-0.286387,211.334,0.191656
258.5000,0.447858,211.614,0.195611
258.4000,1.42537,211.537,0.194523
258.3000,-0.438784,212.131,0.202901
258.2000,0.918755,211.43,0.193018
258.1000,1.11751,211.781,0.197963
258.0000,-0.272539,211.545,0.194635
257.9000,-1.13237,210.969,0.186494
257.8000,1.29985,211.722,0.197131
257.7000,-0.369152,211.75,0.197531
257.6000,0.728416,211.614,0.195611
257.5000,-0.429587,211.617,0.195659
257.4000,-1.24047,211.674,0.196459
257.3000,0.61648,211.905,0.199722
257.2000,0.695766,211.915,0.199866
257.1000,0.350238,211.629,0.195819
257.0000,0.00984887,211.47,0.193578
256.9000,-0.112043,211.702,0.196859
256.8000,-1.26021,211.442,0.193178
256.7000,1.14629,211.58,0.195131
256.6000,0.219164,211.48,0.193722
256.5000,-0.281385,211.833,0.198698
256.4000,-0.921639,211.021,0.187232
256.3000,-0.263038,211.422,0.192906
256.2000,-0.490527,211.507,0.194107
256.1000,-1.03505,212.293,0.205184
256.0000,-0.453026,211.584,0.195195
255.9000,0.459064,211.245,0.19039
255.8000,0.721374,212.303,0.205328
255.7000,-0.323195,212.318,0.205536
255.6000,-0.597628,212.099,0.202454
255.5000,0.980569,212.125,0.202821
255.4000,0.475168,212.689,0.210766
255.3000,-1.74643,211.798,0.198203
255.2000,-0.200154,212.28,0.205009
255.1000,1.5135,212.848,0.212997
255.0000,1.74458,212.248,0.204562
254.9000,-0.908236,212.144,0.203093
254.8000,0.930116,212.293,0.205184
254.7000,0.418029,211.747,0.197483
254.6000,-1.33994,211.518,0.19425
254.5000,-0.400124,212.433,0.207163
254.4000,0.173498,211.689,0.196667
254.3000,0.386225,213.01,0.215274
254.2000,0.971898,212.511,0.208264
254.1000,-1.61885,212.315,0.205503
254.0000,0.117644,212.45,0.207402
253.9000,-1.80899,213.328,0.219744
253.8000,1.49054,212.855,0.213092
253.7000,-1.38335,212.545,0.208742
253.6000,-0.77726,213.361,0.220205
253.5000,0.74023,214.055,0.229919
253.4000,0.295895,212.772,0.21193
253.3000,0.0204997,212.535,0.208598
253.2000,-1.36695,212.963,0.214621
253.1000,-0.156873,213.547,0.222811
253.0000,-0.843587,212.195,0.203811
252.9000,-0.761429,213.234,0.218424
252.8000,-0.0435076,212.565,0.209013
252.7000,0.685855,213.078,0.216229
252.6000,-0.223578,212.262,0.204753
252.5000,0.187209,213.776,0.226018
252.4000,-0.00332972,212.786,0.212121
252.3000,-1.37758,213.052,0.215863
252.2000,-0.585446,213.031,0.215576
252.1000,0.485082,213.495,0.22208
252.0000,0.155922,212.338,0.205823
251.9000,0.97242,211.949,0.200345
251.8000,-0.265953,214.308,0.233469
251.7000,0.661968,214.029,0.229555
251.6000,1.24381,214.057,0.229951
251.5000,-1.6571,213.498,0.222127
251.4000,-0.106804,213.687,0.224779
251.3000,-1.10842,215.967,0.256581
251.2000,0.220966,214.898,0.241695
251.1000,-0.610442,213.715,0.22516
251.0000,-0.367762,214.022,0.22946
250.9000,-0.174443,213.477,0.221825
250.8000,-0.89221,213.795,0.226287
250.7000,1.08005,212.173,0.203492
250.6000,0.240916,213.642,0.224144
250.5000,-2.13468,214.359,0.234181
250.4000,0.731399,213.396,0.220697
250.3000,0.0541219,213.321,0.219648
250.2000,0.711314,213.619,0.223827
250.1000,-0.812094,213.865,0.227271
250.0000,-0.677203,213.385,0.220538
249.9000,-0.750727,213.51,0.222286
249.8000,0.0117664,214.394,0.234672
249.7000,-0.528885,214.905,0.241805
249.6000,-1.01242,214.236,0.232455
249.5000,-0.0400576,214.855,0.241094
249.4000,-1.9148,213.495,0.22208
249.3000,1.23084,214.143,0.231156
249.2000,-1.15321,214.465,0.235654
249.1000,-0.149265,214.172,0.231568
249.0000,-2.34203,214.282,0.233104
248.9000,0.0156672,214.21,0.232091
248.8000,1.00678,214.03,0.229571
248.7000,-1.9435,213.588,0.223382
248.6000,-1.35983,215.002,0.243148
248.5000,-0.104355,214.012,0.229317
248.4000,0.58581,214.585,0.237331
248.3000,-2.52065,214.712,0.239103
248.2000,-1.19689,214.101,0.230569
248.1000,-0.564861,214.107,0.230649
248.0000,-1.41807,214.882,0.241474
247.9000,-0.98429,213.428,0.221142
247.8000,-1.22198,214.587,0.237363
247.7000,0.327118,215.183,0.245675
247.6000,0.100308,214.808,0.240446
247.5000,-1.61456,214.736,0.239435
247.4000,0.4378,214.844,0.240952
247.3000,-0.510006,214.349,0.234039
247.2000,-1.08459,215.448,0.249366
247.1000,-0.489236,214.883,0.241489
247.0000,-0.326667,215.324,0.247632
246.9000,-1.74923,214.453,0.235496
246.8000,-1.61046,215.56,0.250927
246.7000,-1.75841,214.594,0.237458
246.6000,-2.86345,214.462,0.235622
246.5000,-2.40838,214.785,0.24013
246.4000,-3.57861,215.829,0.254661
246.3000,1.16861,215.083,0.244286
246.2000,-2.25564,215.029,0.243527
246.1000,-2.04603,214.614,0.237742
246.0000,-0.804525,215.833,0.254724
245.9000,-1.78161,215.635,0.251967
245.8000,-1.71582,215.643,0.252078
245.7000,-1.55905,215.361,0.248152
245.6000,-2.02928,215.984,0.256817
245.5000,-1.12563,216.891,0.269385
245.4000,-2.24013,216.969,0.270467
245.3000,-1.63209,216.579,0.265069
245.2000,-0.259614,215.856,0.255039
245.1000,-0.806839,215.788,0.254094
245.0000,-1.71966,216.399,0.262572
244.9000,-2.11675,216.524,0.2643
244.8000,-3.03983,215.32,0.247584
244.7000,-0.497778,216.23,0.26023
244.6000,-1.48934,215.596,0.251416
244.5000,-3.6595,215.821,0.254551
244.4000,-0.459444,216.934,0.26998
244.3000,-4.21448,216.443,0.263185
244.2000,-0.940168,216.094,0.258343
244.1000,-2.16115,217.421,0.276716
244.0000,-4.37637,216.902,0.269541
243.9000,-2.03219,216.491,0.263845
243.8000,-1.50642,217.137,0.272786
243.7000,-2.26144,216.499,0.263955
243.6000,-2.38756,216.976,0.270561
243.5000,-2.8242,216.511,0.264127
243.4000,-3.15521,217.527,0.278187
243.3000,-3.99682,216.776,0.2678
243.2000,-3.59027,217.876,0.283002
243.1000,-4.61947,217.446,0.277061
243.0000,-3.83388,217.634,0.279657
242.9000,-3.98261,217.055,0.271658
242.8000,-2.06396,216.927,0.269886
242.7000,-2.17846,217.68,0.280298
242.6000,-5.45339,217.337,0.275558
242.5000,-4.9079,217.674,0.280205
242.4000,-4.59017,218.281,0.288576
242.3000,-4.24036,218.078,0.285782
242.2000,-5.6734,216.158,0.259224
242.1000,-4.92539,217.186,0.273475
242.0000,-4.6833,218.212,0.287624
241.9000,-5.31503,216.969,0.270467
241.8000,-4.87686,219.805,0.309497
241.7000,-3.53479,216.32,0.261472
241.6000,-4.40532,218.741,0.294903
241.5000,-3.95572,218.546,0.292224
241.4000,-4.93919,217.96,0.284158
241.3000,-5.75008,220.161,0.314364
241.2000,-5.01957,218.778,0.295417
241.1000,-7.30363,219.034,0.298935
241.0000,-6.95304,218.237,0.287967
240.9000,-4.17719,219.22,0.301485
240.8000,-6.56331,218.766,0.295246
240.7000,-8.53737,220.007,0.312257
240.6000,-6.95546,218.223,0.28778
240.5000,-5.60763,220.709,0.321853
240.4000,-8.08374,220.377,0.317321
240.3000,-7.50168,219.406,0.304033
240.2000,-7.14086,219.176,0.300879
240.1000,-5.97037,219.582,0.30644
240.0000,-8.20727,219.653,0.307418
239.9000,-9.2288,218.978,0.298157
239.8000,-6.6287,219.277,0.302262
239.7000,-6.1311,221.084,0.326966
239.6000,-8.13034,221.485,0.332427
239.5000,-7.3361,220.548,0.319658
239.4000,-6.20892,219.68,0.30779
239.3000,-9.22087,220.308,0.316377
239.2000,-9.46871,222.429,0.345244
239.1000,-9.79438,221.371,0.33087
239.0000,-10.0496,221.548,0.333275
238.9000,-8.59068,221.333,0.330361
238.8000,-10.0657,222.176,0.341817
238.7000,-10.5621,222.21,0.342278
238.6000,-11.6828,221.908,0.338171
238.5000,-12.1252,222.225,0.342478
238.4000,-10.9767,222.219,0.342401
238.3000,-11.0904,221.997,0.339387
238.2000,-11.2736,222.397,0.344814
238.1000,-12.2999,223.06,0.353789
238.0000,-10.0774,223.72,0.362696
237.9000,-11.5144,222.306,0.343569
237.8000,-9.84957,224.058,0.367264
237.7000,-11.575,224.455,0.372604
237.6000,-11.9975,225.347,0.384582
237.5000,-13.9475,224.023,0.366791
237.4000,-14.3932,223.365,0.357909
237.3000,-13.3131,223.315,0.357235
237.2000,-12.5761,224.497,0.373168
237.1000,-14.4031,223.955,0.365875
237.0000,-13.8711,224.873,0.378225
236.9000,-15.8077,224.462,0.372695
236.8000,-16.0439,224.406,0.371948
236.7000,-15.8544,224.217,0.369401
236.6000,-14.3411,226.379,0.398399
236.5000,-16.9693,225.938,0.392505
236.4000,-15.4759,225.462,0.386131
236.3000,-16.2837,227.496,0.413294
236.2000,-18.8359,226.076,0.394354
236.1000,-17.7126,224.564,0.374067
236.0000,-18.1853,227.047,0.407319
235.9000,-17.0835,224.898,0.37856
235.8000,-16.4552,226.755,0.403421
235.7000,-16.4904,227.258,0.410127
235.6000,-18.301,227.117,0.40824
235.5000,-20.9951,226.718,0.402922
235.4000,-19.7233,227.253,0.410051
235.3000,-17.5385,228.278,0.423683
235.2000,-19.7917,228.17,0.422254
235.1000,-19.4386,228.352,0.42466
235.0000,-20.8074,228.018,0.420238
234.9000,-21.0812,228.025,0.420328
234.8000,-23.9755,228.974,0.432902
234.7000,-24.9777,230.193,0.449002
234.6000,-22.9411,228.464,0.426147
234.5000,-22.9009,227.956,0.41941
234.4000,-23.9033,230.662,0.455179
234.3000,-24.4798,229.702,0.442532
234.2000,-22.0638,230.166,0.448644
234.1000,-24.9568,229.942,0.445701
234.0000,-25.1933,230.523,0.453345
233.9000,-23.2805,229.946,0.445746
233.8000,-26.0663,230.412,0.451883
233.7000,-23.9309,231.019,0.459871
233.6000,-27.4214,230.659,0.455134
233.5000,-24.8696,230.222,0.449391
233.4000,-26.2075,231.694,0.468733
233.3000,-28.2813,231.653,0.468198
233.2000,-27.7759,231.949,0.472072
233.1000,-28.7916,232.62,0.480846
233.0000,-29.3173,231.849,0.470766
232.9000,-27.6213,232.708,0.482
232.8000,-28.5723,232.741,0.482429
232.7000,-29.3721,233.654,0.494335
232.6000,-27.6352,233.373,0.490676
232.5000,-29.0987,233.507,0.492417
232.4000,-31.6556,233.66,0.494409
232.3000,-32.6724,233.751,0.495588
232.2000,-31.3261,234.187,0.50126
232.1000,-32.0762,235.281,0.515452
232.0000,-31.9163,233.923,0.497828
231.9000,-35.8669,234.127,0.50048
231.8000,-33.5444,234.518,0.505556
231.7000,-35.0608,234.236,0.501893
231.6000,-34.2374,235.148,0.513721
231.5000,-35.2588,235.883,0.52323
231.4000,-34.2209,236.173,0.526974
231.3000,-36.7973,236.967,0.537207
231.2000,-38.6592,236,0.524737
231.1000,-37.4606,236.437,0.530379
231.0000,-39.241,236.381,0.529648
230.9000,-38.7836,236.641,0.533006
230.8000,-37.39,235.218,0.514631
230.7000,-39.3284,236.079,0.525761
230.6000,-34.6133,236.885,0.536143
230.5000,-36.8161,237.427,0.543121
230.4000,-37.2472,237.552,0.544721
230.3000,-39.0249,236.342,0.529151
230.2000,-40.329,238.282,0.554078
230.1000,-40.4451,237.992,0.550361
230.0000,-39.7562,239.262,0.566608
229.9000,-41.2124,238.266,0.553875
229.8000,-41.7552,239.217,0.56603
229.7000,-40.6206,239.466,0.569211
229.6000,-41.1099,239.217,0.56603
229.5000,-43.382,239.044,0.563831
229.4000,-41.3773,240.584,0.583446
229.3000,-41.7508,239.597,0.570886
229.2000,-45.2531,240.104,0.577338
229.1000,-45.3289,240.368,0.580696
229.0000,-44.1594,240.688,0.584771
228.9000,-44.0855,239.834,0.573904
228.8000,-46.23,240.881,0.587216
228.7000,-45.883,241.853,0.599535
228.6000,-44.1508,241.835,0.599305
228.5000,-46.3286,241.908,0.600223
228.4000,-46.973,242.524,0.60801
228.3000,-44.8184,242.582,0.60874
228.2000,-46.5732,243.344,0.618349
228.1000,-46.9889,242.836,0.611941
228.0000,-49.0092,242.991,0.613897
227.9000,-51.1634,243.178,0.616252
227.8000,-49.6495,243.951,0.625971
227.7000,-48.8083,244.499,0.632852
227.6000,-46.4624,244.43,0.631986
227.5000,-49.987,244.034,0.627024
227.4000,-49.2758,244.591,0.634003
227.3000,-49.6066,246.659,0.659828
227.2000,-48.8277,245.23,0.642003
227.1000,-51.1609,245.818,0.64935
227.0000,-51.41,245.365,0.643689
226.9000,-53.0362,246.118,0.653096
226.8000,-52.801,245.318,0.643108
226.7000,-53.2205,245.989,0.651485
226.6000,-53.7448,246.024,0.651923
226.5000,-49.4277,246.058,0.652347
226.4000,-52.6615,247.189,0.666422
226.3000,-53.4672,247.682,0.67254
226.2000,-53.0525,247.602,0.671557
226.1000,-53.0529,248.33,0.68057
226.0000,-54.8378,247.894,0.675167
225.9000,-57.1927,247.898,0.675224
225.8000,-51.8787,248.865,0.687183
225.7000,-53.2897,248.702,0.685167
225.6000,-55.5544,248.84,0.686875
225.5000,-58.3523,249.15,0.690709
225.4000,-57.0098,249.871,0.699593
225.3000,-52.6686,249.465,0.694595
225.2000,-56.4078,250.488,0.707189
225.1000,-57.2053,250.548,0.707927
225.0000,-56.5275,250.866,0.711822
224.9000,-55.9753,250.347,0.705448
224.8000,-57.7017,251.24,0.716408
224.7000,-55.2147,251.245,0.716478
224.6000,-54.1831,250.923,0.712532
224.5000,-58.2346,252.07,0.726575
224.4000,-56.1119,252.216,0.728361
224.3000,-55.952,252.147,0.727517
224.2000,-58.456,252.676,0.733977
224.1000,-55.3062,252.407,0.730686
224.0000,-60.1206,253.344,0.74211
223.9000,-59.9432,253.416,0.742993
223.8000,-53.3173,253.275,0.741269
223.7000,-56.303,253.574,0.744909
223.6000,-59.9941,253.778,0.74739
223.5000,-59.0508,253.612,0.745378
223.4000,-58.7468,254.044,0.750625
223.3000,-56.6784,254.079,0.751051
223.2000,-56.5371,255.253,0.765279
223.1000,-61.2578,254.881,0.760781
223.0000,-61.9689,255.391,0.766951
222.9000,-56.9501,255.034,0.762633
222.8000,-60.9349,255.765,0.77147
222.7000,-56.3369,255.852,0.772524
222.6000,-60.9143,256.324,0.77821
222.5000,-58.6972,257.002,0.786384
222.4000,-59.8523,257.153,0.788196
222.3000,-60.4233,257.228,0.789095
222.2000,-57.7053,257.151,0.788169
222.1000,-56.1174,257.271,0.789613
222.0000,-55.7507,257.469,0.791995
221.9000,-58.0114,258.334,0.802365
221.8000,-59.205,258.47,0.803993
221.7000,-57.5091,259.384,0.814925
221.6000,-58.9053,258.566,0.805146
221.5000,-58.5921,259.155,0.812191
221.4000,-59.8077,259.566,0.817102
221.3000,-59.0263,259.082,0.811311
221.2000,-60.3237,259.619,0.817724
221.1000,-57.1045,259.527,0.816629
221.0000,-60.0378,260.694,0.830528
220.9000,-56.1499,261.263,0.837284
220.8000,-57.4535,260.899,0.832966
220.7000,-59.2007,261.121,0.835603
220.6000,-55.0666,261.561,0.840819
220.5000,-59.3297,261.611,0.841409
220.4000,-53.3103,262.39,0.850638
220.3000,-58.7393,262.135,0.847623
220.2000,-59.5974,262.594,0.853049
220.1000,-55.124,262.895,0.856609
220.0000,-59.17,262.461,0.851482
219.9000,-57.7264,263.74,0.866561
219.8000,-56.9442,263.274,0.861074
219.7000,-55.6347,263.92,0.868681
219.6000,-55.0584,264.069,0.870441
219.5000,-58.6502,264.13,0.871161
219.4000,-54.0336,264.711,0.877976
219.3000,-57.9485,264.526,0.875808
219.2000,-57.7602,264.715,0.878029
219.1000,-54.0449,266.005,0.893134
219.0000,-57.9088,265.191,0.883611
218.9000,-58.6111,266.026,0.893386
218.8000,-59.5707,266.345,0.897106
218.7000,-55.2863,265.615,0.888575
218.6000,-58.9691,266.451,0.89835
218.5000,-57.5367,267.28,0.90802
218.4000,-55.6379,267.614,0.911897
218.3000,-56.6302,267.807,0.91415
218.2000,-57.672,267.663,0.912477
218.1000,-55.0973,268.4,0.921033
218.0000,-57.117,268.267,0.919494
217.9000,-53.5866,268.694,0.92445
217.8000,-54.6529,268.939,0.927286
217.7000,-55.3843,269.224,0.930579
217.6000,-57.5705,268.71,0.924634
217.5000,-58.647,269.152,0.929753
217.4000,-54.3668,269.75,0.936673
217.3000,-58.5545,271.344,0.955037
217.2000,-52.8951,270.209,0.941972
217.1000,-56.718,270.695,0.947577
217.0000,-56.5232,271.254,0.954008
216.9000,-56.1923,272.121,0.963965
216.8000,-56.0681,271.436,0.956105
216.7000,-53.9372,272.375,0.966875
216.6000,-54.2511,272.667,0.970225
216.5000,-56.7304,272.208,0.964966
216.4000,-54.831,272.426,0.96746
216.3000,-55.6423,272.774,0.971445
216.2000,-56.5307,272.574,0.969161
216.1000,-56.8586,273.861,0.983878
216.0000,-55.0606,275.075,0.9977
215.9000,-52.6324,273.799,0.983167
215.8000,-55.4051,275.708,1.00489
215.7000,-53.1805,275.258,0.999787
215.6000,-56.6223,274.806,0.994646
215.5000,-54.025,275.477,1.00227
215.4000,-55.4567,275.596,1.00362
215.3000,-50.7298,275.315,1.00043
215.2000,-50.4783,275.994,1.00813
215.1000,-52.3919,276.904,1.01844
215.0000,-51.2283,276.796,1.01722
214.9000,-53.5038,277.655,1.02692
214.8000,-56.186,277.012,1.01967
214.7000,-60.0375,277.473,1.02487
214.6000,-57.8571,277.939,1.03013
214.5000,-55.115,278.238,1.0335
214.4000,-51.5064,278.065,1.03154
214.3000,-52.7361,279.678,1.04968
214.2000,-54.0523,279.137,1.0436
214.1000,-56.4207,279.727,1.05023
214.0000,-56.2677,280.489,1.05876
213.9000,-54.2532,280.834,1.06262
213.8000,-52.281,280.754,1.06172
213.7000,-52.5248,280.913,1.06351
213.6000,-51.4543,280.676,1.06085
213.5000,-53.4798,281.762,1.07298
213.4000,-54.484,281.759,1.07294
213.3000,-55.8904,282.487,1.08105
213.2000,-55.1096,282.511,1.08131
213.1000,-55.9685,282.862,1.08522
213.0000,-55.1686,283.002,1.08677
212.9000,-53.5039,283.047,1.08727
212.8000,-52.1006,284.052,1.09841
212.7000,-59.7138,284.109,1.09904
212.6000,-51.5278,285.057,1.10952
212.5000,-54.3082,285.617,1.11569
212.4000,-52.3044,285.649,1.11604
212.3000,-54.3867,285.656,1.11613
212.2000,-54.1055,286.094,1.12095
212.1000,-58.862,287.005,1.13096
212.0000,-53.7033,287.014,1.13106
211.9000,-52.9854,286.971,1.13059
211.8000,-54.9579,287.878,1.14053
211.7000,-54.2298,288.561,1.14799
211.6000,-56.9568,289.012,1.15292
211.5000,-54.2694,290.043,1.16415
211.4000,-54.3687,290.406,1.16811
211.3000,-46.0995,290.656,1.17082
211.2000,-58.5622,289.961,1.16327
211.1000,-54.9846,291.386,1.17874
211.0000,-57.301,291.594,1.18099
210.9000,-50.8844,292.023,1.18564
210.8000,-55.6371,291.97,1.18506
210.7000,-53.6945,292.538,1.1912
210.6000,-55.3935,293.561,1.20224
210.5000,-54.0141,293.884,1.20571
210.4000,-59.3491,294.097,1.20801
210.3000,-55.2737,294.76,1.21513
210.2000,-53.3818,295.591,1.22404
210.1000,-52.6062,295.235,1.22023
210.0000,-54.2763,296.28,1.23141
209.9000,-53.6171,296.024,1.22868
209.8000,-58.316,297.144,1.24063
209.7000,-52.6157,297.231,1.24156
209.6000,-54.6541,299.635,1.26711
209.5000,-52.819,299.009,1.26047
209.4000,-56.8094,299.901,1.26992
209.3000,-49.2075,300.519,1.27645
209.2000,-50.0615,299.992,1.27088
209.1000,-54.7701,301.397,1.28572
209.0000,-58.2504,301.814,1.29011
208.9000,-57.3224,303.164,1.30428
208.8000,-53.3036,302.617,1.29855
208.7000,-50.2444,303.786,1.3108
208.6000,-50.1168,303.813,1.31109
208.5000,-57.7959,305.137,1.32493
208.4000,-55.8109,304.8,1.3214
208.3000,-54.6765,306.202,1.33602
208.2000,-51.8457,305.935,1.33324
208.1000,-47.2406,306.888,1.34314
208.0000,-48.7287,308.478,1.3596
207.9000,-53.8323,308.833,1.36328
207.8000,-49.1225,309.915,1.37444
207.7000,-54.2134,311.303,1.3887
207.6000,-50.5189,311.398,1.38966
207.5000,-45.7385,311.154,1.38716
207.4000,-44.4217,312.135,1.39722
207.3000,-43.8557,312.824,1.40426
207.2000,-52.0552,313.366,1.40979
207.1000,-48.2447,313.493,1.41109
207.0000,-41.8881,315.152,1.42797
206.9000,-45.7227,315.184,1.4283
206.8000,-43.019,316.048,1.43705
206.7000,-49.4532,317.041,1.4471
206.6000,-43.569,316.488,1.44151
206.5000,-45.9096,318.551,1.46232
206.4000,-36.4349,319.578,1.47264
206.3000,-40.2784,319.355,1.4704
206.2000,-40.5013,320.724,1.48412
206.1000,-30.6396,322.156,1.49842
206.0000,-43.8221,321.997,1.49684
205.9000,-40.2673,323.338,1.51018
205.8000,-44.9409,323.997,1.51673
205.7000,-35.7713,324.197,1.51871
205.6000,-40.0358,324.867,1.52535
205.5000,-30.3978,325.463,1.53125
205.4000,-36.3795,326.461,1.54109
205.3000,-36.5664,327.49,1.55123
205.2000,-37.6545,328.304,1.55922
205.1000,-33.3361,329.742,1.5733
205.0000,-33.0262,331.415,1.58963
204.9000,-29.3103,331.8,1.59336
204.8000,-30.528,332.457,1.59975
204.7000,-28.1987,333.566,1.6105
204.6000,-30.7031,334.172,1.61637
204.5000,-20.9107,333.022,1.60523
204.4000,-24.345,335.57,1.62986
204.3000,-24.8559,335.37,1.62793
204.2000,-21.1468,337.796,1.65124
204.1000,-18.1336,337.92,1.65243
204.0000,-24.9782,338.778,1.66064
203.9000,-15.5069,340.458,1.67666
203.8000,-21.4579,341.161,1.68334
203.7000,-26.2931,342.563,1.69664
203.6000,-22.7799,342.779,1.69869
203.5000,-17.1751,344.458,1.71455
203.4000,-16.5462,344.365,1.71367
203.3000,-11.3781,345.555,1.72487
203.2000,-18.5901,347.853,1.74641
203.1000,-8.1451,347.323,1.74145
203.0000,-11.4563,348.204,1.74969
202.9000,-5.90825,349.296,1.75988
202.8000,-9.29552,350.194,1.76823
202.7000,-12.1354,349.992,1.76635
202.6000,-4.76919,350.794,1.77381
202.5000,4.04424,352.297,1.78773
202.4000,-0.588779,353.063,1.79481
202.3000,-1.50003,354.446,1.80756
202.2000,2.33279,355.374,1.81609
202.1000,-8.11563,355.817,1.82015
202.0000,-10.2255,356.285,1.82444
201.9000,-8.17839,358.97,1.84897
201.8000,-4.44924,360.193,1.86008
201.7000,1.68633,360.354,1.86154
201.6000,-5.00868,360.534,1.86318
201.5000,1.95608,362.484,1.88083
201.4000,9.26264,363.856,1.8932
201.3000,8.08888,363.538,1.89033
201.2000,13.1423,364.683,1.90064
201.1000,-0.200862,365.501,1.90798
201.0000,-1.71028,366.749,1.91915
200.9000,6.79408,367.471,1.9256
200.8000,0.913145,367.88,1.92925
200.7000,10.6315,367.995,1.93028
200.6000,9.98944,370.667,1.95404
200.5000,7.5085,370.496,1.95252
200.4000,1.49797,370.884,1.95595
200.3000,6.96243,371.842,1.96444
200.2000,2.4744,371.957,1.96545
200.1000,16.1864,373.347,1.97771
200.0000,-3.14361,374.218,1.98538
199.9000,6.12923,376.14,2.00224
199.8000,20.0036,376.831,2.00829
199.7000,6.54423,377.519,2.0143
199.6000,16.3153,378.093,2.01931
199.5000,14.1634,378.669,2.02432
199.4000,1.05669,379.028,2.02745
199.3000,9.84202,379.6,2.03242
199.2000,10.9193,380.356,2.03898
199.1000,4.48005,381.185,2.04617
199.0000,-0.753472,381.5,2.04889
198.9000,8.84001,382.84,2.06046
198.8000,13.6582,383.679,2.0677
198.7000,15.3725,383.675,2.06766
198.6000,14.0922,384.852,2.07778
198.5000,5.79337,385.556,2.08382
198.4000,21.7808,385.796,2.08588
198.3000,11.7891,386.598,2.09275
198.2000,23.5944,387.038,2.09651
198.1000,15.0558,387.929,2.10412
198.0000,10.7655,387.271,2.0985
197.9000,11.5789,388.011,2.10482
197.8000,5.27609,389.128,2.11434
197.7000,22.8801,389.393,2.11659
197.6000,12.0634,390.209,2.12352
197.5000,12.2837,390.31,2.12438
197.4000,17.4873,391.045,2.13062
197.3000,2.49215,392.125,2.13975
197.2000,11.3291,391.473,2.13423
197.1000,7.88134,392.685,2.14448
197.0000,11.5294,392.342,2.14158
196.9000,6.15647,393.721,2.15322
196.8000,18.1048,393.879,2.15455
196.7000,4.51039,394.161,2.15693
196.6000,15.9316,394.66,2.16112
196.5000,13.5952,395.346,2.16689
196.4000,10.8829,395.544,2.16855
196.3000,12.2385,396.186,2.17394
196.2000,-6.86652,395.756,2.17033
196.1000,12.9008,396.798,2.17906
196.0000,12.1349,397.116,2.18173
195.9000,5.09119,397.807,2.1875
195.8000,9.09448,398.499,2.19327
195.7000,15.2247,397.406,2.18415
195.6000,12.1018,398.811,2.19588
195.5000,15.8674,398.822,2.19596
195.4000,-3.60713,398.901,2.19662
195.3000,2.63587,399.954,2.20539
195.2000,20.9752,399.218,2.19927
195.1000,5.806,397.48,2.18477
195.0000,-0.537235,400.172,2.2072
194.9000,7.15139,400.205,2.20748
194.8000,-1.7932,400.508,2.20999
194.7000,12.3359,402.134,2.22347
194.6000,13.009,400.11,2.20669
194.5000,14.4728,400.909,2.21332
194.4000,7.8684,401.485,2.2181
194.3000,13.6967,400.427,2.20932
194.2000,10.0069,401.029,2.21432
194.1000,-0.360662,401.669,2.21962
194.0000,3.43236,402.066,2.22291
193.9000,10.7524,400.595,2.21071
193.8000,2.59103,401.645,2.21943
193.7000,7.61098,402.313,2.22495
193.6000,13.9659,402.273,2.22462
193.5000,2.05346,403.076,2.23127
193.4000,5.10428,401.885,2.22142
193.3000,24.4547,402.442,2.22602
193.2000,10.5076,402.821,2.22916
193.1000,9.55931,402.467,2.22623
193.0000,5.2577,404.104,2.23975
192.9000,-0.0195424,403.671,2.23618
192.8000,12.973,404.554,2.24345
192.7000,7.39298,402.667,2.22789
192.6000,8.18238,403.294,2.23306
192.5000,9.38508,404.167,2.24027
192.4000,5.08783,404.419,2.24234
192.3000,8.82791,403.048,2.23103
192.2000,10.6342,402.97,2.23039
192.1000,8.11482,403.35,2.23353
192.0000,6.13512,403.471,2.23452
191.9000,10.7574,403.977,2.2387
191.8000,6.29822,403.888,2.23796
191.7000,5.60873,403.96,2.23856
191.6000,2.69902,403.519,2.23492
191.5000,1.64673,403.425,2.23415
191.4000,4.35636,403.703,2.23644
191.3000,2.85457,402.606,2.22738
191.2000,-1.72367,403.679,2.23624
191.1000,14.4733,404.514,2.24312
191.0000,3.21093,404.589,2.24374
190.9000,7.03781,404.917,2.24645
190.8000,-2.16751,405.91,2.2546
190.7000,-4.59759,403.984,2.23875
190.6000,7.50743,404.524,2.24321
190.5000,4.18985,404.914,2.24642
190.4000,-1.46684,404.108,2.23978
190.3000,0.131013,404.751,2.24507
190.2000,-5.91016,405.353,2.25002
190.1000,10.5041,404.129,2.23995
190.0000,-8.09645,404.851,2.2459

##### Extended Information
[Comments]
Sample name,LW+MB buffer and protein
Comment,Buffer and protein
User,Leah Whitehouse and Micheal Boden
Division
Company,Saint Mary's College

[Detailed Information]
Creation date,9/29/2022 2:12 PM

Data array type,Linear data array * 3
Horizontal axis,Wavelength [nm]
Vertical axis(1),CD [mdeg]
Vertical axis(2),HT [V]
Vertical axis(3),Abs
Start,320 nm
End,190 nm
Data interval,0.1 nm
Data points,1301    

[Measurement Information]
Instrument name,J-1500
Model name,J-1500
Serial No.,B051061638

Detector,PM-539
Detector S/N,B051061638
  Lock-in amp.,X mode
  HT volt,Auto

Accessory,PTC-517
Accessory S/N,B026561646
  Temperature,22.59 C
  Control sensor,Holder
  Monitor sensor,Holder

Measurement date,9/29/2022 2:11 PM

CD Overload detect,998
Photometric mode,CD, HT, Abs
Measure range,320 - 190 nm
Data pitch,0.1 nm
CD scale,20 mdeg/0.05 dOD
FL scale,20 mdeg/0.05 dOD
D.I.T.,8 msec
Bandwidth,2.00 nm
Start mode,Immediately
Scanning mode,Continuous
Scanning speed,200 nm/min
Baseline correction,None
Shutter control,Auto
No. of cycle,1/1
N2 Flowmeter,Manual

Solvent,NaPO4 buffer

