TITLE,LW+MB buffer and protein
DATA TYPE,
ORIGIN,JASCO
OWNER,
DATE,22/09/29
TIME,15:10:05
SPECTROMETER/DATA SYSTEM,
LOCALE,1033
RESOLUTION,
DELTAX,-0.1
XUNITS,NANOMETERS
YUNITS,CD [mdeg]
Y2UNITS,HT [V]
Y3UNITS,ABSORBANCE
FIRSTX,  320.0000
LASTX,  190.0000
NPOINTS,    1301
FIRSTY,     0.56231
MAXY,    28.46087
MINY,   -61.96407
XYDATA
320.0000,0.562309,209.719,0.168755
319.9000,1.47734,209.123,0.160264
319.8000,1.11791,208.705,0.154296
319.7000,-0.100405,209.579,0.166755
319.6000,-0.130259,209.271,0.162365
319.5000,1.24948,209.051,0.15923
319.4000,2.07894,208.777,0.155316
319.3000,0.593671,208.921,0.157371
319.2000,1.38998,208.689,0.15407
319.1000,-0.332328,208.805,0.155721
319.0000,0.162369,208.287,0.148319
318.9000,-0.204226,209.288,0.162607
318.8000,2.43193,209.004,0.158567
318.7000,1.93776,208.977,0.158179
318.6000,2.25846,209.279,0.162478
318.5000,2.06632,208.06,0.145058
318.4000,-0.254915,208.981,0.158228
318.3000,1.24277,208.311,0.148659
318.2000,0.669441,209.786,0.169706
318.1000,2.09555,208.3,0.148497
318.0000,1.10741,208.55,0.152078
317.9000,1.85735,208.262,0.147962
317.8000,0.750936,207.976,0.143857
317.7000,-0.0622549,208.788,0.155478
317.6000,0.251185,208.481,0.15109
317.5000,1.46153,208.556,0.152159
317.4000,2.03947,208.246,0.147735
317.3000,1.47079,209.783,0.169657
317.2000,0.749406,208.003,0.144247
317.1000,-0.0522934,208.576,0.152451
317.0000,0.939347,208.52,0.151641
316.9000,-0.0430892,209.176,0.161008
316.8000,2.24164,209.314,0.162978
316.7000,2.62779,209.14,0.160507
316.6000,1.02378,209.142,0.160523
316.5000,-0.475115,208.518,0.151625
316.4000,1.09414,208.976,0.158163
316.3000,0.88737,208.38,0.149648
316.2000,1.25687,208.322,0.148821
316.1000,0.483799,208.155,0.146421
316.0000,2.70441,208.748,0.154912
315.9000,1.82188,208.738,0.154766
315.8000,1.47622,208.912,0.157241
315.7000,1.35548,208.627,0.153179
315.6000,-0.0157782,208.202,0.147102
315.5000,-1.45563,208.402,0.149956
315.4000,1.38349,208.543,0.151981
315.3000,1.26552,209.291,0.162655
315.2000,-1.07837,208.301,0.148513
315.1000,0.514497,208.675,0.153859
315.0000,1.18357,208.561,0.15224
314.9000,-0.605039,209.067,0.159456
314.8000,2.4011,208.381,0.149664
314.7000,0.87136,208.594,0.15271
314.6000,0.350541,207.925,0.143127
314.5000,1.70507,208.705,0.154296
314.4000,1.56302,209.299,0.162768
314.3000,0.0735517,209.018,0.158761
314.2000,2.51688,206.986,0.129658
314.1000,0.323245,208.951,0.157807
314.0000,1.39032,208.331,0.148951
313.9000,1.69506,208.352,0.149243
313.8000,0.878731,207.41,0.135748
313.7000,1.14351,208.082,0.145383
313.6000,-0.128176,207.667,0.139439
313.5000,0.881159,208.189,0.146908
313.4000,2.44912,209.147,0.160604
313.3000,1.2232,207.577,0.138139
313.2000,0.586468,208.518,0.151625
313.1000,3.35264,209.862,0.170785
313.0000,2.76781,208.346,0.149162
312.9000,-0.847824,208.906,0.15716
312.8000,0.345411,207.162,0.132183
312.7000,-0.926817,207.812,0.141519
312.6000,1.76492,208.746,0.154879
312.5000,0.77265,208.646,0.153455
312.4000,0.664599,208.923,0.157403
312.3000,1.36451,209.21,0.161492
312.2000,1.94522,207.749,0.140609
312.1000,1.57387,207.635,0.138968
312.0000,0.56422,207.827,0.14173
311.9000,0.0547507,207.775,0.140983
311.8000,1.56881,208.999,0.158486
311.7000,0.379373,208.864,0.156562
311.6000,0.368461,207.305,0.134234
311.5000,1.97211,208.591,0.152661
311.4000,0.983354,208.425,0.150296
311.3000,0.437191,208.595,0.152726
311.2000,-0.370215,208.27,0.148075
311.1000,0.81685,210.126,0.174538
311.0000,1.73177,208.336,0.149016
310.9000,-0.779362,208.897,0.157031
310.8000,0.423569,208.505,0.15143
310.7000,0.620826,208.506,0.151447
310.6000,0.959228,207.638,0.139017
310.5000,1.19782,208.249,0.147767
310.4000,0.716999,207.774,0.140967
310.3000,-0.116894,208.324,0.148838
310.2000,0.38749,208.706,0.154313
310.1000,0.974325,208.913,0.157257
310.0000,-0.320311,208.155,0.146421
309.9000,1.95021,209.561,0.166497
309.8000,0.466253,208.607,0.152888
309.7000,1.28685,208.047,0.14488
309.6000,0.410103,208.492,0.151252
309.5000,1.36993,207.766,0.140853
309.4000,1.09877,208.976,0.158163
309.3000,1.95437,207.815,0.141551
309.2000,0.734711,208.172,0.146665
309.1000,-0.686509,208.452,0.150669
309.0000,1.98032,208.31,0.148643
308.9000,-0.50462,208.554,0.152127
308.8000,0.886179,208.109,0.145772
308.7000,1.37705,208.307,0.148594
308.6000,2.24621,207.854,0.14212
308.5000,0.432811,208.654,0.153568
308.4000,1.88565,209.07,0.159505
308.3000,1.0106,207.92,0.143062
308.2000,0.771264,209.393,0.164108
308.1000,0.56645,208.257,0.147881
308.0000,0.0956137,207.269,0.133713
307.9000,1.42433,208.79,0.15551
307.8000,1.64206,209.302,0.162817
307.7000,0.435775,208.06,0.145058
307.6000,-0.0581595,208.704,0.15428
307.5000,0.62963,208.393,0.149826
307.4000,-0.126409,207.725,0.140268
307.3000,-0.421771,209.244,0.161977
307.2000,2.41581,208.401,0.14994
307.1000,0.241274,207.728,0.1403
307.0000,1.83286,208.186,0.146875
306.9000,-0.722589,208.94,0.157645
306.8000,0.271814,208.08,0.145351
306.7000,0.400801,207.741,0.140495
306.6000,0.862376,208.081,0.145367
306.5000,0.650648,209.764,0.169383
306.4000,0.335552,207.586,0.138269
306.3000,-0.102195,208.285,0.148286
306.2000,0.0152118,207.643,0.139081
306.1000,1.88754,208.148,0.146324
306.0000,0.62004,208.704,0.15428
305.9000,1.29666,208.617,0.153034
305.8000,0.166658,208.633,0.15326
305.7000,-0.311255,206.215,0.118542
305.6000,1.28644,207.823,0.141665
305.5000,1.03702,208.827,0.156028
305.4000,0.949462,209.23,0.161783
305.3000,-0.806437,207.824,0.141681
305.2000,1.56708,208.897,0.157031
305.1000,2.85606,207.985,0.143987
305.0000,0.967889,208.369,0.149486
304.9000,0.275811,209.568,0.166593
304.8000,1.68552,207.726,0.140284
304.7000,1.15053,208.891,0.15695
304.6000,2.14867,207.955,0.143565
304.5000,2.40196,207.738,0.140447
304.4000,2.1156,207.772,0.140934
304.3000,0.450393,208.285,0.148286
304.2000,2.17688,208.067,0.145172
304.1000,-1.62351,207.883,0.142526
304.0000,0.350189,208.209,0.1472
303.9000,2.17323,207.452,0.13635
303.8000,0.623696,207.759,0.140755
303.7000,1.59722,208.143,0.146259
303.6000,1.33517,208.946,0.157726
303.5000,2.07751,207.267,0.133697
303.4000,0.629963,206.892,0.128305
303.3000,0.560849,208.584,0.152564
303.2000,1.75083,208.202,0.147102
303.1000,-0.25459,207.961,0.143646
303.0000,2.44385,207.842,0.141941
302.9000,0.771983,207.937,0.143305
302.8000,1.28825,207.945,0.143419
302.7000,0.279335,209.681,0.168206
302.6000,1.42125,207.98,0.143922
302.5000,0.527442,208.487,0.151171
302.4000,2.41289,208.427,0.150312
302.3000,1.86403,207.854,0.14212
302.2000,0.618177,206.938,0.128957
302.1000,-0.144316,209.002,0.158535
302.0000,0.359326,207.706,0.139992
301.9000,0.0127507,207.374,0.135227
301.8000,1.34569,207.348,0.134853
301.7000,0.168917,207.127,0.131678
301.6000,0.510029,208.879,0.156772
301.5000,1.9298,207.916,0.142997
301.4000,0.584257,207.615,0.138692
301.3000,0.484299,207.321,0.134462
301.2000,-0.41909,207.335,0.134674
301.1000,1.47531,207.093,0.131189
301.0000,1.0099,208.181,0.146794
300.9000,2.15925,207.498,0.137
300.8000,-0.354803,207.679,0.139602
300.7000,1.25912,207.899,0.142753
300.6000,0.885048,207.394,0.13552
300.5000,0.41868,208.229,0.147492
300.4000,-0.16862,207.697,0.139862
300.3000,0.196722,207.113,0.131483
300.2000,1.95312,207.69,0.139764
300.1000,0.637952,208.602,0.152823
300.0000,2.2728,207.32,0.134446
299.9000,0.83838,207.944,0.143403
299.8000,-1.14875,207.593,0.138366
299.7000,2.4229,206.283,0.119523
299.6000,0.642508,208.504,0.151414
299.5000,0.491813,207.444,0.136236
299.4000,0.443357,208.115,0.145853
299.3000,1.92564,208.61,0.152936
299.2000,1.51419,207.398,0.135569
299.1000,0.454169,207.424,0.135943
299.0000,0.435331,207.992,0.144085
298.9000,0.882436,207.722,0.140219
298.8000,0.430084,208.154,0.146405
298.7000,-0.429489,207.553,0.137797
298.6000,-1.20773,207.681,0.139634
298.5000,-0.122084,207.846,0.142006
298.4000,2.56546,207.492,0.136919
298.3000,1.28252,208.104,0.145691
298.2000,1.86855,207.865,0.142266
298.1000,1.96199,207.445,0.136252
298.0000,2.01122,208.326,0.14887
297.9000,0.685528,207.135,0.131792
297.8000,0.71652,208.141,0.146226
297.7000,0.552865,207.76,0.140772
297.6000,4.2738,208.094,0.145545
297.5000,-0.369863,208.364,0.149421
297.4000,2.33035,207.57,0.138041
297.3000,0.00259049,206.097,0.116842
297.2000,1.42738,207.398,0.135569
297.1000,0.925624,208.733,0.154685
297.0000,-0.00793336,207.318,0.13443
296.9000,1.04058,207.837,0.141876
296.8000,0.580633,208.165,0.146567
296.7000,1.24591,208.324,0.148838
296.6000,1.41136,207.597,0.138431
296.5000,0.0788701,206.915,0.128631
296.4000,1.56009,207.17,0.132297
296.3000,-0.168946,206.498,0.122627
296.2000,0.917582,207.554,0.137814
296.1000,-1.15768,207.528,0.137439
296.0000,1.59044,207.582,0.13822
295.9000,2.71538,207.019,0.13013
295.8000,0.530465,208.444,0.150555
295.7000,1.09883,207.203,0.132769
295.6000,0.355883,206.858,0.127816
295.5000,0.896392,206.926,0.128794
295.4000,0.478029,206.588,0.123917
295.3000,-0.491783,208.322,0.148821
295.2000,0.011408,207.297,0.13412
295.1000,0.00794667,207.613,0.138659
295.0000,0.775495,206.507,0.122758
294.9000,-1.31392,207.541,0.137618
294.8000,1.74918,207.075,0.130929
294.7000,0.621691,208.327,0.148886
294.6000,-0.00406106,208.399,0.149923
294.5000,1.32264,206.916,0.128647
294.4000,0.920704,207.58,0.138187
294.3000,0.494162,207.533,0.137505
294.2000,1.31529,207.291,0.134039
294.1000,3.55173,207.343,0.134788
294.0000,1.32628,208.047,0.14488
293.9000,-0.214327,207.513,0.137228
293.8000,1.98901,207.354,0.134934
293.7000,0.506292,207.149,0.131988
293.6000,2.54171,207.467,0.136561
293.5000,2.35444,207.57,0.138041
293.4000,0.649096,206.609,0.124227
293.3000,0.239998,208.239,0.147622
293.2000,-0.278325,206.769,0.126527
293.1000,-0.102308,207.724,0.140252
293.0000,2.49589,207.537,0.13757
292.9000,-0.706812,207.572,0.138074
292.8000,2.19465,207.781,0.141064
292.7000,2.22793,207.571,0.138057
292.6000,-0.290507,206.932,0.128876
292.5000,0.848652,206.754,0.126316
292.4000,1.36461,206.932,0.128876
292.3000,0.768418,207.614,0.138675
292.2000,1.01876,207.635,0.138968
292.1000,2.87997,206.405,0.121288
292.0000,2.16388,207.977,0.143873
291.9000,0.99472,208.976,0.158163
291.8000,0.0862568,207.217,0.132965
291.7000,-0.945618,207.521,0.137342
291.6000,0.503895,206.525,0.123019
291.5000,-0.0137294,207.978,0.14389
291.4000,2.13701,208.181,0.146794
291.3000,0.916936,206.744,0.126169
291.2000,0.464351,207.176,0.132378
291.1000,0.803585,206.929,0.128826
291.0000,1.02907,205.937,0.114535
290.9000,0.0941312,207.499,0.137017
290.8000,0.647094,206.587,0.1239
290.7000,0.899747,206.628,0.124504
290.6000,-0.0106662,207.041,0.13044
290.5000,1.59827,207.269,0.133713
290.4000,1.27358,206.738,0.126087
290.3000,0.630646,206.747,0.126217
290.2000,0.974893,207.354,0.134934
290.1000,1.41005,207.723,0.140236
290.0000,-0.131096,207.696,0.139846
289.9000,0.736299,207.831,0.141779
289.8000,1.18384,207.476,0.136691
289.7000,0.518213,208.33,0.148935
289.6000,-0.088806,206.406,0.121304
289.5000,1.20889,209.537,0.166158
289.4000,-0.721162,209.143,0.160539
289.3000,1.35437,207.803,0.141389
289.2000,-0.84763,207.439,0.136154
289.1000,1.76864,207.663,0.139374
289.0000,0.28024,207.481,0.136756
288.9000,0.239251,206.627,0.124488
288.8000,0.678364,205.704,0.111162
288.7000,0.492828,207.88,0.142493
288.6000,0.645395,208.532,0.151819
288.5000,1.19221,206.666,0.125043
288.4000,0.784894,206.925,0.128778
288.3000,1.4204,208.084,0.145415
288.2000,0.283241,208.925,0.157435
288.1000,1.23843,207.871,0.142364
288.0000,-0.78522,208.16,0.146502
287.9000,0.848069,207.005,0.129919
287.8000,-0.199499,208.346,0.149162
287.7000,1.33961,206.342,0.120373
287.6000,0.567797,207.708,0.140024
287.5000,0.660382,206.84,0.127555
287.4000,0.329499,206.902,0.128436
287.3000,1.60892,208.358,0.149324
287.2000,2.82467,207.854,0.14212
287.1000,0.0101001,208.794,0.155559
287.0000,0.574981,208.139,0.146194
286.9000,1.32259,207.922,0.143094
286.8000,1.6554,207.67,0.139472
286.7000,0.0635408,207.861,0.142217
286.6000,-1.28553,207.816,0.141568
286.5000,-0.700728,208.663,0.153698
286.4000,2.23845,207.721,0.140203
286.3000,0.845779,208.163,0.146535
286.2000,0.669788,207.312,0.134332
286.1000,0.602757,208.496,0.151301
286.0000,0.414721,207.084,0.131059
285.9000,1.66909,207.547,0.137716
285.8000,-1.08021,208.133,0.146113
285.7000,1.06532,209.074,0.159553
285.6000,1.39757,206.962,0.129299
285.5000,0.0856877,208.313,0.148692
285.4000,0.157488,207.076,0.130945
285.3000,0.0879363,208.449,0.150636
285.2000,1.56345,208.04,0.144783
285.1000,-0.869071,208.686,0.154021
285.0000,-2.25785,207.941,0.143354
284.9000,2.86723,209.146,0.160588
284.8000,1.74371,208.166,0.146583
284.7000,0.195035,206.915,0.128631
284.6000,1.40525,208.456,0.150734
284.5000,0.600072,207.698,0.139878
284.4000,0.0411784,208.01,0.144344
284.3000,2.19321,208.01,0.144344
284.2000,-0.0359522,207.548,0.137732
284.1000,0.199606,207.788,0.141162
284.0000,0.523871,207.695,0.139829
283.9000,1.16087,207.802,0.141373
283.8000,-0.117691,208.134,0.146129
283.7000,-1.46028,208.117,0.145886
283.6000,0.653156,208.089,0.14548
283.5000,0.648077,207.169,0.132281
283.4000,0.295908,208.086,0.145432
283.3000,0.998119,206.371,0.120798
283.2000,-0.251097,208.016,0.144442
283.1000,1.21171,208.155,0.146421
283.0000,1.52217,208.599,0.152775
282.9000,0.280254,207.564,0.13796
282.8000,-0.617738,207.938,0.143322
282.7000,1.41752,208.52,0.151641
282.6000,2.93433,207.755,0.14069
282.5000,1.54583,208.192,0.146956
282.4000,0.536321,208.611,0.152953
282.3000,0.70218,208.566,0.152305
282.2000,-0.66729,208.04,0.144783
282.1000,-0.146476,208.602,0.152823
282.0000,1.76731,208.512,0.151528
281.9000,0.388602,207.539,0.137602
281.8000,0.669727,207.993,0.144101
281.7000,2.29962,208.576,0.152451
281.6000,3.43879,208.06,0.145058
281.5000,0.0250732,209.035,0.159004
281.4000,0.719141,207.943,0.143386
281.3000,0.562238,208.614,0.152985
281.2000,-0.392385,208.113,0.145821
281.1000,1.73743,209.236,0.161864
281.0000,1.06452,208.206,0.147151
280.9000,1.72099,208.032,0.144669
280.8000,0.72777,207.289,0.134007
280.7000,0.00622467,209.19,0.161218
280.6000,0.0765802,208.452,0.150669
280.5000,-0.428115,208.582,0.152532
280.4000,1.73955,208.581,0.152515
280.3000,1.11532,208.743,0.154831
280.2000,1.03475,208.294,0.148416
280.1000,0.868318,209.364,0.163689
280.0000,0.0374706,208.909,0.157209
279.9000,1.65774,208.512,0.151528
279.8000,-0.0456437,208.53,0.151787
279.7000,2.47573,208.912,0.157241
279.6000,0.334859,206.77,0.126544
279.5000,1.84732,208.568,0.152337
279.4000,2.5342,207.229,0.133144
279.3000,1.45416,206.673,0.125141
279.2000,0.922064,208.293,0.1484
279.1000,2.35532,208.268,0.148043
279.0000,-0.394007,208.675,0.153859
278.9000,0.879595,208.482,0.151106
278.8000,2.2815,208.25,0.147784
278.7000,-0.731551,209.246,0.162009
278.6000,-1.07831,209.239,0.161912
278.5000,2.36588,207.786,0.141145
278.4000,-1.62293,207.751,0.140642
278.3000,-1.04332,208.126,0.146016
278.2000,0.508785,210.797,0.184054
278.1000,-0.506727,208.489,0.151204
278.0000,1.0512,207.833,0.141811
277.9000,0.169181,209.806,0.16998
277.8000,0.414798,207.556,0.137846
277.7000,-0.199981,208.959,0.15792
277.6000,0.242752,208.854,0.156416
277.5000,0.483838,208.501,0.151382
277.4000,0.84973,208.39,0.149794
277.3000,1.35659,208.762,0.155106
277.2000,0.55228,209.23,0.161783
277.1000,-0.0352181,207.886,0.142574
277.0000,0.420436,208.249,0.147767
276.9000,2.09311,208.424,0.15028
276.8000,0.392799,208.113,0.145821
276.7000,0.777604,208.122,0.145951
276.6000,0.838853,210.238,0.176131
276.5000,-1.12249,208.435,0.150426
276.4000,0.903426,208.277,0.148173
276.3000,-0.795976,208.689,0.15407
276.2000,-0.0292778,207.951,0.1435
276.1000,-0.558499,208.191,0.14694
276.0000,1.28595,208.331,0.148951
275.9000,0.0227944,208.097,0.145594
275.8000,0.416487,208.803,0.155688
275.7000,1.24041,207.786,0.141145
275.6000,1.23492,208.447,0.150604
275.5000,0.319085,208.173,0.146681
275.4000,0.0198969,208.578,0.152483
275.3000,0.992262,208.436,0.150442
275.2000,-0.323711,207.692,0.139797
275.1000,1.32304,207.501,0.137049
275.0000,0.910484,208.967,0.158034
274.9000,-0.902073,208.995,0.158438
274.8000,-1.65503,208.567,0.152321
274.7000,-0.161417,208.705,0.154296
274.6000,-0.0927865,208.39,0.149794
274.5000,0.532061,206.932,0.128876
274.4000,1.56343,209.161,0.160797
274.3000,0.246912,208.974,0.15813
274.2000,-1.25694,208.694,0.154135
274.1000,-0.123738,208.282,0.148238
274.0000,2.13369,209.018,0.158761
273.9000,0.887579,208.629,0.153212
273.8000,1.14177,208.421,0.150231
273.7000,0.349808,208.515,0.151576
273.6000,1.91546,208.459,0.150782
273.5000,0.0509027,209.134,0.16041
273.4000,1.67066,208.411,0.150085
273.3000,-0.582534,209.902,0.171349
273.2000,-1.37112,210.013,0.172928
273.1000,-0.00406876,208.354,0.149275
273.0000,0.130194,207.768,0.140886
272.9000,-1.1555,207.009,0.129984
272.8000,0.55165,208.818,0.155899
272.7000,-1.60193,208.061,0.145075
272.6000,-0.354131,208.363,0.149405
272.5000,0.0631403,208.458,0.150766
272.4000,-1.02638,208.951,0.157807
272.3000,-0.0505652,208.43,0.150361
272.2000,-1.6654,208.422,0.150248
272.1000,0.461094,208.373,0.149551
272.0000,-2.04837,209.355,0.16356
271.9000,-0.336087,208.865,0.156578
271.8000,-0.487747,209.525,0.165981
271.7000,1.77039,208.806,0.155737
271.6000,1.32423,208.002,0.144231
271.5000,1.74812,207.721,0.140203
271.4000,0.768972,209.234,0.161848
271.3000,1.35308,207.844,0.141974
271.2000,0.321821,208.993,0.158406
271.1000,1.96062,208.665,0.153714
271.0000,0.807901,208.967,0.158034
270.9000,-0.735187,209.169,0.160911
270.8000,-0.713894,208.098,0.14561
270.7000,-0.305741,208.606,0.152872
270.6000,0.73666,207.431,0.136041
270.5000,0.414888,208.194,0.146989
270.4000,0.573186,208.169,0.146632
270.3000,-0.939966,207.985,0.143987
270.2000,0.466936,208.75,0.154928
270.1000,-0.338172,209.331,0.16322
270.0000,0.780428,208.447,0.150604
269.9000,2.51541,209.826,0.17027
269.8000,-0.665955,208.51,0.151511
269.7000,-0.840918,208.449,0.150636
269.6000,-0.0574914,208.975,0.158147
269.5000,0.0205112,208.972,0.158098
269.4000,-1.18951,208.98,0.158211
269.3000,0.962552,209.572,0.166658
269.2000,-0.065672,209.563,0.166529
269.1000,0.117398,208.832,0.156109
269.0000,0.39995,210.179,0.175294
268.9000,-0.322683,207.507,0.13713
268.8000,0.51146,209.449,0.164899
268.7000,-0.864006,208.48,0.151074
268.6000,-0.365547,209.517,0.165867
268.5000,-0.117389,209.078,0.159618
268.4000,0.868084,209.579,0.166755
268.3000,1.13324,208.747,0.154895
268.2000,-0.469661,208.474,0.150993
268.1000,0.79507,209.194,0.161266
268.0000,-0.298715,208.85,0.156368
267.9000,-0.591992,209.114,0.160135
267.8000,-0.182959,208.959,0.15792
267.7000,-0.139853,207.594,0.138383
267.6000,-0.686234,209.782,0.169641
267.5000,1.02945,209.554,0.1664
267.4000,1.00415,208.603,0.152839
267.3000,0.221141,209.364,0.163689
267.2000,-0.953009,208.857,0.156465
267.1000,-1.19376,209.616,0.167287
267.0000,2.92885,209.504,0.16569
266.9000,1.57325,209.585,0.166835
266.8000,0.446526,208.578,0.152483
266.7000,0.336207,210.076,0.173829
266.6000,0.735514,209.948,0.17201
266.5000,-0.763778,208.483,0.151123
266.4000,-0.746598,210.516,0.180071
266.3000,-0.736719,210.412,0.178592
266.2000,-0.495832,207.582,0.13822
266.1000,-1.67016,210.703,0.182722
266.0000,0.183514,209.777,0.169577
265.9000,-1.45225,209.909,0.171446
265.8000,1.40972,208.974,0.15813
265.7000,1.00203,208.325,0.148854
265.6000,-0.344331,209.987,0.172557
265.5000,-0.648436,210.514,0.180038
265.4000,-1.21792,209.281,0.16251
265.3000,0.497891,209.918,0.171575
265.2000,-0.141169,208.3,0.148497
265.1000,-0.100732,208.764,0.155138
265.0000,0.969605,209.214,0.161557
264.9000,-1.89038,209.392,0.164092
264.8000,-0.795833,209.514,0.165835
264.7000,-0.150945,210.186,0.175391
264.6000,-0.458831,209.812,0.170076
264.5000,-0.540921,211.472,0.19361
264.4000,-0.948193,211.513,0.194187
264.3000,0.50825,210.485,0.179637
264.2000,0.515955,210.1,0.174167
264.1000,0.156805,209.51,0.165771
264.0000,1.97746,209.606,0.167142
263.9000,-0.312957,210.306,0.177096
263.8000,-1.53787,211.8,0.198235
263.7000,-0.910983,210.221,0.17589
263.6000,-2.80688,210.161,0.175037
263.5000,-0.681519,209.99,0.172606
263.4000,0.487428,211,0.186927
263.3000,-0.66565,209.752,0.169222
263.2000,-0.87156,211.613,0.195595
263.1000,0.607094,210.668,0.182224
263.0000,-0.869974,210.361,0.177868
262.9000,0.386044,210.175,0.17523
262.8000,0.722941,208.801,0.155656
262.7000,0.294811,210.003,0.172783
262.6000,0.837595,211.362,0.192057
262.5000,0.820255,210.723,0.183011
262.4000,1.38928,210.704,0.182738
262.3000,-0.526647,210.243,0.176195
262.2000,1.43801,210.228,0.175986
262.1000,1.42087,209.611,0.167207
262.0000,0.112615,210.926,0.185884
261.9000,-0.553304,210.763,0.183573
261.8000,0.636769,210.193,0.175487
261.7000,0.326064,210.253,0.17634
261.6000,-1.04675,210.647,0.181935
261.5000,-1.98904,210.796,0.184038
261.4000,-0.783487,210.268,0.176549
261.3000,-0.157077,210.388,0.178254
261.2000,0.624733,209.443,0.164819
261.1000,0.805165,211.07,0.187921
261.0000,0.652525,210.914,0.185708
260.9000,-0.514037,210.411,0.178576
260.8000,-1.23624,210.958,0.186333
260.7000,0.709204,211.236,0.190262
260.6000,-0.256711,210.476,0.179508
260.5000,0.430392,211.165,0.189268
260.4000,0.832267,209.619,0.167319
260.3000,-0.77223,210.666,0.182192
260.2000,-2.71386,210.442,0.179026
260.1000,0.404163,209.96,0.172171
260.0000,1.14111,210.245,0.176228
259.9000,0.0457058,211.781,0.197963
259.8000,-0.739139,209.854,0.170673
259.7000,1.42531,210.647,0.181935
259.6000,-0.464557,210.179,0.175294
259.5000,1.86881,211.134,0.188819
259.4000,1.76751,210.769,0.183653
259.3000,0.153264,210.565,0.180762
259.2000,0.0888949,210.935,0.186013
259.1000,1.15821,212.242,0.204466
259.0000,-1.08031,210.741,0.183267
258.9000,0.250731,210.706,0.18277
258.8000,-0.244783,210.797,0.184054
258.7000,1.0553,211.862,0.199114
258.6000,-0.888442,210.425,0.178785
258.5000,0.0509352,212.04,0.201623
258.4000,-0.372413,211.022,0.187248
258.3000,-0.834673,211.479,0.193706
258.2000,-0.522686,211.66,0.196267
258.1000,-1.93332,211.359,0.192008
258.0000,0.673304,211.777,0.197915
257.9000,0.371145,211.354,0.191945
257.8000,0.0164599,212.137,0.202997
257.7000,-0.458113,211.274,0.190807
257.6000,2.25222,211.545,0.194635
257.5000,0.875326,211.768,0.197787
257.4000,1.21186,209.942,0.171913
257.3000,-0.671143,212.142,0.203061
257.2000,1.18022,212.735,0.211404
257.1000,-1.69411,212.016,0.201288
257.0000,-1.32118,210.951,0.186237
256.9000,-0.818093,211.012,0.187103
256.8000,0.891904,210.658,0.182079
256.7000,-0.0666076,211.563,0.194891
256.6000,1.08995,211.715,0.197035
256.5000,-1.81181,211.403,0.192633
256.4000,0.0577989,212.154,0.203237
256.3000,-0.271327,211.796,0.198187
256.2000,0.101877,212.248,0.204562
256.1000,-0.665473,211.885,0.199434
256.0000,0.885712,212.567,0.209045
255.9000,-0.112485,212.195,0.203811
255.8000,-0.371575,211.902,0.199674
255.7000,1.65927,212.204,0.203939
255.6000,-0.463663,212.399,0.206684
255.5000,0.0697465,211.794,0.198155
255.4000,0.53838,212.389,0.206541
255.3000,0.682757,211.596,0.195355
255.2000,-0.0791552,213.046,0.215783
255.1000,0.329387,212.705,0.21099
255.0000,0.725722,212.282,0.205041
254.9000,-0.409701,212.508,0.208216
254.8000,-1.82604,211.643,0.196027
254.7000,-2.00718,211.55,0.194715
254.6000,-1.47629,212.916,0.213952
254.5000,1.19355,212.228,0.204275
254.4000,0.435077,212.982,0.214876
254.3000,1.32074,212.432,0.207147
254.2000,0.139725,213.023,0.215465
254.1000,-0.0467559,212.389,0.206541
254.0000,1.06159,212.364,0.20619
253.9000,0.436374,211.982,0.200808
253.8000,-0.887424,213.573,0.223176
253.7000,0.518997,212.199,0.203859
253.6000,0.0853407,212.945,0.214366
253.5000,-0.112697,212.37,0.20627
253.4000,-0.97955,212.749,0.211611
253.3000,-0.261578,213.172,0.217549
253.2000,0.473163,213.644,0.224176
253.1000,0.839864,212.635,0.210002
253.0000,1.30846,213.822,0.226668
252.9000,0.246553,213.464,0.221651
252.8000,-0.108245,212.323,0.205615
252.7000,-0.12545,212.176,0.20354
252.6000,-1.31651,212.715,0.211133
252.5000,-1.51419,212.661,0.210368
252.4000,-0.877764,213.678,0.224653
252.3000,0.11728,212.846,0.212965
252.2000,0.97812,213.384,0.220523
252.1000,-0.270033,213.294,0.219267
252.0000,-1.98861,213.249,0.218631
251.9000,1.77658,212.738,0.211452
251.8000,0.444527,213.263,0.218821
251.7000,-0.00486756,213.043,0.215735
251.6000,-1.1257,212.987,0.214955
251.5000,0.913867,213.939,0.228302
251.4000,-0.437149,213.267,0.218885
251.3000,-0.0614202,213.888,0.227588
251.2000,-0.68061,213.588,0.223382
251.1000,0.330305,213.848,0.227033
251.0000,-1.53272,213.678,0.224653
250.9000,-0.737663,213.04,0.215703
250.8000,2.0057,213.702,0.224986
250.7000,-1.05622,213.982,0.228905
250.6000,0.86845,213.165,0.217454
250.5000,-1.97109,215.328,0.247695
250.4000,-0.506625,213.758,0.225764
250.3000,0.791075,213.948,0.228429
250.2000,0.229873,214.179,0.231663
250.1000,-0.144484,214.447,0.2354
250.0000,1.27545,214.617,0.237774
249.9000,-0.903318,214.126,0.230918
249.8000,-0.108549,213.919,0.228017
249.7000,-0.498103,214.491,0.236018
249.6000,0.206525,215.347,0.247963
249.5000,-1.02034,214.901,0.241743
249.4000,-0.593078,214.605,0.237616
249.3000,-1.05003,213.589,0.223398
249.2000,-0.450594,214.222,0.232265
249.1000,-1.05234,214.038,0.229682
249.0000,0.956403,213.421,0.221047
248.9000,-0.429499,214.098,0.230522
248.8000,-2.1269,214.076,0.230221
248.7000,0.967155,214.839,0.240873
248.6000,-1.14573,214.05,0.229856
248.5000,-1.56579,214.788,0.240162
248.4000,1.01237,214.909,0.241853
248.3000,-1.19438,215.415,0.248909
248.2000,-1.71957,214.722,0.239245
248.1000,-1.42372,214.107,0.230649
248.0000,-0.931059,214.922,0.242042
247.9000,0.306522,215.439,0.24924
247.8000,-0.193873,215.112,0.24468
247.7000,-2.5158,214.056,0.229935
247.6000,-1.69739,212.856,0.213109
247.5000,-2.80394,215.611,0.251636
247.4000,0.99667,214.387,0.234562
247.3000,-0.570806,214.61,0.237679
247.2000,-2.80466,214.598,0.237521
247.1000,-2.12108,214.4,0.234751
247.0000,-0.597038,214.775,0.239988
246.9000,-1.32882,214.377,0.234435
246.8000,-1.01806,214.485,0.235939
246.7000,-2.22805,214.894,0.241647
246.6000,-0.885486,215.373,0.248326
246.5000,-0.990826,214.501,0.23616
246.4000,-1.27235,215.205,0.245975
246.3000,-1.1923,214.828,0.240731
246.2000,-0.219735,214.827,0.240715
246.1000,-1.03319,215.458,0.249508
246.0000,-0.671177,215.432,0.249146
245.9000,-2.68047,216.735,0.267235
245.8000,-2.09229,215.546,0.250722
245.7000,-0.849241,215.516,0.250312
245.6000,-1.02021,215.09,0.24438
245.5000,-0.320559,215.341,0.247868
245.4000,-0.393938,214.468,0.235701
245.3000,-2.82746,215.949,0.25633
245.2000,-1.16755,216.275,0.260859
245.1000,-0.702831,216.13,0.258847
245.0000,-2.7972,215.724,0.253196
244.9000,-3.43301,215.253,0.246653
244.8000,-0.880367,216.178,0.259507
244.7000,-1.79993,215.772,0.253873
244.6000,-0.835145,215.471,0.249682
244.5000,-0.01486,215.575,0.251132
244.4000,-0.896421,217.104,0.272331
244.3000,-1.0321,216.005,0.2571
244.2000,-1.62041,215.662,0.252346
244.1000,-3.7363,216.286,0.261001
244.0000,-0.916718,216.151,0.25913
243.9000,-3.41782,216.226,0.260167
243.8000,-3.01619,216.365,0.262101
243.7000,-1.61678,216.827,0.268506
243.6000,-4.06883,217.675,0.28022
243.5000,-4.10729,216.163,0.259303
243.4000,-1.85359,215.816,0.254488
243.3000,-1.64596,218.029,0.285111
243.2000,-3.17906,217.632,0.279626
243.1000,-3.97949,216.109,0.258548
243.0000,-3.76407,217.589,0.279032
242.9000,-2.5489,216.48,0.263703
242.8000,-3.96985,216.327,0.261582
242.7000,-4.98147,217.224,0.273992
242.6000,-3.49205,217.849,0.282627
242.5000,-3.99521,216.55,0.264661
242.4000,-4.17567,216.808,0.268239
242.3000,-2.21258,216.526,0.264331
242.2000,-5.90412,217.975,0.284361
242.1000,-4.80903,218.428,0.290603
242.0000,-3.52246,218.366,0.289745
241.9000,-6.2559,218.955,0.297846
241.8000,-3.44658,218.438,0.290743
241.7000,-5.06907,218.559,0.292396
241.6000,-3.02159,220.056,0.312939
241.5000,-6.12358,218.505,0.291663
241.4000,-5.13652,218.35,0.289527
241.3000,-4.15239,217.621,0.279485
241.2000,-7.41431,218.611,0.293112
241.1000,-6.08108,218.639,0.293502
241.0000,-5.18383,218.928,0.297472
240.9000,-8.09806,219.479,0.305027
240.8000,-5.51179,218.451,0.290915
240.7000,-8.58872,219.276,0.302247
240.6000,-7.73751,218.948,0.297752
240.5000,-9.53777,219.039,0.298997
240.4000,-5.95813,220.132,0.313977
240.3000,-8.8247,219.445,0.304561
240.2000,-9.8257,219.375,0.303614
240.1000,-7.29144,218.662,0.293813
240.0000,-7.74329,219.947,0.311435
239.9000,-6.36587,219.239,0.301749
239.8000,-8.27624,219.656,0.307465
239.7000,-7.3405,220.436,0.318126
239.6000,-8.13536,220.209,0.31503
239.5000,-7.61577,221.319,0.33016
239.4000,-8.99549,221.469,0.332211
239.3000,-9.05464,221.032,0.326256
239.2000,-9.26068,221.616,0.334199
239.1000,-9.4295,220.718,0.321977
239.0000,-9.62386,222.128,0.341156
238.9000,-8.74137,221.978,0.339126
238.8000,-8.77157,222.198,0.342109
238.7000,-12.631,221.593,0.333891
238.6000,-11.9042,222.743,0.349496
238.5000,-11.0064,222.623,0.347869
238.4000,-11.8691,223.104,0.354387
238.3000,-13.0281,222.491,0.346088
238.2000,-11.5668,222.008,0.339525
238.1000,-12.6644,224.169,0.36876
238.0000,-10.6263,223.501,0.359745
237.9000,-10.6758,224.748,0.37655
237.8000,-13.568,222.555,0.346948
237.7000,-12.3673,223.736,0.36291
237.6000,-15.4241,223.5,0.359729
237.5000,-11.8883,223.49,0.359592
237.4000,-15.6551,224.312,0.370682
237.3000,-15.3892,223.783,0.363552
237.2000,-14.7919,224.411,0.372009
237.1000,-14.4997,224.572,0.374174
237.0000,-15.4434,224.714,0.376093
236.9000,-16.9751,224.654,0.375286
236.8000,-15.3001,224.291,0.370392
236.7000,-14.7276,224.052,0.367173
236.6000,-17.7193,224.175,0.368836
236.5000,-13.5815,224.91,0.378727
236.4000,-16.9222,226.238,0.396521
236.3000,-18.0576,224.884,0.378377
236.2000,-16.8901,225.44,0.385828
236.1000,-18.6971,225.7,0.38932
236.0000,-18.6166,227.592,0.414576
235.9000,-20.0735,226.905,0.405416
235.8000,-19.1676,226.519,0.400275
235.7000,-19.6528,226.573,0.400986
235.6000,-18.2725,226.267,0.3969
235.5000,-19.213,227.059,0.40747
235.4000,-19.987,227.532,0.413777
235.3000,-19.7182,227.211,0.409493
235.2000,-20.567,227.709,0.416128
235.1000,-20.7432,228.319,0.424224
235.0000,-21.005,228.638,0.42846
234.9000,-24.6,227.86,0.418131
234.8000,-21.1131,228.618,0.42819
234.7000,-20.9511,229,0.433247
234.6000,-21.863,229.046,0.433861
234.5000,-21.8365,229.315,0.437413
234.4000,-24.0521,229.528,0.440228
234.3000,-20.8164,230.106,0.447852
234.2000,-23.743,229.707,0.442592
234.1000,-26.6243,229.556,0.440602
234.0000,-25.7511,230.652,0.455044
233.9000,-25.1393,229.661,0.441993
233.8000,-25.1828,230.917,0.458531
233.7000,-26.6958,230.371,0.451346
233.6000,-26.6396,231.474,0.46585
233.5000,-27.9769,232.312,0.476817
233.4000,-27.9755,231.251,0.462921
233.3000,-29.2641,233.663,0.494453
233.2000,-26.5758,231.286,0.463382
233.1000,-25.8189,231.579,0.467217
233.0000,-27.7714,232.153,0.474742
232.9000,-28.5756,232.848,0.483819
232.8000,-30.1697,232.573,0.480239
232.7000,-30.7636,231.95,0.472087
232.6000,-28.6325,234.219,0.501672
232.5000,-30.1746,232.607,0.480683
232.4000,-30.1454,233.331,0.49013
232.3000,-31.396,234.193,0.501334
232.2000,-33.5989,232.424,0.478284
232.1000,-33.3792,234.144,0.5007
232.0000,-33.3666,233.646,0.494232
231.9000,-31.4049,234.802,0.509244
231.8000,-34.3536,235.31,0.515819
231.7000,-33.902,234.109,0.500244
231.6000,-35.4954,235.864,0.522981
231.5000,-35.547,235.662,0.520376
231.4000,-33.9599,235.698,0.520844
231.3000,-35.9723,235.643,0.520127
231.2000,-38.4401,236.752,0.534436
231.1000,-36.9067,235.751,0.521518
231.0000,-36.9542,236.775,0.534728
230.9000,-35.981,237.059,0.538388
230.8000,-37.3762,237.12,0.539174
230.7000,-38.5271,236.107,0.526126
230.6000,-39.2652,235.922,0.523728
230.5000,-37.9401,238.124,0.55206
230.4000,-39.5608,237.561,0.544837
230.3000,-40.0658,237.844,0.548472
230.2000,-38.6906,237.788,0.547746
230.1000,-40.2927,238.304,0.554368
230.0000,-39.1651,239.118,0.564771
229.9000,-39.7451,238.23,0.55341
229.8000,-40.8916,239.833,0.57389
229.7000,-41.4648,238.676,0.559124
229.6000,-41.6109,239.334,0.567534
229.5000,-44.0696,240.43,0.581488
229.4000,-41.4324,239.998,0.575996
229.3000,-40.6374,239.574,0.570583
229.2000,-40.6262,240.24,0.579067
229.1000,-45.142,240.545,0.582943
229.0000,-44.4851,240.267,0.579413
228.9000,-46.1449,240.914,0.587633
228.8000,-45.5243,241.117,0.590206
228.7000,-46.2752,240.946,0.588036
228.6000,-44.9915,241.473,0.594716
228.5000,-47.5472,241.342,0.593065
228.4000,-46.0712,242.572,0.608611
228.3000,-48.7036,242.499,0.607696
228.2000,-46.1749,242.254,0.604605
228.1000,-44.5134,243.244,0.61708
228.0000,-46.7714,242.054,0.602071
227.9000,-50.62,243.81,0.624206
227.8000,-50.95,244.723,0.635664
227.7000,-48.6858,243.858,0.624804
227.6000,-47.8658,244.469,0.632483
227.5000,-50.825,245.627,0.646973
227.4000,-50.4419,245.201,0.641649
227.3000,-49.613,244.911,0.638019
227.2000,-50.7921,245.16,0.641125
227.1000,-52.2984,245.289,0.64274
227.0000,-51.431,245.953,0.651033
226.9000,-48.6435,246.41,0.656739
226.8000,-52.0202,245.003,0.639168
226.7000,-51.4671,246.397,0.656569
226.6000,-51.4079,247.023,0.664366
226.5000,-52.1615,247.577,0.671247
226.4000,-51.3902,246.081,0.652629
226.3000,-53.6489,248.206,0.679041
226.2000,-53.13,248.226,0.67928
226.1000,-52.2929,247.233,0.666971
226.0000,-53.2333,247.869,0.674859
225.9000,-53.1296,248.385,0.681257
225.8000,-51.5114,248.164,0.678522
225.7000,-54.7511,249.091,0.689982
225.6000,-58.0377,248.947,0.688205
225.5000,-54.8226,249.93,0.700319
225.4000,-55.3653,249.342,0.693072
225.3000,-57.0859,249.31,0.692681
225.2000,-57.1072,249.786,0.698547
225.1000,-56.7896,250.351,0.705504
225.0000,-56.305,250.496,0.707286
224.9000,-56.4659,250.665,0.70936
224.8000,-53.838,251.28,0.716908
224.7000,-58.8613,251.259,0.716645
224.6000,-59.035,250.978,0.713199
224.5000,-55.0739,250.326,0.705198
224.4000,-59.9277,252.086,0.726769
224.3000,-56.1689,252.387,0.730451
224.2000,-56.491,252.682,0.734047
224.1000,-56.2724,251.797,0.723235
224.0000,-54.9956,252.267,0.728984
223.9000,-58.4363,252.078,0.726672
223.8000,-60.1287,253.677,0.746163
223.7000,-55.6558,252.663,0.733812
223.6000,-60.6172,252.926,0.737017
223.5000,-57.4409,253.428,0.743131
223.4000,-60.1092,253.607,0.745309
223.3000,-59.3121,254.237,0.752964
223.2000,-56.0289,255.051,0.762839
223.1000,-55.7696,256.011,0.774438
223.0000,-56.5939,254.897,0.760973
222.9000,-57.7983,255.475,0.767965
222.8000,-57.4466,255.49,0.768143
222.7000,-60.4969,256.754,0.783398
222.6000,-57.627,256.545,0.780873
222.5000,-58.3993,256.924,0.785443
222.4000,-58.7193,256.751,0.783357
222.3000,-55.6021,256.854,0.784598
222.2000,-58.9646,257.241,0.789259
222.1000,-59.2497,257.181,0.788537
222.0000,-56.9988,258.566,0.805146
221.9000,-56.5646,257.671,0.794417
221.8000,-56.7984,259.322,0.81418
221.7000,-59.9552,258.448,0.803735
221.6000,-59.0234,258.329,0.80231
221.5000,-60.331,258.805,0.808006
221.4000,-57.8783,259.634,0.817913
221.3000,-59.383,259.539,0.816777
221.2000,-55.6913,261.28,0.837486
221.1000,-55.9231,258.763,0.807505
221.0000,-55.7482,260.301,0.825851
220.9000,-60.4715,260.193,0.82457
220.8000,-60.8442,260.871,0.832629
220.7000,-59.4955,260.23,0.825015
220.6000,-59.6678,260.411,0.827159
220.5000,-58.4267,261.805,0.843719
220.4000,-56.9166,262.55,0.852527
220.3000,-56.5038,262.658,0.853799
220.2000,-59.7629,262.347,0.850129
220.1000,-57.2351,262.796,0.855432
220.0000,-56.6331,263.681,0.865867
219.9000,-57.3639,264.235,0.872386
219.8000,-56.9095,263.274,0.861074
219.7000,-55.5103,263.422,0.862824
219.6000,-57.2232,263.199,0.860192
219.5000,-54.8383,265.115,0.882721
219.4000,-56.1472,264.875,0.879904
219.3000,-55.174,265.04,0.881845
219.2000,-55.7327,265.746,0.890113
219.1000,-54.5917,264.819,0.879253
219.0000,-54.3535,264.516,0.875688
218.9000,-57.0811,264.57,0.876327
218.8000,-57.5524,265.439,0.886518
218.7000,-57.7556,266.169,0.895054
218.6000,-56.75,266.969,0.90439
218.5000,-58.3875,266.897,0.903558
218.4000,-56.5508,267.041,0.905235
218.3000,-57.7996,267.756,0.913557
218.2000,-59.5493,267.756,0.913557
218.1000,-57.5278,268.646,0.923885
218.0000,-55.996,268.565,0.922952
217.9000,-59.302,268.671,0.924174
217.8000,-58.1038,268.94,0.927299
217.7000,-57.7696,268.538,0.922637
217.6000,-53.5386,269.142,0.929635
217.5000,-59.6566,269.066,0.928756
217.4000,-56.7672,269.833,0.937629
217.3000,-56.7496,270.341,0.943488
217.2000,-56.7057,270.282,0.942809
217.1000,-57.6782,271.757,0.95979
217.0000,-55.4186,271.25,0.953956
216.9000,-56.9679,271.218,0.953591
216.8000,-52.5145,272.38,0.96694
216.7000,-56.7152,271.721,0.959373
216.6000,-50.931,272.574,0.969161
216.5000,-54.8667,272.335,0.966421
216.4000,-51.2138,273.077,0.974919
216.3000,-51.2988,273.493,0.979673
216.2000,-55.81,273.424,0.978884
216.1000,-56.4875,273.766,0.982792
216.0000,-51.9887,274.009,0.985558
215.9000,-56.538,274.842,0.995059
215.8000,-53.4382,274.721,0.993679
215.7000,-52.4643,274.99,0.996734
215.6000,-59.1011,274.487,0.991008
215.5000,-55.8045,275.068,0.997623
215.4000,-56.3356,275.637,1.00408
215.3000,-55.1876,275.546,1.00306
215.2000,-56.1038,275.133,0.998357
215.1000,-51.6848,276.958,1.01905
215.0000,-55.7716,277.265,1.02252
214.9000,-53.4459,276.744,1.01663
214.8000,-50.7927,277.511,1.0253
214.7000,-51.1495,278.021,1.03105
214.6000,-54.1327,277.486,1.02502
214.5000,-54.185,279.14,1.04364
214.4000,-55.5154,279.859,1.0517
214.3000,-53.3472,279.847,1.05157
214.2000,-50.0175,279.941,1.05263
214.1000,-53.7393,279.206,1.04438
214.0000,-54.4896,279.959,1.05283
213.9000,-51.0741,280.285,1.05647
213.8000,-59.443,281.036,1.06487
213.7000,-54.9873,281.279,1.06759
213.6000,-49.8719,281.187,1.06656
213.5000,-53.8835,282.48,1.08097
213.4000,-55.5565,282.873,1.08533
213.3000,-53.4374,282.539,1.08163
213.2000,-55.8881,283.189,1.08884
213.1000,-51.1849,283.941,1.09718
213.0000,-61.9641,282.968,1.08639
212.9000,-57.0873,283.212,1.08911
212.8000,-50.3815,283.723,1.09477
212.7000,-48.3726,284.658,1.10512
212.6000,-53.4131,283.995,1.09778
212.5000,-60.2103,284.915,1.10796
212.4000,-52.936,283.947,1.09724
212.3000,-51.6591,285.639,1.11594
212.2000,-50.1843,287.026,1.13119
212.1000,-54.9317,286.384,1.12414
212.0000,-50.0274,286.96,1.13046
211.9000,-54.4715,287.815,1.13984
211.8000,-56.5363,288.395,1.14619
211.7000,-50.9675,288.672,1.14921
211.6000,-54.4386,289.396,1.15711
211.5000,-52.2165,288.971,1.15247
211.4000,-52.8631,290.218,1.16606
211.3000,-53.4272,290.27,1.16663
211.2000,-52.887,291.066,1.17527
211.1000,-56.9876,290.721,1.17153
211.0000,-55.0586,291.229,1.17704
210.9000,-49.4217,292.015,1.18555
210.8000,-52.9911,292.036,1.18577
210.7000,-53.8356,292.897,1.19508
210.6000,-55.2453,293.378,1.20027
210.5000,-58.6251,293.744,1.20421
210.4000,-50.9272,293.846,1.20531
210.3000,-56.111,294.735,1.21486
210.2000,-52.3645,294.868,1.21629
210.1000,-53.1384,296.551,1.23431
210.0000,-55.6391,296.408,1.23278
209.9000,-55.0434,296.437,1.23309
209.8000,-59.952,297.911,1.2488
209.7000,-53.0347,298.637,1.25652
209.6000,-55.4497,298.204,1.25192
209.5000,-55.5294,298.947,1.25982
209.4000,-52.8484,300.179,1.27286
209.3000,-56.0093,300.185,1.27292
209.2000,-52.0133,301.356,1.28529
209.1000,-56.5097,302.083,1.29293
209.0000,-57.5883,301.817,1.29014
208.9000,-59.3841,302.754,1.29999
208.8000,-52.5961,302.911,1.30163
208.7000,-54.573,304.012,1.31317
208.6000,-54.3013,304.374,1.31695
208.5000,-57.155,305.027,1.32378
208.4000,-49.7099,304.795,1.32136
208.3000,-51.5098,305.705,1.33084
208.2000,-55.7186,306.208,1.33608
208.1000,-51.4192,306.372,1.33778
208.0000,-48.4104,308.47,1.35952
207.9000,-53.8433,307.42,1.34866
207.8000,-55.1534,308.74,1.36232
207.7000,-49.4993,310.147,1.37681
207.6000,-50.8123,310.44,1.37983
207.5000,-51.1282,311.65,1.39225
207.4000,-49.4519,311.643,1.39218
207.3000,-50.3774,312.37,1.39962
207.2000,-48.4698,313.42,1.41035
207.1000,-43.2066,313.704,1.41325
207.0000,-47.7801,314.661,1.42298
206.9000,-46.1562,314.572,1.42208
206.8000,-46.9208,316.521,1.44185
206.7000,-46.1689,316.02,1.43678
206.6000,-46.408,317.288,1.4496
206.5000,-43.3227,317.866,1.45543
206.4000,-39.6381,319.039,1.46723
206.3000,-38.9073,319.889,1.47576
206.2000,-43.4904,320.714,1.48402
206.1000,-41.4105,321.703,1.4939
206.0000,-40.0284,321.869,1.49556
205.9000,-35.3204,322.984,1.50667
205.8000,-38.7601,324.358,1.5203
205.7000,-42.5193,324.751,1.5242
205.6000,-32.4657,324.831,1.525
205.5000,-32.3244,326.21,1.53862
205.4000,-40.1469,325.934,1.53589
205.3000,-32.2071,326.712,1.54357
205.2000,-27.2941,328.69,1.56301
205.1000,-27.3498,329.992,1.57575
205.0000,-27.4354,330.361,1.57934
204.9000,-29.2404,331.319,1.58869
204.8000,-24.6429,332.405,1.59924
204.7000,-29.0392,332.452,1.59971
204.6000,-21.5676,332.827,1.60334
204.5000,-28.0134,334.134,1.616
204.4000,-24.3508,335.777,1.63185
204.3000,-22.8174,336.567,1.63945
204.2000,-24.723,337.184,1.64537
204.1000,-23.8617,337.783,1.65112
204.0000,-22.7076,339.416,1.66673
203.9000,-22.2317,340.275,1.67492
203.8000,-16.0131,340.69,1.67886
203.7000,-18.5454,342.13,1.69254
203.6000,-22.4941,343.17,1.70238
203.5000,-17.1515,344.692,1.71674
203.4000,-10.9885,345.333,1.72278
203.3000,-20.0851,345.056,1.72018
203.2000,-19.5908,346.842,1.73695
203.1000,-12.0892,347.692,1.7449
203.0000,-17.2811,348.222,1.74986
202.9000,-3.46418,349.668,1.76334
202.8000,-8.18146,350.113,1.76748
202.7000,-8.8962,349.93,1.76577
202.6000,-6.35766,351.883,1.7839
202.5000,-10.3906,353.76,1.80123
202.4000,-5.74211,353.643,1.80016
202.3000,-16.6934,354.633,1.80928
202.2000,-5.50888,355.512,1.81736
202.1000,-2.93085,356.674,1.828
202.0000,-4.10161,357.352,1.83421
201.9000,-3.62374,358.163,1.84161
201.8000,4.19948,359.921,1.85761
201.7000,-4.13909,360.156,1.85974
201.6000,-3.69666,361.717,1.87389
201.5000,6.21566,361.832,1.87493
201.4000,5.92141,362.074,1.87712
201.3000,-6.4783,363.173,1.88704
201.2000,4.65615,364.41,1.89818
201.1000,1.79699,366.059,1.91298
201.0000,8.48056,367.123,1.9225
200.9000,2.78618,368.869,1.93807
200.8000,1.84434,366.973,1.92116
200.7000,-0.835444,368.807,1.93751
200.6000,8.41096,369.471,1.94342
200.5000,18.85,369.996,1.94809
200.4000,3.60897,371.293,1.95957
200.3000,15.0108,371.741,1.96354
200.2000,8.4623,373.587,1.97983
200.1000,8.87461,374.069,1.98407
200.0000,5.55901,375.374,1.99553
199.9000,16.1039,375.36,1.99541
199.8000,21.5212,376.881,2.00872
199.7000,-2.92121,376.613,2.00639
199.6000,2.08278,378.173,2.02
199.5000,8.72799,379.192,2.02888
199.4000,4.9193,378.379,2.02179
199.3000,6.77864,379.201,2.02895
199.2000,19.8136,380.662,2.04163
199.1000,20.6611,379.898,2.03501
199.0000,1.56082,381.906,2.0524
198.9000,6.11486,381.866,2.05206
198.8000,16.685,383.941,2.06995
198.7000,2.05726,386.022,2.08782
198.6000,16.8672,384.872,2.07796
198.5000,12.8258,385.641,2.08455
198.4000,16.6108,385.897,2.08674
198.3000,21.3724,386.911,2.09542
198.2000,9.66236,387.688,2.10206
198.1000,10.9806,388.291,2.10721
198.0000,28.4609,388.675,2.11048
197.9000,22.288,388.27,2.10703
197.8000,14.8974,388.414,2.10826
197.7000,12.2831,388.736,2.111
197.6000,13.3541,391.253,2.13237
197.5000,23.1962,391.394,2.13357
197.4000,4.82821,392.584,2.14363
197.3000,16.7263,392.942,2.14665
197.2000,9.14108,392.235,2.14068
197.1000,23.1493,393.038,2.14747
197.0000,25.1846,392.507,2.14298
196.9000,8.86692,393.768,2.15362
196.8000,11.184,394.566,2.16033
196.7000,4.58744,394.694,2.16141
196.6000,19.471,395.828,2.17093
196.5000,10.8876,394.881,2.16298
196.4000,13.4753,395.7,2.16986
196.3000,9.32014,396.318,2.17504
196.2000,19.7133,395.71,2.16995
196.1000,14.2453,396.227,2.17428
196.0000,10.1551,396.774,2.17886
195.9000,9.10181,396.893,2.17986
195.8000,-5.2095,397.787,2.18733
195.7000,12.4214,398.607,2.19418
195.6000,16.1084,397.669,2.18635
195.5000,-5.1846,399.072,2.19805
195.4000,-0.0308443,398.664,2.19465
195.3000,0.388383,399.566,2.20216
195.2000,5.55202,399.43,2.20103
195.1000,18.6871,399.84,2.20444
195.0000,2.46938,399.327,2.20017
194.9000,-1.32298,399.198,2.1991
194.8000,13.4837,399.453,2.20122
194.7000,11.5542,399.977,2.20558
194.6000,5.6044,400.167,2.20716
194.5000,-4.8726,399.916,2.20508
194.4000,3.75409,400.539,2.21025
194.3000,3.19578,399.967,2.2055
194.2000,8.59822,400.672,2.21135
194.1000,11.714,401.552,2.21866
194.0000,9.28309,402.018,2.22251
193.9000,1.24114,401.425,2.2176
193.8000,-3.60894,402.115,2.22332
193.7000,15.0302,402.633,2.2276
193.6000,0.334857,401.896,2.2215
193.5000,14.7909,401.96,2.22204
193.4000,15.6109,401.655,2.21951
193.3000,1.21403,402.802,2.229
193.2000,1.11723,403.016,2.23077
193.1000,-2.20878,402.94,2.23014
193.0000,-0.744128,402.753,2.2286
192.9000,9.51852,402.766,2.2287
192.8000,2.97195,403.007,2.23069
192.7000,16.6119,403.262,2.2328
192.6000,3.30521,402.735,2.22845
192.5000,13.9453,403.034,2.23092
192.4000,13.4403,403.455,2.23439
192.3000,-0.839723,403.323,2.2333
192.2000,-3.53097,402.538,2.22682
192.1000,1.10345,403.333,2.23339
192.0000,-0.243963,403.418,2.23409
191.9000,6.73656,404.331,2.24161
191.8000,9.69153,403.658,2.23606
191.7000,7.41774,404.309,2.24144
191.6000,-10.3055,403.917,2.2382
191.5000,-5.51497,404.345,2.24173
191.4000,18.1512,404.661,2.24434
191.3000,17.0971,403.338,2.23343
191.2000,2.78766,404.582,2.24368
191.1000,-2.47936,404.528,2.24324
191.0000,10.0162,404.763,2.24518
190.9000,10.5647,405.467,2.25096
190.8000,3.30401,405.002,2.24714
190.7000,10.7871,404.844,2.24584
190.6000,-5.48633,404.946,2.24668
190.5000,20.2912,404.913,2.24641
190.4000,3.30831,404.975,2.24692
190.3000,-0.648503,403.52,2.23493
190.2000,-0.48628,405.954,2.25497
190.1000,-0.504239,405.562,2.25175
190.0000,7.668,404.442,2.24253

##### Extended Information
[Comments]
Sample name,LW+MB buffer and protein
Comment,Buffer and protein
User,Leah Whitehouse and Micheal Boden
Division
Company,Saint Mary's College

[Detailed Information]
Creation date,9/29/2022 2:10 PM

Data array type,Linear data array * 3
Horizontal axis,Wavelength [nm]
Vertical axis(1),CD [mdeg]
Vertical axis(2),HT [V]
Vertical axis(3),Abs
Start,320 nm
End,190 nm
Data interval,0.1 nm
Data points,1301    

[Measurement Information]
Instrument name,J-1500
Model name,J-1500
Serial No.,B051061638

Detector,PM-539
Detector S/N,B051061638
  Lock-in amp.,X mode
  HT volt,Auto

Accessory,PTC-517
Accessory S/N,B026561646
  Temperature,22.72 C
  Control sensor,Holder
  Monitor sensor,Holder

Measurement date,9/29/2022 2:09 PM

CD Overload detect,996
Photometric mode,CD, HT, Abs
Measure range,320 - 190 nm
Data pitch,0.1 nm
CD scale,20 mdeg/0.05 dOD
FL scale,20 mdeg/0.05 dOD
D.I.T.,8 msec
Bandwidth,2.00 nm
Start mode,Immediately
Scanning mode,Continuous
Scanning speed,200 nm/min
Baseline correction,None
Shutter control,Auto
No. of cycle,1/1
N2 Flowmeter,Manual

Solvent,NaPO4 buffer

