TITLE,LW+MB Buffer
DATA TYPE,
ORIGIN,JASCO
OWNER,
DATE,22/09/29
TIME,14:44:16
SPECTROMETER/DATA SYSTEM,
LOCALE,1033
RESOLUTION,
DELTAX,-0.1
XUNITS,NANOMETERS
YUNITS,CD [mdeg]
Y2UNITS,HT [V]
Y3UNITS,ABSORBANCE
FIRSTX,  320.0000
LASTX,  190.0000
NPOINTS,    1301
FIRSTY,     1.60572
MAXY,     6.54366
MINY,    -4.02572
XYDATA
320.0000,1.60572,208.629,0.153212
319.9000,0.155815,208.59,0.152645
319.8000,0.998489,208.678,0.153908
319.7000,3.28125,209.273,0.162397
319.6000,2.7992,208.788,0.155478
319.5000,3.05069,208.549,0.152062
319.4000,0.747623,208.812,0.155818
319.3000,1.50411,209.282,0.162526
319.2000,1.49117,208.99,0.158357
319.1000,2.42003,208.376,0.149583
319.0000,0.61218,209.334,0.163269
318.9000,0.684173,209.15,0.160636
318.8000,0.811343,209.091,0.159796
318.7000,1.42215,209.146,0.160588
318.6000,1.92108,208.867,0.15661
318.5000,1.13663,209.512,0.165803
318.4000,2.23037,208.439,0.150491
318.3000,1.62026,208.753,0.154976
318.2000,2.34681,208.405,0.150004
318.1000,2.56856,209.11,0.16007
318.0000,1.58507,208.573,0.152402
317.9000,1.13503,208.908,0.157193
317.8000,2.93829,209.265,0.162284
317.7000,1.56127,208.251,0.1478
317.6000,1.34254,208.917,0.157322
317.5000,1.1371,208.563,0.152256
317.4000,-0.858413,208.508,0.151479
317.3000,3.30829,208.836,0.156157
317.2000,1.1209,208.6,0.152791
317.1000,1.9607,209.011,0.158664
317.0000,0.525592,208.529,0.151771
316.9000,1.71706,207.877,0.142445
316.8000,-0.328258,208.916,0.157306
316.7000,1.36804,208.046,0.144864
316.6000,1.04337,208.934,0.157565
316.5000,1.31335,208.474,0.150993
316.4000,1.46621,208.99,0.158357
316.3000,0.899767,208.629,0.153212
316.2000,1.69426,208.268,0.148043
316.1000,1.83576,208.773,0.155267
316.0000,1.58902,207.962,0.143663
315.9000,1.47624,208.486,0.151155
315.8000,0.929868,208.644,0.153422
315.7000,2.01379,208.529,0.151771
315.6000,2.13732,208.354,0.149275
315.5000,0.397308,208.516,0.151592
315.4000,1.35267,208.015,0.144425
315.3000,2.15456,208.474,0.150993
315.2000,2.97,208.371,0.149518
315.1000,1.53131,207.76,0.140772
315.0000,1.93854,207.694,0.139813
314.9000,1.86016,207.692,0.139797
314.8000,2.75659,207.417,0.135846
314.7000,1.1071,208.634,0.153276
314.6000,0.931299,207.402,0.135634
314.5000,1.52559,207.807,0.141438
314.4000,2.3424,207.937,0.143305
314.3000,-0.324253,207.793,0.141243
314.2000,0.329239,208.571,0.15237
314.1000,1.58782,207.986,0.144003
314.0000,3.07873,207.408,0.135715
313.9000,1.56085,208.484,0.151139
313.8000,2.96031,207.694,0.139813
313.7000,0.174428,208.697,0.154183
313.6000,2.72668,208.228,0.147476
313.5000,1.88383,208.063,0.145107
313.4000,1.88254,208.663,0.153698
313.3000,0.927203,208.33,0.148935
313.2000,1.03966,207.741,0.140495
313.1000,0.188699,207.871,0.142364
313.0000,1.41649,207.282,0.133909
312.9000,0.204006,206.923,0.128745
312.8000,2.93507,207.605,0.138545
312.7000,0.94779,207.942,0.14337
312.6000,2.03094,207.645,0.139114
312.5000,1.10664,207.82,0.141633
312.4000,0.452825,207.825,0.141698
312.3000,0.898558,207.644,0.139098
312.2000,2.559,208.189,0.146908
312.1000,1.17669,208.249,0.147767
312.0000,0.849476,208.406,0.150021
311.9000,2.064,207.509,0.137163
311.8000,1.45614,208.261,0.147946
311.7000,2.36565,207.179,0.132427
311.6000,1.18229,208.037,0.144734
311.5000,2.69768,207.99,0.144068
311.4000,0.542363,207.565,0.137976
311.3000,1.60208,207.434,0.13609
311.2000,0.467882,208.19,0.146924
311.1000,1.71877,208.339,0.149064
311.0000,0.867559,208.089,0.14548
310.9000,-0.0156747,208.251,0.1478
310.8000,-0.141261,208.521,0.151657
310.7000,1.64215,208.532,0.151819
310.6000,1.54046,207.868,0.142315
310.5000,1.43631,208.156,0.146437
310.4000,1.62493,208.159,0.146486
310.3000,2.38248,208.101,0.145659
310.2000,0.832917,208.384,0.149696
310.1000,0.603701,208.404,0.149988
310.0000,-0.962169,208.245,0.147719
309.9000,2.03303,208.544,0.151997
309.8000,0.551202,207.852,0.142087
309.7000,2.39475,208.225,0.147427
309.6000,0.92065,208.986,0.158309
309.5000,0.595305,207.534,0.137521
309.4000,0.638301,208.086,0.145432
309.3000,0.164481,207.998,0.144182
309.2000,1.89388,208.459,0.150782
309.1000,0.932037,208.444,0.150555
309.0000,0.544132,208.498,0.151333
308.9000,1.54037,208.003,0.144247
308.8000,2.38069,208.063,0.145107
308.7000,1.72574,208.446,0.150588
308.6000,1.7993,208.351,0.149226
308.5000,0.586039,208.311,0.148659
308.4000,0.821987,208.25,0.147784
308.3000,0.723146,208.067,0.145172
308.2000,2.61434,207.925,0.143127
308.1000,1.03913,208.311,0.148659
308.0000,3.14623,209.083,0.159683
307.9000,1.4091,207.871,0.142364
307.8000,2.02972,208.324,0.148838
307.7000,2.33622,207.62,0.138756
307.6000,0.500019,208.478,0.151042
307.5000,2.85019,207.005,0.129919
307.4000,1.87094,208.037,0.144734
307.3000,1.90417,207.633,0.138952
307.2000,2.93518,207.812,0.141519
307.1000,0.631052,208.049,0.144912
307.0000,0.484009,208.079,0.145334
306.9000,2.9771,207.919,0.143045
306.8000,2.23536,208.088,0.145464
306.7000,1.2835,208.037,0.144734
306.6000,2.19324,207.808,0.141454
306.5000,1.8974,207.414,0.135797
306.4000,1.86952,208.163,0.146535
306.3000,0.609328,207.843,0.141958
306.2000,0.523893,208.633,0.15326
306.1000,2.34884,207.815,0.141551
306.0000,-0.539226,208.133,0.146113
305.9000,0.369571,207.943,0.143386
305.8000,3.2535,207.406,0.135683
305.7000,0.673871,208.095,0.145561
305.6000,0.525645,207.687,0.139715
305.5000,1.76825,207.526,0.137407
305.4000,1.55176,208.019,0.144474
305.3000,1.0067,208.782,0.155397
305.2000,0.85791,207.726,0.140284
305.1000,1.21907,207.927,0.143159
305.0000,0.900964,207.914,0.14298
304.9000,0.59926,208.331,0.148951
304.8000,0.91956,208.526,0.151738
304.7000,1.58905,208.12,0.145918
304.6000,1.03902,207.601,0.13848
304.5000,0.919772,208.086,0.145432
304.4000,2.35368,208.151,0.146372
304.3000,1.39973,208.703,0.154264
304.2000,-0.0163681,207.602,0.138496
304.1000,1.75163,208.142,0.146243
304.0000,2.85839,207.981,0.143938
303.9000,0.896541,208.024,0.144555
303.8000,1.061,208.233,0.14754
303.7000,2.93233,207.873,0.14238
303.6000,1.3419,207.491,0.136903
303.5000,1.34959,207.815,0.141551
303.4000,1.3223,208.239,0.147622
303.3000,0.871413,207.717,0.140154
303.2000,1.72535,208.216,0.147297
303.1000,0.74014,207.434,0.13609
303.0000,-0.0648731,208.304,0.148562
302.9000,1.44458,207.908,0.142883
302.8000,1.34656,208.498,0.151333
302.7000,0.551056,207.389,0.135439
302.6000,3.33216,207.894,0.142688
302.5000,1.58732,207.567,0.137992
302.4000,0.174,207.928,0.143175
302.3000,1.04099,207.486,0.136838
302.2000,0.949631,208.178,0.146762
302.1000,-0.0450538,207.306,0.134251
302.0000,3.20534,207.936,0.143289
301.9000,2.27864,207.298,0.134137
301.8000,2.86587,207.808,0.141454
301.7000,0.980958,207.539,0.137602
301.6000,2.89409,208.052,0.144945
301.5000,1.63087,208.058,0.145042
301.4000,2.8331,208.054,0.144977
301.3000,1.57206,207.402,0.135634
301.2000,-0.0486605,207.85,0.142055
301.1000,1.18153,207.814,0.141535
301.0000,2.64375,207.616,0.138708
300.9000,1.78791,207.953,0.143533
300.8000,1.24081,207.971,0.143792
300.7000,1.30525,206.933,0.128892
300.6000,0.0669329,207.635,0.138968
300.5000,1.99855,207.726,0.140284
300.4000,0.546354,207.709,0.14004
300.3000,0.768489,206.822,0.127294
300.2000,2.32723,207.347,0.134837
300.1000,3.38468,208.237,0.147605
300.0000,0.126227,208.07,0.145204
299.9000,0.672211,207.837,0.141876
299.8000,2.51072,207.656,0.139277
299.7000,2.94481,207.662,0.139358
299.6000,3.86436,207.846,0.142006
299.5000,0.889679,207.894,0.142688
299.4000,2.96811,207.282,0.133909
299.3000,0.743869,207.763,0.140804
299.2000,1.67213,207.53,0.137472
299.1000,0.798667,207.971,0.143792
299.0000,1.4686,208.635,0.153293
298.9000,0.285788,207.16,0.13215
298.8000,0.251148,207.145,0.131939
298.7000,0.404807,207.413,0.13578
298.6000,2.00788,207.296,0.134104
298.5000,1.24533,207.555,0.13783
298.4000,-1.0097,207.134,0.131776
298.3000,2.58371,207.042,0.130456
298.2000,2.5507,207.389,0.135439
298.1000,0.43242,207.498,0.137
298.0000,1.23071,207.38,0.135309
297.9000,2.72781,207.586,0.138269
297.8000,-0.104783,207.848,0.142023
297.7000,0.500164,207.65,0.139195
297.6000,2.36766,207.42,0.135894
297.5000,0.923267,207.971,0.143792
297.4000,1.0367,207.477,0.136708
297.3000,2.6765,207.582,0.13822
297.2000,2.18361,207.938,0.143322
297.1000,1.57976,207.58,0.138187
297.0000,1.2252,207.516,0.137261
296.9000,1.44053,207.547,0.137716
296.8000,0.83755,207.088,0.131124
296.7000,1.49313,207.428,0.136008
296.6000,3.15188,207.46,0.136464
296.5000,1.96217,207.56,0.137895
296.4000,3.56722,207.528,0.137439
296.3000,3.34132,208.367,0.149453
296.2000,1.1757,207.307,0.134267
296.1000,1.89362,207.51,0.137179
296.0000,1.05498,207.444,0.136236
295.9000,2.48795,207.732,0.140365
295.8000,1.50295,207.213,0.132916
295.7000,1.48258,207.552,0.137781
295.6000,1.95483,207.237,0.133258
295.5000,1.64117,206.678,0.125222
295.4000,1.46274,207.453,0.136366
295.3000,-0.586078,206.645,0.124749
295.2000,0.872991,207.196,0.132672
295.1000,2.7366,206.866,0.12793
295.0000,1.46773,207.015,0.130065
294.9000,1.50209,207.153,0.132053
294.8000,1.95917,206.965,0.129348
294.7000,1.51935,207.083,0.131043
294.6000,1.86798,206.887,0.128223
294.5000,1.09428,207.312,0.134332
294.4000,1.93467,207.335,0.134674
294.3000,0.0452806,206.888,0.12824
294.2000,2.33016,206.405,0.121288
294.1000,-0.390851,206.614,0.124292
294.0000,0.440795,206.457,0.122039
293.9000,1.68755,207.092,0.131173
293.8000,1.04738,207.008,0.129967
293.7000,1.24351,206.366,0.120716
293.6000,1.34296,206.962,0.129299
293.5000,0.769566,207.295,0.134088
293.4000,-0.0776155,207.267,0.133697
293.3000,1.78616,206.592,0.123982
293.2000,1.83655,206.729,0.125956
293.1000,1.25556,206.801,0.126984
293.0000,1.59948,206.523,0.122986
292.9000,1.89209,207.528,0.137439
292.8000,2.10021,207.112,0.131466
292.7000,1.94955,207.681,0.139634
292.6000,1.36969,206.435,0.121712
292.5000,2.26508,207.26,0.133583
292.4000,0.441388,206.775,0.126609
292.3000,0.69357,207.356,0.134967
292.2000,2.25982,207.202,0.132753
292.1000,-0.311138,206.104,0.11694
292.0000,0.129098,206.665,0.125027
291.9000,0.18147,205.559,0.109065
291.8000,1.24152,206.6,0.124096
291.7000,2.24864,206.468,0.122186
291.6000,1.54502,206.924,0.128762
291.5000,1.83248,205.588,0.109491
291.4000,0.201591,205.558,0.109049
291.3000,1.14087,205.949,0.114699
291.2000,0.937357,206.387,0.121027
291.1000,1.12899,207.111,0.13145
291.0000,1.07739,206.703,0.125581
290.9000,2.88087,206.353,0.120536
290.8000,1.50166,206.188,0.11815
290.7000,1.58769,206.342,0.120373
290.6000,1.08097,206.596,0.124031
290.5000,2.17616,206.626,0.124472
290.4000,2.07418,207.054,0.130636
290.3000,0.493351,207.127,0.131678
290.2000,0.88594,207.008,0.129967
290.1000,1.64749,206.851,0.127702
290.0000,1.14856,206.63,0.124521
289.9000,1.70196,207.159,0.132134
289.8000,3.24834,207.507,0.13713
289.7000,2.5272,206.769,0.126527
289.6000,-1.3983,207.227,0.133111
289.5000,2.07573,206.771,0.12656
289.4000,0.71209,207.059,0.130701
289.3000,0.814203,207.303,0.134202
289.2000,2.8916,206.817,0.127213
289.1000,1.27958,206.858,0.127816
289.0000,2.40394,207.045,0.130505
288.9000,0.827497,206.759,0.126381
288.8000,0.941087,206.261,0.119213
288.7000,1.11577,206.192,0.118215
288.6000,3.07637,207.243,0.133339
288.5000,0.533844,206.79,0.126837
288.4000,1.67046,206.02,0.11573
288.3000,0.244095,205.767,0.11208
288.2000,1.28527,206.853,0.127734
288.1000,2.47164,207.796,0.141275
288.0000,1.0964,206.427,0.121598
287.9000,2.00826,206.936,0.128925
287.8000,2.87157,207.167,0.132248
287.7000,1.69611,206.991,0.129723
287.6000,0.95455,206.115,0.117104
287.5000,1.35477,206.456,0.122023
287.4000,1.403,207.116,0.131515
287.3000,2.33325,207.252,0.133469
287.2000,0.501722,206.563,0.123558
287.1000,1.94935,206.531,0.1231
287.0000,1.53807,207.017,0.130098
286.9000,0.817232,206.815,0.127196
286.8000,0.709877,206.362,0.120667
286.7000,2.58895,207.311,0.134316
286.6000,2.06722,207.139,0.131857
286.5000,1.09571,206.146,0.117545
286.4000,1.62888,206.533,0.123133
286.3000,0.231086,206.845,0.12762
286.2000,1.9395,206.296,0.119719
286.1000,0.501318,206.319,0.120046
286.0000,0.670322,207.22,0.133014
285.9000,0.979724,206.462,0.122104
285.8000,1.54933,207.184,0.132492
285.7000,0.175134,206.683,0.125288
285.6000,1.76543,206.832,0.127441
285.5000,-0.0985165,206.205,0.118396
285.4000,0.123994,206.513,0.122839
285.3000,-0.281753,206.601,0.124113
285.2000,1.06505,206.656,0.124896
285.1000,0.0892063,206.521,0.122953
285.0000,1.33209,207.63,0.138903
284.9000,1.37746,206.207,0.118428
284.8000,0.465833,207.559,0.137879
284.7000,1.81439,206.394,0.121124
284.6000,1.17231,206.598,0.124064
284.5000,0.395938,206.574,0.123721
284.4000,1.90423,205.631,0.110114
284.3000,1.32375,207.048,0.130538
284.2000,1.30137,206.584,0.123868
284.1000,1.29007,207.214,0.132932
284.0000,1.88529,206.769,0.126527
283.9000,1.04709,206.559,0.123509
283.8000,0.942496,206.236,0.118853
283.7000,0.965187,207.161,0.132167
283.6000,-0.368975,206.996,0.129788
283.5000,1.63068,207.194,0.132639
283.4000,0.87903,206.286,0.119572
283.3000,2.35878,206.335,0.120275
283.2000,2.90898,207.346,0.13482
283.1000,1.91433,206.553,0.123411
283.0000,1.01965,206.103,0.116924
282.9000,1.68267,206.698,0.1255
282.8000,2.79447,206.494,0.122562
282.7000,2.15979,206.222,0.118641
282.6000,0.885254,206.829,0.127392
282.5000,0.756441,207.311,0.134316
282.4000,2.15689,207.052,0.130603
282.3000,2.1883,206.557,0.123476
282.2000,1.39189,206.783,0.126723
282.1000,0.948888,206.921,0.128713
282.0000,1.36627,207.195,0.132655
281.9000,2.53553,206.173,0.117938
281.8000,0.409263,206.438,0.121762
281.7000,-0.283838,206.624,0.124439
281.6000,0.806687,206.485,0.122431
281.5000,1.05096,207.411,0.135764
281.4000,2.3593,206.341,0.120357
281.3000,1.47624,206.73,0.125973
281.2000,0.935739,206.372,0.120814
281.1000,1.77511,206.506,0.122741
281.0000,2.03221,206.558,0.123492
280.9000,0.569255,206.77,0.126544
280.8000,-0.706776,206.788,0.126805
280.7000,1.19519,206.619,0.124374
280.6000,1.16727,206.317,0.120013
280.5000,2.25763,206.628,0.124504
280.4000,0.118022,206.623,0.124423
280.3000,1.63266,206.771,0.12656
280.2000,0.315248,206.309,0.119899
280.1000,1.75651,206.819,0.127245
280.0000,0.716867,206.694,0.125451
279.9000,1.33036,206.504,0.122709
279.8000,2.29415,206.933,0.128892
279.7000,1.16469,206.985,0.129641
279.6000,1.28448,206.003,0.115484
279.5000,-0.370236,207.124,0.131629
279.4000,2.59426,206.853,0.127734
279.3000,-0.599483,207.416,0.135829
279.2000,0.474284,206.542,0.123264
279.1000,0.573296,206.872,0.128011
279.0000,1.34319,205.989,0.115288
278.9000,0.615487,206.875,0.12806
278.8000,1.68111,207.092,0.131173
278.7000,1.5013,206.566,0.123606
278.6000,3.01029,207.552,0.137781
278.5000,2.22171,208.035,0.144701
278.4000,1.8681,206.264,0.119245
278.3000,1.08087,206.396,0.121157
278.2000,0.644527,206.942,0.129022
278.1000,1.70348,206.528,0.123052
278.0000,2.01333,206.933,0.128892
277.9000,0.674855,206.309,0.119899
277.8000,1.7766,206.851,0.127702
277.7000,0.717085,206.648,0.124782
277.6000,2.42423,207.002,0.129886
277.5000,-0.435023,206.864,0.127897
277.4000,1.59029,206.886,0.128207
277.3000,-0.491082,206.841,0.127571
277.2000,-0.726243,207.482,0.136773
277.1000,1.68992,206.675,0.125174
277.0000,2.58746,206.536,0.123166
276.9000,-2.12077,207.348,0.134853
276.8000,1.30614,207.346,0.13482
276.7000,1.66461,206.429,0.121631
276.6000,0.612943,205.699,0.111097
276.5000,1.05465,207.057,0.130668
276.4000,0.823548,207.025,0.130212
276.3000,2.24145,207.077,0.130962
276.2000,1.78936,206.662,0.124994
276.1000,1.92456,207.954,0.143549
276.0000,2.05947,206.813,0.127164
275.9000,2.50858,207.036,0.130375
275.8000,1.85791,206.877,0.128077
275.7000,0.842195,207.028,0.130261
275.6000,0.972603,206.922,0.128729
275.5000,0.862861,207.185,0.132509
275.4000,1.28682,205.765,0.112047
275.3000,-0.0125906,207.32,0.134446
275.2000,1.4392,206.903,0.128452
275.1000,2.38599,207.06,0.130717
275.0000,1.03213,206.971,0.12943
274.9000,1.21272,206.29,0.119621
274.8000,1.9481,207.009,0.129984
274.7000,1.61923,206.754,0.126316
274.6000,2.07447,207.639,0.139033
274.5000,1.32001,206.49,0.122513
274.4000,0.814206,206.845,0.12762
274.3000,2.18141,207.028,0.130261
274.2000,1.31615,207.473,0.136642
274.1000,1.32435,207.27,0.13373
274.0000,1.07921,207.664,0.13939
273.9000,0.790275,207.05,0.13057
273.8000,1.11308,207.289,0.134007
273.7000,2.39921,207.06,0.130717
273.6000,2.21175,206.866,0.12793
273.5000,1.75922,207.445,0.136252
273.4000,2.58056,206.963,0.129315
273.3000,0.248222,207.066,0.130799
273.2000,1.0758,207.09,0.131141
273.1000,-0.0279317,207.18,0.132444
273.0000,0.0763927,206.241,0.118919
272.9000,0.152152,206.427,0.121598
272.8000,1.19933,206.668,0.125075
272.7000,0.55717,206.616,0.124325
272.6000,0.632638,207.449,0.136301
272.5000,0.709785,207.107,0.131385
272.4000,2.64622,207.273,0.133779
272.3000,0.290392,207.333,0.134641
272.2000,0.928425,207.365,0.135097
272.1000,-0.0768862,207.183,0.132476
272.0000,0.445089,207.103,0.131336
271.9000,0.65527,207.101,0.131304
271.8000,1.00717,206.803,0.127017
271.7000,2.87891,206.508,0.122774
271.6000,2.90515,207.518,0.137293
271.5000,0.619567,206.857,0.1278
271.4000,2.39809,206.193,0.118232
271.3000,1.85592,207.883,0.142526
271.2000,1.18762,206.993,0.129756
271.1000,1.43331,207.975,0.143841
271.0000,0.325753,207.573,0.13809
270.9000,1.28941,206.92,0.128696
270.8000,0.906826,206.547,0.123329
270.7000,2.01053,207.104,0.131352
270.6000,0.0478803,207.786,0.141145
270.5000,1.85509,206.122,0.117202
270.4000,2.38707,207.339,0.134723
270.3000,-0.208151,208.276,0.148156
270.2000,0.2576,207.047,0.130521
270.1000,1.03507,207.758,0.140739
270.0000,0.386541,207.424,0.135943
269.9000,0.40477,208.007,0.144312
269.8000,1.05533,206.834,0.127457
269.7000,-0.535149,207.839,0.141893
269.6000,-0.161973,206.88,0.128126
269.5000,0.249197,206.736,0.126054
269.4000,-0.982606,207.528,0.137439
269.3000,0.786364,207.423,0.135927
269.2000,0.111708,207.99,0.144068
269.1000,0.769901,208.156,0.146437
269.0000,1.62946,207.043,0.130473
268.9000,2.27515,208.413,0.150118
268.8000,0.56317,207.163,0.132199
268.7000,-0.33058,207.865,0.142266
268.6000,0.636936,207.265,0.133665
268.5000,0.0891052,207.682,0.13965
268.4000,1.76214,207.816,0.141568
268.3000,1.13716,208.467,0.150896
268.2000,-0.0466967,207.074,0.130913
268.1000,1.33851,207.704,0.139959
268.0000,1.06635,207.715,0.140122
267.9000,0.124933,208.028,0.144604
267.8000,-0.255079,207.897,0.142737
267.7000,1.33379,207.241,0.133323
267.6000,2.71798,207.666,0.139423
267.5000,0.498877,208.486,0.151155
267.4000,0.680332,207.863,0.14225
267.3000,1.97041,207.03,0.130277
267.2000,2.29717,208.347,0.149178
267.1000,-0.403998,208.371,0.149518
267.0000,2.22239,208.372,0.149534
266.9000,0.659456,208.795,0.155575
266.8000,1.15232,208.253,0.147832
266.7000,0.953672,208.473,0.150977
266.6000,0.172792,208.428,0.150329
266.5000,0.0207504,207.375,0.135243
266.4000,1.91024,208.48,0.151074
266.3000,1.32577,208.394,0.149842
266.2000,0.73949,207.82,0.141633
266.1000,1.1237,208.324,0.148838
266.0000,0.561065,208.659,0.153633
265.9000,2.30264,207.942,0.14337
265.8000,2.59704,208.302,0.148529
265.7000,-0.587379,208.319,0.148773
265.6000,0.347071,207.691,0.13978
265.5000,1.24562,208.015,0.144425
265.4000,-0.0141656,208.939,0.157629
265.3000,1.31634,208.084,0.145415
265.2000,-0.536781,208.014,0.144409
265.1000,1.74702,208.815,0.155866
265.0000,0.446586,208.678,0.153908
264.9000,0.384013,209.144,0.160555
264.8000,2.78569,208.784,0.155413
264.7000,0.44735,209.182,0.161105
264.6000,-0.754952,208.874,0.156707
264.5000,1.61197,208.593,0.152694
264.4000,0.448701,209.136,0.160442
264.3000,-0.272202,208.547,0.15203
264.2000,0.732466,209.173,0.160975
264.1000,-0.0789508,208.806,0.155737
264.0000,1.32789,209.16,0.160781
263.9000,0.594285,209.009,0.158632
263.8000,0.856122,208.619,0.153066
263.7000,1.87851,208.959,0.15792
263.6000,1.53089,208.723,0.154555
263.5000,1.81001,210.193,0.175487
263.4000,1.82784,208.986,0.158309
263.3000,0.645257,209.122,0.160248
263.2000,0.308902,209.809,0.170028
263.1000,1.45017,209.366,0.163721
263.0000,0.160253,209.178,0.16104
262.9000,1.79624,209.467,0.165157
262.8000,0.287916,209.726,0.168851
262.7000,1.585,209.82,0.170189
262.6000,3.23099,209.222,0.16167
262.5000,0.332516,209.1,0.159925
262.4000,0.748735,209.42,0.164496
262.3000,3.28773,209.864,0.170818
262.2000,0.243786,210.015,0.17296
262.1000,-0.315896,210.011,0.172895
262.0000,1.49262,209.326,0.163156
261.9000,1.23022,209.365,0.163705
261.8000,0.475343,209.742,0.169077
261.7000,2.23577,209.768,0.169448
261.6000,0.858039,208.164,0.146551
261.5000,1.20307,209.232,0.161815
261.4000,-0.082721,209.735,0.16898
261.3000,0.000116621,209.978,0.172429
261.2000,0.302068,209.006,0.158583
261.1000,1.69803,210.165,0.175085
261.0000,0.229923,210.263,0.176485
260.9000,1.67702,209.383,0.163963
260.8000,1.03073,209.533,0.166093
260.7000,0.911549,210.302,0.177032
260.6000,0.579697,209.485,0.165416
260.5000,2.58774,209.119,0.1602
260.4000,0.35596,209.459,0.165045
260.3000,0.847931,210.387,0.178238
260.2000,0.433909,209.611,0.167207
260.1000,0.264249,209.746,0.169125
260.0000,0.579293,209.344,0.163414
259.9000,2.8735,209.972,0.172348
259.8000,0.842948,210.011,0.172895
259.7000,1.26978,211.017,0.187168
259.6000,1.50746,210.472,0.179444
259.5000,0.129444,210.576,0.180922
259.4000,-0.19069,210.291,0.176871
259.3000,1.09946,210.21,0.175729
259.2000,-0.111957,210.414,0.178624
259.1000,1.29904,210.079,0.173861
259.0000,1.89479,210.083,0.173926
258.9000,1.66034,210.517,0.180087
258.8000,1.35717,210.919,0.185788
258.7000,2.10648,209.802,0.169931
258.6000,0.970395,211.096,0.18829
258.5000,0.210658,209.894,0.171237
258.4000,-0.129817,210.133,0.174634
258.3000,1.73853,210.754,0.183444
258.2000,0.960559,210.752,0.183412
258.1000,2.22121,210.774,0.183733
258.0000,2.48333,210.603,0.181308
257.9000,1.82104,211.008,0.187039
257.8000,2.7567,210.714,0.182882
257.7000,1.27065,210.639,0.181822
257.6000,0.648809,211.766,0.197755
257.5000,2.40956,211.141,0.188932
257.4000,0.447835,211.241,0.190342
257.3000,2.26192,210.407,0.178527
257.2000,1.23375,210.414,0.178624
257.1000,0.180734,211.71,0.196971
257.0000,2.21196,211.158,0.189172
256.9000,1.96635,210.735,0.183171
256.8000,0.855031,210.187,0.175407
256.7000,2.06815,211.472,0.19361
256.6000,0.0958691,210.662,0.182143
256.5000,1.48421,210.595,0.181196
256.4000,0.806094,210.714,0.182882
256.3000,0.580912,211.469,0.193562
256.2000,0.972104,211.715,0.197035
256.1000,1.41852,211.463,0.193482
256.0000,1.64169,211.484,0.19377
255.9000,0.584202,210.974,0.186558
255.8000,0.258513,211.607,0.195515
255.7000,0.699861,211.696,0.196763
255.6000,0.460134,211.537,0.194523
255.5000,0.0371264,211.296,0.191111
255.4000,0.629754,211.243,0.190374
255.3000,1.58263,211.543,0.194603
255.2000,0.927108,212.092,0.202358
255.1000,2.19858,211.157,0.189156
255.0000,-0.342855,212.19,0.203732
254.9000,1.60505,211.288,0.190999
254.8000,-0.526185,211.273,0.190791
254.7000,1.26003,211.522,0.194314
254.6000,2.93953,211.813,0.198427
254.5000,1.07996,211.974,0.200696
254.4000,-0.434105,211.549,0.194699
254.3000,0.983938,212.731,0.211356
254.2000,0.414127,211.76,0.197675
254.1000,1.67172,211.87,0.199226
254.0000,1.17764,211.798,0.198203
253.9000,2.51643,211.416,0.192809
253.8000,0.937423,212.19,0.203732
253.7000,2.92417,212.45,0.207402
253.6000,1.71221,212.039,0.201607
253.5000,0.613555,211.608,0.195531
253.4000,1.99043,212.316,0.205519
253.3000,0.943495,212.001,0.20108
253.2000,-1.56845,211.556,0.194795
253.1000,0.346867,211.567,0.194955
253.0000,2.12007,212.738,0.211452
252.9000,1.52622,212.418,0.206955
252.8000,1.50206,212.375,0.206349
252.7000,0.857009,211.771,0.197835
252.6000,0.426147,212.059,0.201895
252.5000,2.25325,212.319,0.205552
252.4000,-1.26116,213.317,0.219585
252.3000,1.26987,211.889,0.199498
252.2000,1.11245,212.829,0.212726
252.1000,1.17464,212.994,0.215051
252.0000,1.54841,213.808,0.226462
251.9000,1.53911,212.483,0.207865
251.8000,-0.134759,212.767,0.211866
251.7000,0.191832,213.054,0.215895
251.6000,0.0576385,211.86,0.199082
251.5000,-1.15447,212.731,0.211356
251.4000,2.13833,212.235,0.20437
251.3000,0.972094,212.335,0.205775
251.2000,2.46892,213.129,0.216945
251.1000,1.25885,212.29,0.205152
251.0000,-0.157521,212.071,0.202055
250.9000,1.24042,213.385,0.220538
250.8000,1.7364,213.103,0.216579
250.7000,2.2453,212.691,0.210798
250.6000,-0.538303,213.754,0.225716
250.5000,2.05573,212.844,0.212949
250.4000,-1.13893,212.895,0.213666
250.3000,-1.03585,213.182,0.217692
250.2000,1.55569,213.644,0.224176
250.1000,1.18078,211.875,0.19929
250.0000,-0.448776,213.208,0.218058
249.9000,0.986092,213.896,0.227699
249.8000,2.25204,212.8,0.212328
249.7000,0.512503,213.386,0.220554
249.6000,2.43416,213.167,0.217486
249.5000,1.05505,213.121,0.216833
249.4000,0.838436,213.123,0.216865
249.3000,-0.00945503,214.136,0.231061
249.2000,0.771069,212.403,0.206732
249.1000,1.45422,213.843,0.226954
249.0000,-0.51789,213.308,0.219457
248.9000,0.290893,213.638,0.224081
248.8000,2.65662,213.6,0.223557
248.7000,0.746561,213.678,0.224653
248.6000,1.61978,213.497,0.222112
248.5000,-0.663661,213.128,0.216929
248.4000,1.2284,213.366,0.220268
248.3000,0.94625,213,0.21513
248.2000,1.86812,213.307,0.219441
248.1000,1.43491,213.6,0.223557
248.0000,0.107378,212.934,0.214207
247.9000,1.09818,214.332,0.233801
247.8000,0.382177,214.012,0.229317
247.7000,1.81418,213.554,0.222906
247.6000,2.2117,213.9,0.227763
247.5000,0.00824682,213.885,0.227541
247.4000,-0.110589,213.965,0.228667
247.3000,-0.21272,213.934,0.228239
247.2000,2.00577,213.866,0.227287
247.1000,-0.295996,214.702,0.23896
247.0000,0.521083,214.686,0.238739
246.9000,0.867585,213.678,0.224653
246.8000,0.906892,215.172,0.245517
246.7000,0.624204,214.541,0.236714
246.6000,0.355165,214.942,0.242311
246.5000,0.456624,214.298,0.233326
246.4000,1.86999,214.4,0.234751
246.3000,1.30103,214.349,0.234039
246.2000,0.576851,214.217,0.232186
246.1000,1.15171,214.674,0.238581
246.0000,1.038,214.571,0.237141
245.9000,1.52782,214.381,0.234482
245.8000,1.77923,214.861,0.241189
245.7000,2.0687,214.655,0.238312
245.6000,0.874438,214.468,0.235701
245.5000,-0.0645518,214.555,0.23692
245.4000,0.608248,214.739,0.239482
245.3000,1.4953,214.414,0.234942
245.2000,0.656442,215.267,0.246843
245.1000,-0.31407,215.053,0.243859
245.0000,-0.472539,214.913,0.241916
244.9000,2.3516,214.996,0.243069
244.8000,0.835954,215.446,0.249335
244.7000,0.140916,214.354,0.234102
244.6000,1.40395,214.773,0.239956
244.5000,1.41855,214.987,0.242943
244.4000,1.12033,215.41,0.24883
244.3000,0.389441,215.313,0.247489
244.2000,2.39001,215.136,0.245012
244.1000,-0.317705,215.371,0.248294
244.0000,0.18439,215.911,0.255794
243.9000,0.926417,216.082,0.25817
243.8000,1.19467,214.372,0.234356
243.7000,1.92796,215.123,0.244838
243.6000,0.293157,215.548,0.250754
243.5000,-0.735307,214.658,0.238359
243.4000,-0.242044,215.004,0.24318
243.3000,0.624652,215.839,0.254802
243.2000,-1.79829,215.414,0.248893
243.1000,-1.36738,216.119,0.25869
243.0000,0.231291,215.518,0.250344
242.9000,1.34329,216.504,0.264033
242.8000,3.08689,216.192,0.259696
242.7000,-1.26992,215.307,0.247395
242.6000,1.86839,215.676,0.252534
242.5000,-1.30616,215.952,0.256377
242.4000,1.85144,215.598,0.251447
242.3000,1.6852,216.104,0.258485
242.2000,1.46756,216.409,0.262714
242.1000,1.01359,216.184,0.259586
242.0000,1.03482,215.932,0.256094
241.9000,0.1904,215.988,0.256864
241.8000,0.632804,215.495,0.250013
241.7000,0.763881,216.52,0.264253
241.6000,1.76699,216.513,0.264159
241.5000,-0.194824,216.134,0.258894
241.4000,2.22347,216.592,0.265242
241.3000,0.888649,216.727,0.267126
241.2000,-0.341949,217.229,0.274071
241.1000,1.15323,216.3,0.261205
241.0000,1.32276,217.139,0.272817
240.9000,0.326041,216.631,0.265792
240.8000,-0.12357,217.474,0.277452
240.7000,1.30195,216.332,0.261645
240.6000,3.15943,217.481,0.277546
240.5000,1.52455,217.269,0.274619
240.4000,0.886029,217.561,0.278656
240.3000,-0.801608,217.436,0.27692
240.2000,1.28385,216.851,0.268836
240.1000,1.62311,217.64,0.279736
240.0000,0.196653,217.737,0.28108
239.9000,1.95184,217.541,0.278375
239.8000,0.131917,217.382,0.276184
239.7000,0.57351,216.977,0.270576
239.6000,1.01719,217.092,0.272175
239.5000,0.45141,218.561,0.292427
239.4000,0.910803,217.631,0.27961
239.3000,1.56006,217.963,0.28419
239.2000,2.77909,218.152,0.286797
239.1000,0.455754,217.633,0.279642
239.0000,1.32664,218.708,0.294452
238.9000,1.57594,218.536,0.292084
238.8000,2.59353,218.222,0.287764
238.7000,3.07816,218.421,0.290509
238.6000,1.31947,218.324,0.289168
238.5000,-0.181044,217.398,0.276403
238.4000,-0.0626629,218.125,0.286422
238.3000,3.17732,218.676,0.294016
238.2000,-0.233632,218.81,0.295854
238.1000,1.36383,218.129,0.286485
238.0000,2.98318,219.559,0.30613
237.9000,3.35551,219.426,0.304313
237.8000,0.741161,219.309,0.302697
237.7000,3.71507,218.926,0.297441
237.6000,-1.0868,218.402,0.290245
237.5000,1.04504,219.209,0.301329
237.4000,1.74974,219.645,0.307309
237.3000,0.616264,219.182,0.300956
237.2000,1.88778,219.431,0.304375
237.1000,3.56948,220.014,0.312365
237.0000,1.48092,220.03,0.312582
236.9000,-0.391893,218.837,0.296227
236.8000,1.53033,219.152,0.300552
236.7000,0.0447266,218.781,0.295448
236.6000,2.75358,220.476,0.318668
236.5000,1.18707,219.428,0.304329
236.4000,1.08131,219.569,0.30627
236.3000,0.289097,220.333,0.316718
236.2000,-0.23336,220.065,0.313063
236.1000,-0.312952,220.063,0.313032
236.0000,0.98,219.845,0.31004
235.9000,1.56525,220.673,0.321359
235.8000,2.2016,221.203,0.328587
235.7000,-0.394169,221.465,0.332149
235.6000,1.58264,220.141,0.314101
235.5000,1.79011,221.018,0.326071
235.4000,1.65153,220.343,0.316857
235.3000,2.34959,220.351,0.316966
235.2000,3.19125,221.047,0.326457
235.1000,2.25508,220.606,0.320447
235.0000,2.55094,220.613,0.320539
234.9000,0.187061,220.716,0.321946
234.8000,0.262477,220.777,0.322781
234.7000,-1.55341,221.035,0.326302
234.6000,3.26848,221.673,0.334985
234.5000,0.0795768,221.806,0.336786
234.4000,0.466288,221.482,0.332381
234.3000,1.92274,221.859,0.33751
234.2000,2.9053,221.531,0.333043
234.1000,-0.797768,221.611,0.334137
234.0000,4.71827,221.906,0.338141
233.9000,0.689153,221.768,0.336278
233.8000,0.604632,221.663,0.334846
233.7000,1.31329,222.242,0.342708
233.6000,0.868147,221.831,0.337125
233.5000,2.35312,222.513,0.34638
233.4000,0.8105,222.615,0.347762
233.3000,2.72041,221.363,0.330762
233.2000,1.16962,222.158,0.341571
233.1000,2.21153,222.064,0.340295
233.0000,0.0828703,222.614,0.347746
232.9000,1.04414,222.958,0.35241
232.8000,1.78785,223.186,0.355489
232.7000,0.61852,222.815,0.350478
232.6000,2.62886,222.837,0.350769
232.5000,1.30952,222.423,0.345167
232.4000,0.335069,222.924,0.35195
232.3000,1.28084,223.325,0.357373
232.2000,0.710119,222.866,0.351168
232.1000,1.69199,223.995,0.366409
232.0000,1.08172,223.469,0.359316
231.9000,1.58139,224.301,0.37053
231.8000,2.87759,223.157,0.355091
231.7000,1.79591,224.283,0.370286
231.6000,0.572242,223.663,0.361932
231.5000,2.0357,222.914,0.351812
231.4000,0.840192,224.12,0.368088
231.3000,0.920565,223.886,0.364943
231.2000,2.44832,224.198,0.369142
231.1000,1.87289,223.861,0.364607
231.0000,1.22066,223.911,0.365279
230.9000,1.17647,224.514,0.373396
230.8000,2.05806,224.731,0.376322
230.7000,1.18828,224.07,0.367417
230.6000,2.47819,224.701,0.37591
230.5000,3.3122,224.39,0.371735
230.4000,1.91459,224.685,0.375697
230.3000,1.33871,223.932,0.365554
230.2000,3.47335,224.445,0.372466
230.1000,-0.550479,224.677,0.37559
230.0000,1.00673,224.73,0.376306
229.9000,0.478124,224.444,0.372451
229.8000,0.119001,224.48,0.372939
229.7000,2.37343,225.023,0.380233
229.6000,0.593644,224.768,0.376809
229.5000,1.03444,224.968,0.379503
229.4000,1.08466,224.633,0.374996
229.3000,-0.46866,225.092,0.381161
229.2000,3.7752,225.182,0.382378
229.1000,0.764499,225.632,0.388409
229.0000,1.05295,225.539,0.387164
228.9000,2.41283,225.678,0.389016
228.8000,1.15592,225.851,0.391337
228.7000,0.646242,225.894,0.391914
228.6000,2.98622,225.77,0.39026
228.5000,0.813854,226.436,0.399156
228.4000,0.7851,226.01,0.39346
228.3000,1.056,226.628,0.401728
228.2000,0.456193,226.25,0.396672
228.1000,1.52383,226.381,0.398429
228.0000,1.38062,227.289,0.410534
227.9000,3.0442,226.965,0.406217
227.8000,1.26989,226.836,0.404494
227.7000,1.33877,227.394,0.411937
227.6000,2.18963,226.738,0.403194
227.5000,0.951225,226.868,0.404932
227.4000,0.696126,227.242,0.409916
227.3000,1.57287,227.886,0.418477
227.2000,1.63879,227.948,0.419305
227.1000,1.91216,227.656,0.41542
227.0000,0.506975,227.783,0.417107
226.9000,1.57119,228.083,0.421096
226.8000,2.05889,227.636,0.415148
226.7000,1.25369,228.267,0.423532
226.6000,2.8441,228.437,0.425787
226.5000,1.91844,228.309,0.424088
226.4000,1.58095,227.94,0.4192
226.3000,1.62455,228.449,0.425952
226.2000,0.704139,228.77,0.430202
226.1000,1.11042,228.58,0.427694
226.0000,2.06557,228.671,0.428896
225.9000,1.43096,228.772,0.430231
225.8000,0.461327,228.743,0.429841
225.7000,2.87974,228.585,0.427754
225.6000,2.28896,229.176,0.435585
225.5000,2.49969,228.901,0.431942
225.4000,0.269648,229.927,0.445492
225.3000,1.55004,230.01,0.446598
225.2000,2.17931,229.523,0.440168
225.1000,1.73433,229.692,0.442397
225.0000,1.33143,230.184,0.448883
224.9000,0.80542,230.195,0.449032
224.8000,-0.193852,229.877,0.444834
224.7000,2.20808,230.101,0.447793
224.6000,0.747687,229.891,0.445029
224.5000,1.07765,230.217,0.449316
224.4000,-0.338921,230.155,0.44851
224.3000,0.810755,230.08,0.447509
224.2000,3.00268,230.44,0.452256
224.1000,1.12757,230.28,0.450152
224.0000,-0.1966,230.35,0.451077
223.9000,3.81687,231.299,0.463546
223.8000,3.82095,230.163,0.448614
223.7000,3.71281,230.765,0.456535
223.6000,1.76983,231.44,0.465404
223.5000,1.13867,230.5,0.453046
223.4000,1.2441,231.582,0.467262
223.3000,0.418074,231.886,0.471242
223.2000,2.08599,231.29,0.463427
223.1000,-0.67088,230.91,0.458441
223.0000,0.822873,231.38,0.464616
222.9000,1.44816,231.87,0.471034
222.8000,0.557564,231.609,0.467619
222.7000,1.92647,232.558,0.480031
222.6000,1.16231,231.988,0.472577
222.5000,3.65448,231.892,0.471331
222.4000,1.75427,232.648,0.481216
222.3000,-1.56588,232.607,0.480683
222.2000,1.70586,232.158,0.474802
222.1000,1.60194,233.043,0.486363
222.0000,2.80724,233.322,0.490011
221.9000,2.8621,232.65,0.481245
221.8000,1.66288,233.08,0.48685
221.7000,2.16643,233.167,0.487988
221.6000,1.18605,232.841,0.483731
221.5000,1.19326,233.442,0.491576
221.4000,1.99932,233.829,0.496606
221.3000,-0.617633,233.503,0.492358
221.2000,-1.45341,234.046,0.499434
221.1000,0.934725,233.77,0.495839
221.0000,0.513997,233.994,0.498757
220.9000,0.741567,233.368,0.490602
220.8000,1.09083,233.896,0.497475
220.7000,2.20176,234.283,0.502511
220.6000,4.48618,235.033,0.512239
220.5000,2.41564,234.76,0.508701
220.4000,-0.292792,235.015,0.512005
220.3000,1.63299,234.504,0.505379
220.2000,3.7757,234.756,0.508642
220.1000,3.8131,235.237,0.51488
220.0000,2.05947,234.732,0.508333
219.9000,2.33208,235.067,0.51268
219.8000,2.41643,234.828,0.509582
219.7000,-1.21871,235.641,0.520097
219.6000,1.89373,235.787,0.521986
219.5000,1.28083,234.621,0.506893
219.4000,0.516841,235.119,0.513354
219.3000,3.37788,235.832,0.522572
219.2000,4.22177,235.684,0.520654
219.1000,1.71369,236.667,0.533342
219.0000,-1.4076,235.857,0.522894
218.9000,2.01834,236.441,0.530422
218.8000,0.846084,235.991,0.52462
218.7000,0.0533242,236.554,0.531883
218.6000,2.12612,236.328,0.528976
218.5000,0.0590585,236.358,0.529356
218.4000,1.2072,236.443,0.530452
218.3000,0.524029,236.948,0.536959
218.2000,2.00388,236.573,0.532131
218.1000,1.51108,236.903,0.536376
218.0000,1.61621,236.561,0.53197
217.9000,-0.644136,236.824,0.535355
217.8000,2.97449,238.329,0.554687
217.7000,2.20959,237.267,0.541053
217.6000,0.497441,237.192,0.540092
217.5000,3.40096,237.938,0.549679
217.4000,0.8386,237.163,0.539728
217.3000,2.44317,238.273,0.553962
217.2000,3.04231,237.047,0.538227
217.1000,-0.311204,237.386,0.542582
217.0000,1.38284,238.384,0.555384
216.9000,2.16688,238.346,0.554905
216.8000,0.750681,238.842,0.561239
216.7000,1.52644,239.018,0.563498
216.6000,3.36937,238.247,0.553628
216.5000,3.00399,238.157,0.552481
216.4000,3.33048,238,0.550463
216.3000,-0.313982,238.125,0.552075
216.2000,2.96729,238.227,0.553381
216.1000,2.74404,239.145,0.565118
216.0000,1.2375,239.371,0.567996
215.9000,0.959013,238.558,0.557617
215.8000,2.09506,238.842,0.561239
215.7000,1.33616,240.126,0.577626
215.6000,1.44986,238.859,0.561456
215.5000,2.50784,239.525,0.569962
215.4000,0.921787,239.431,0.568762
215.3000,1.65195,239.757,0.572923
215.2000,1.43539,240.115,0.577482
215.1000,4.00057,239.99,0.575895
215.0000,1.9322,241.463,0.594601
214.9000,0.893808,240.036,0.576472
214.8000,2.96616,239.678,0.571912
214.7000,2.27607,240.232,0.578967
214.6000,1.46047,240.058,0.576761
214.5000,2.27891,239.695,0.572128
214.4000,4.14058,240.947,0.58805
214.3000,2.1256,240.204,0.578606
214.2000,3.19877,240.509,0.582496
214.1000,-0.16452,242.335,0.605621
214.0000,3.98798,240.413,0.581272
213.9000,1.64985,240.822,0.586468
213.8000,0.598074,240.84,0.586698
213.7000,-0.406941,240.809,0.586296
213.6000,2.31448,241.478,0.594787
213.5000,3.11292,241.15,0.590623
213.4000,1.43631,241.338,0.593007
213.3000,2.56384,241.427,0.594141
213.2000,4.64171,241.226,0.591585
213.1000,0.736128,241.772,0.598503
213.0000,1.71539,242.293,0.605092
212.9000,2.68087,242.546,0.608282
212.8000,0.72269,241.064,0.589531
212.7000,3.38815,243.249,0.617151
212.6000,0.866103,241.993,0.601297
212.5000,1.82198,242.788,0.611341
212.4000,0.897177,242.089,0.602515
212.3000,4.22654,242.967,0.613598
212.2000,4.0458,242.438,0.606923
212.1000,1.01255,242.718,0.610455
212.0000,-0.0863348,242.884,0.612555
211.9000,4.3604,243.717,0.623038
211.8000,-1.21043,243.443,0.61959
211.7000,2.16838,243.462,0.619832
211.6000,2.56645,242.441,0.606966
211.5000,2.86879,243.483,0.620089
211.4000,3.0052,243.564,0.621115
211.3000,2.93347,244.039,0.627081
211.2000,1.91091,243.339,0.618278
211.1000,0.337817,244.266,0.629925
211.0000,2.15291,243.681,0.622582
210.9000,-2.87898,244.761,0.636132
210.8000,-0.800306,243.424,0.619347
210.7000,0.996555,244.459,0.632355
210.6000,-0.550425,244.829,0.636984
210.5000,1.63149,245.735,0.648317
210.4000,3.11066,245.081,0.640146
210.3000,2.0962,245.32,0.643137
210.2000,0.727221,244.212,0.629257
210.1000,2.00827,245.184,0.641436
210.0000,1.70286,245.031,0.639523
209.9000,3.63292,245.587,0.646464
209.8000,1.16085,245.743,0.648417
209.7000,1.814,245.64,0.647129
209.6000,2.05822,245.86,0.649873
209.5000,4.23972,245.567,0.646223
209.4000,0.426545,245.677,0.647596
209.3000,3.13328,246.855,0.662267
209.2000,2.43973,247.147,0.665901
209.1000,2.43421,246.501,0.657867
209.0000,2.6663,247.61,0.671655
208.9000,1.90564,247.304,0.667858
208.8000,3.52516,247.264,0.667351
208.7000,1.03605,247.452,0.669686
208.6000,1.67329,247.817,0.674213
208.5000,0.954459,247.316,0.667998
208.4000,2.67207,248.203,0.678999
208.3000,0.779235,248.543,0.683206
208.2000,1.28658,248.404,0.681482
208.1000,3.19845,247.84,0.674507
208.0000,1.05467,248.801,0.686399
207.9000,1.16568,248.408,0.681538
207.8000,1.65082,248.941,0.688121
207.7000,3.63424,249.631,0.696634
207.6000,2.75623,249.058,0.689576
207.5000,1.51088,249.591,0.696146
207.4000,3.85778,249.264,0.692107
207.3000,3.39476,249.457,0.694497
207.2000,4.78467,249.456,0.694483
207.1000,0.82157,249.501,0.695042
207.0000,3.09698,249.909,0.700067
206.9000,3.82713,250.026,0.701504
206.8000,0.443069,249.884,0.699761
206.7000,2.80426,250.242,0.704166
206.6000,1.44342,251.004,0.713518
206.5000,0.891314,250.772,0.710668
206.4000,3.73639,250.418,0.706326
206.3000,4.18268,250.562,0.708094
206.2000,2.54439,251.348,0.717741
206.1000,3.98793,251.121,0.71495
206.0000,1.4168,251.657,0.721516
205.9000,2.02109,251.482,0.71938
205.8000,3.59715,251.38,0.71813
205.7000,1.97211,251.444,0.718908
205.6000,2.28235,252.344,0.729925
205.5000,1.87779,251.919,0.724732
205.4000,0.00224572,252.768,0.735097
205.3000,1.9744,252.468,0.731433
205.2000,0.397374,252.66,0.733784
205.1000,1.48492,252.557,0.732526
205.0000,-4.02572,253.386,0.742621
204.9000,2.23387,253.105,0.739199
204.8000,1.775,253.489,0.743876
204.7000,3.51703,253.148,0.739724
204.6000,1.42881,252.554,0.732484
204.5000,1.6492,253.469,0.743641
204.4000,2.9434,254.113,0.751464
204.3000,-0.601649,254.63,0.757733
204.2000,3.19569,254.078,0.751038
204.1000,2.4132,254.663,0.758131
204.0000,0.94274,255.804,0.771935
203.9000,2.37292,255.626,0.769786
203.8000,2.86537,256.026,0.774616
203.7000,0.941461,255.996,0.774261
203.6000,3.39242,256.045,0.774849
203.5000,-1.13958,255.938,0.773563
203.4000,2.12526,255.813,0.772045
203.3000,-0.0657596,256.403,0.779166
203.2000,2.2735,256.317,0.778129
203.1000,3.79946,256.681,0.782511
203.0000,1.86181,257.115,0.787733
202.9000,0.173117,257.243,0.789272
202.8000,1.18271,257.605,0.793628
202.7000,4.06028,258.198,0.800736
202.6000,3.30911,258.257,0.801442
202.5000,-1.36427,258.245,0.801306
202.4000,1.9716,257.454,0.791818
202.3000,0.149541,259.034,0.810743
202.2000,3.07156,259.18,0.812489
202.1000,-0.011987,259.239,0.813193
202.0000,2.43933,259.46,0.815831
201.9000,2.8804,258.721,0.807003
201.8000,2.90303,259.804,0.81994
201.7000,1.97355,260.305,0.825905
201.6000,2.07247,259.588,0.817358
201.5000,1.4666,260.101,0.823477
201.4000,2.43957,260.706,0.830676
201.3000,2.13787,260.405,0.827092
201.2000,4.9536,261.076,0.835065
201.1000,2.02828,260.806,0.831861
201.0000,6.54366,261.549,0.840684
200.9000,3.09265,261.16,0.83606
200.8000,1.86146,261.383,0.838709
200.7000,-1.31929,260.806,0.831861
200.6000,3.09686,262.803,0.855512
200.5000,2.88004,262.004,0.846067
200.4000,3.32289,262.573,0.852795
200.3000,1.33938,263.529,0.864079
200.2000,2.81024,262.962,0.857398
200.1000,4.21025,264.185,0.8718
200.0000,4.11829,263.961,0.869161
199.9000,3.54884,263.65,0.865507
199.8000,3.7082,264.073,0.870481
199.7000,4.99458,263.906,0.868522
199.6000,1.84323,264.124,0.871081
199.5000,2.36247,264.635,0.877085
199.4000,0.460827,264.943,0.880702
199.3000,1.03455,265.223,0.883983
199.2000,1.77891,265.749,0.890139
199.1000,2.20064,266.052,0.89369
199.0000,3.2727,265.973,0.892763
198.9000,3.69061,265.313,0.885045
198.8000,2.39003,266.325,0.896881
198.7000,2.79183,266.212,0.895558
198.6000,1.25798,266.513,0.899077
198.5000,2.55423,266.273,0.896272
198.4000,4.07287,267.214,0.907241
198.3000,2.22784,267.272,0.907928
198.2000,-1.03605,267.248,0.907637
198.1000,2.06505,267.927,0.915546
198.0000,-1.90861,268.521,0.922439
197.9000,-0.410773,267.762,0.913623
197.8000,0.932,268.205,0.918771
197.7000,2.22804,268.966,0.927601
197.6000,1.19168,268.707,0.924594
197.5000,3.47782,268.331,0.920231
197.4000,-3.11129,269.832,0.937615
197.3000,3.08934,269.689,0.935966
197.2000,3.19274,270.048,0.940115
197.1000,-1.30368,270.305,0.94307
197.0000,5.23338,269.715,0.936267
196.9000,4.73425,270.91,0.950043
196.8000,1.75237,270.691,0.947525
196.7000,1.25262,271.717,0.959334
196.6000,-1.81255,271.92,0.961663
196.5000,3.25402,271.838,0.960714
196.4000,-0.865497,271.933,0.961806
196.3000,3.73364,272.422,0.967421
196.2000,-1.61483,273.36,0.978158
196.1000,2.12913,272.386,0.967005
196.0000,2.39503,273.24,0.976785
195.9000,4.85502,273.011,0.974168
195.8000,2.19363,274.052,0.986049
195.7000,4.28928,274.222,0.987987
195.6000,2.78337,274.865,0.995316
195.5000,2.75466,275.57,1.00333
195.4000,5.29959,275.985,1.00803
195.3000,-1.98666,275.112,0.998126
195.2000,-0.0941965,275.906,1.00714
195.1000,-1.09403,275.811,1.00606
195.0000,2.06804,276.424,1.01301
194.9000,0.813731,276.438,1.01317
194.8000,4.07004,276.687,1.01599
194.7000,1.95846,277.089,1.02054
194.6000,3.43665,277.577,1.02604
194.5000,3.0061,278.107,1.03202
194.4000,2.65463,278.987,1.04192
194.3000,2.30995,278.741,1.03916
194.2000,2.43321,279.639,1.04924
194.1000,1.29434,280.766,1.06186
194.0000,2.78003,280.07,1.05408
193.9000,0.33794,281.19,1.06659
193.8000,3.82835,281.303,1.06786
193.7000,5.27323,282.142,1.0772
193.6000,-1.30815,283.124,1.08812
193.5000,3.44755,283.683,1.09432
193.4000,2.77536,283.925,1.09701
193.3000,3.17534,283.829,1.09594
193.2000,0.943112,285.378,1.11306
193.1000,0.315178,285.755,1.11722
193.0000,2.03133,286.077,1.12076
192.9000,-2.92715,286.856,1.12933
192.8000,1.23239,287.132,1.13235
192.7000,1.61142,287.27,1.13387
192.6000,3.07128,288.777,1.15036
192.5000,-2.69155,289.448,1.15768
192.4000,1.53863,290.49,1.16902
192.3000,-3.37067,290.759,1.17194
192.2000,5.22555,291.908,1.18439
192.1000,1.82546,293.369,1.20017
192.0000,1.88514,292.865,1.19474
191.9000,2.15295,293.752,1.2043
191.8000,2.61151,294.961,1.21729
191.7000,4.05131,295.694,1.22515
191.6000,2.70269,296.668,1.23555
191.5000,2.24057,297.38,1.24316
191.4000,2.05565,297.481,1.24423
191.3000,1.56146,299.048,1.26089
191.2000,1.3916,300.484,1.27608
191.1000,-0.740269,301.725,1.28917
191.0000,0.973624,302.99,1.30247
190.9000,-0.289424,304.255,1.31571
190.8000,1.66577,305.81,1.33194
190.7000,-3.36809,307.322,1.34764
190.6000,-2.43843,308.663,1.36152
190.5000,-1.29046,309.617,1.37137
190.4000,-2.34392,310.96,1.38518
190.3000,-2.22121,312.314,1.39905
190.2000,-2.8161,311.931,1.39513
190.1000,4.84446,313.239,1.4085
190.0000,3.38039,315.739,1.43393

##### Extended Information
[Comments]
Sample name,LW+MB Buffer
Comment,Buffer
User,Leah Whitehouse and Michael Boden
Division
Company,Saint Mary's College

[Detailed Information]
Creation date,9/29/2022 1:44 PM

Data array type,Linear data array * 3
Horizontal axis,Wavelength [nm]
Vertical axis(1),CD [mdeg]
Vertical axis(2),HT [V]
Vertical axis(3),Abs
Start,320 nm
End,190 nm
Data interval,0.1 nm
Data points,1301    

[Measurement Information]
Instrument name,J-1500
Model name,J-1500
Serial No.,B051061638

Detector,PM-539
Detector S/N,B051061638
  Lock-in amp.,X mode
  HT volt,Auto

Accessory,PTC-517
Accessory S/N,B026561646
  Temperature,22.40 C
  Control sensor,Holder
  Monitor sensor,Holder

Measurement date,9/29/2022 1:44 PM

CD Overload detect,1252
Photometric mode,CD, HT, Abs
Measure range,320 - 190 nm
Data pitch,0.1 nm
CD scale,20 mdeg/0.05 dOD
FL scale,20 mdeg/0.05 dOD
D.I.T.,8 msec
Bandwidth,2.00 nm
Start mode,Immediately
Scanning mode,Continuous
Scanning speed,200 nm/min
Baseline correction,None
Shutter control,Auto
No. of cycle,1/1
N2 Flowmeter,Manual

Solvent,NaPO4 buffer

