TITLE,LW+MB buffer and protein
DATA TYPE,
ORIGIN,JASCO
OWNER,
DATE,22/09/29
TIME,15:11:08
SPECTROMETER/DATA SYSTEM,
LOCALE,1033
RESOLUTION,
DELTAX,-0.1
XUNITS,NANOMETERS
YUNITS,CD [mdeg]
Y2UNITS,HT [V]
Y3UNITS,ABSORBANCE
FIRSTX,  320.0000
LASTX,  190.0000
NPOINTS,    1301
FIRSTY,     0.70816
MAXY,    23.66040
MINY,   -64.66916
XYDATA
320.0000,0.708158,208.56,0.152224
319.9000,1.26895,209.613,0.167239
319.8000,1.43085,208.654,0.153568
319.7000,0.299514,208.457,0.15075
319.6000,0.0992168,208.105,0.145707
319.5000,0.228139,209.063,0.159408
319.4000,1.99968,208.267,0.148027
319.3000,0.702983,208.265,0.147994
319.2000,1.98283,209.018,0.158761
319.1000,2.38017,209.628,0.167448
319.0000,1.61868,207.942,0.14337
318.9000,-0.558203,209.605,0.167126
318.8000,2.35141,208.08,0.145351
318.7000,1.54204,208.951,0.157807
318.6000,0.766561,208.71,0.154361
318.5000,3.94925,209.264,0.162268
318.4000,-0.44627,208.473,0.150977
318.3000,1.27134,208.634,0.153276
318.2000,-0.33045,209.159,0.160765
318.1000,1.396,208.475,0.151009
318.0000,-0.583502,210.042,0.173346
317.9000,2.08343,207.846,0.142006
317.8000,0.245211,208.742,0.154814
317.7000,1.05691,207.935,0.143273
317.6000,1.16559,208.616,0.153017
317.5000,0.841334,209.647,0.167722
317.4000,1.12426,208.117,0.145886
317.3000,0.741807,209.603,0.167093
317.2000,0.637194,209.071,0.159521
317.1000,0.894433,208.463,0.150831
317.0000,1.79463,208.837,0.156174
316.9000,0.23269,208.765,0.155154
316.8000,1.09356,209.225,0.161719
316.7000,-0.154099,208.302,0.148529
316.6000,0.363533,207.925,0.143127
316.5000,0.165382,208.265,0.147994
316.4000,1.03591,208.384,0.149696
316.3000,1.47866,209.049,0.159198
316.2000,1.84474,209.002,0.158535
316.1000,0.261677,208.271,0.148092
316.0000,0.310462,207.89,0.142623
315.9000,1.28689,208.99,0.158357
315.8000,-1.48429,209.042,0.159101
315.7000,0.545788,207.078,0.130978
315.6000,2.58701,208.542,0.151965
315.5000,2.86671,209.56,0.166481
315.4000,2.62977,206.732,0.125989
315.3000,2.31289,208.654,0.153568
315.2000,0.303892,209,0.158502
315.1000,1.24836,209.486,0.165432
315.0000,0.800589,208.829,0.15606
314.9000,1.7887,208.197,0.147021
314.8000,2.27429,208.326,0.14887
314.7000,0.832215,208.262,0.147962
314.6000,1.01131,209,0.158502
314.5000,-0.222457,208.098,0.14561
314.4000,1.9917,208.738,0.154766
314.3000,2.51787,207.728,0.1403
314.2000,0.288415,208.403,0.149972
314.1000,0.770218,209.672,0.168077
314.0000,0.977197,207.326,0.134544
313.9000,1.9213,208.302,0.148529
313.8000,0.36675,208.337,0.149032
313.7000,-0.550133,208.563,0.152256
313.6000,1.46867,208.223,0.147394
313.5000,0.383535,208.039,0.144766
313.4000,0.604023,208.211,0.147232
313.3000,0.948,207.748,0.140593
313.2000,1.96146,208.139,0.146194
313.1000,0.679744,208.952,0.157824
313.0000,0.408307,208.81,0.155785
312.9000,1.11137,208.635,0.153293
312.8000,0.140683,207.716,0.140138
312.7000,-0.298046,209.276,0.162445
312.6000,0.75919,208.311,0.148659
312.5000,0.926187,207.845,0.14199
312.4000,1.07959,207.553,0.137797
312.3000,0.939318,207.712,0.140073
312.2000,0.687776,208.355,0.149291
312.1000,1.38959,207.057,0.130668
312.0000,0.219158,208.409,0.150053
311.9000,0.412313,207.1,0.131287
311.8000,0.0834828,208.618,0.15305
311.7000,0.948177,208.53,0.151787
311.6000,0.18028,209.029,0.158923
311.5000,0.47244,208.086,0.145432
311.4000,1.42682,208.029,0.14462
311.3000,3.96112,208.484,0.151139
311.2000,1.12434,207.22,0.133014
311.1000,-0.222644,209.37,0.163785
311.0000,0.906358,208.147,0.146308
310.9000,2.53151,208.548,0.152046
310.8000,0.805612,207.731,0.140349
310.7000,-0.485187,207.411,0.135764
310.6000,0.588932,208.896,0.157015
310.5000,1.82952,208.065,0.145139
310.4000,1.54467,208.396,0.149875
310.3000,0.699043,207.517,0.137277
310.2000,0.79925,208.106,0.145724
310.1000,0.217397,208.172,0.146665
310.0000,1.71162,207.792,0.141227
309.9000,1.92813,207.951,0.1435
309.8000,-0.18764,208.041,0.144799
309.7000,0.964482,208.177,0.146746
309.6000,0.687493,208.849,0.156351
309.5000,1.15316,208.568,0.152337
309.4000,-0.416442,208.25,0.147784
309.3000,-0.965169,209.037,0.159036
309.2000,-0.28958,208.326,0.14887
309.1000,1.15483,207.909,0.142899
309.0000,1.22035,208.661,0.153665
308.9000,0.678304,208.345,0.149145
308.8000,0.060058,208.873,0.156691
308.7000,0.878973,208.684,0.153989
308.6000,-0.828599,208.116,0.14587
308.5000,-0.0490481,208.303,0.148546
308.4000,1.88473,208.802,0.155672
308.3000,1.09396,208.152,0.146389
308.2000,0.248196,208.495,0.151285
308.1000,0.122468,207.645,0.139114
308.0000,2.19609,209.076,0.159585
307.9000,0.651592,207.291,0.134039
307.8000,0.916571,208.48,0.151074
307.7000,0.123806,208.671,0.153811
307.6000,0.794693,208.667,0.153746
307.5000,1.63273,207.973,0.143825
307.4000,0.801486,207.581,0.138204
307.3000,0.827533,207.862,0.142234
307.2000,0.322289,208.249,0.147767
307.1000,1.52241,208.572,0.152386
307.0000,1.09586,208.382,0.14968
306.9000,2.38187,208.303,0.148546
306.8000,1.4782,208.498,0.151333
306.7000,1.3888,207.953,0.143533
306.6000,0.657423,208.489,0.151204
306.5000,-0.885024,207.791,0.14121
306.4000,0.173369,208.218,0.14733
306.3000,0.681945,208.079,0.145334
306.2000,1.83384,207.509,0.137163
306.1000,-0.288026,207.952,0.143516
306.0000,1.1715,207.865,0.142266
305.9000,1.23576,207.858,0.142168
305.8000,0.69446,208.575,0.152434
305.7000,1.31824,208.099,0.145626
305.6000,-0.512584,209.133,0.160393
305.5000,0.282027,208.463,0.150831
305.4000,1.00627,208.262,0.147962
305.3000,0.117031,207.929,0.143192
305.2000,0.633445,208.334,0.148983
305.1000,0.00756908,207.956,0.143581
305.0000,2.552,207.346,0.13482
304.9000,0.0331389,207.984,0.143971
304.8000,0.0528635,207.602,0.138496
304.7000,1.4736,208.139,0.146194
304.6000,-1.61611,207.683,0.139667
304.5000,-0.768662,207.928,0.143175
304.4000,1.16713,207.641,0.139065
304.3000,2.04154,208.254,0.147848
304.2000,1.25315,208.671,0.153811
304.1000,0.263917,207.856,0.142136
304.0000,2.1687,208.02,0.14449
303.9000,0.244362,209.034,0.158987
303.8000,1.64086,208.263,0.147978
303.7000,-0.843595,208.25,0.147784
303.6000,0.833426,207.91,0.142916
303.5000,0.998889,208.075,0.145286
303.4000,1.43953,208.51,0.151511
303.3000,1.83518,208.304,0.148562
303.2000,-0.579752,207.764,0.14082
303.1000,0.0113579,207.726,0.140284
303.0000,1.00454,208.629,0.153212
302.9000,0.170262,208.245,0.147719
302.8000,1.88127,208.361,0.149372
302.7000,0.0188651,207.869,0.142331
302.6000,1.75194,208.507,0.151463
302.5000,0.497797,208.416,0.150167
302.4000,0.083146,208.053,0.144961
302.3000,-0.786978,207.807,0.141438
302.2000,1.4088,208.056,0.14501
302.1000,1.45538,207.605,0.138545
302.0000,2.29721,208.077,0.145302
301.9000,1.96756,208.513,0.151544
301.8000,1.59138,208.297,0.148465
301.7000,3.12664,208.293,0.1484
301.6000,1.6702,207.582,0.13822
301.5000,1.29764,207.236,0.133242
301.4000,2.40835,207.692,0.139797
301.3000,2.1725,208.089,0.14548
301.2000,1.25028,208.27,0.148075
301.1000,0.962005,208.414,0.150134
301.0000,1.58726,208.004,0.144263
300.9000,0.35062,207.582,0.13822
300.8000,0.081705,207.931,0.143224
300.7000,1.75715,206.739,0.126103
300.6000,2.34712,208.517,0.151609
300.5000,0.598033,207.5,0.137033
300.4000,0.204156,207.013,0.130033
300.3000,-1.26044,206.906,0.1285
300.2000,1.22535,207.32,0.134446
300.1000,0.184892,208.586,0.152596
300.0000,1.13998,207.476,0.136691
299.9000,2.59075,207.512,0.137212
299.8000,2.25894,207.59,0.138334
299.7000,-0.247012,207.842,0.141941
299.6000,0.494608,208.271,0.148092
299.5000,1.16929,208.048,0.144896
299.4000,0.443466,208.026,0.144571
299.3000,1.54879,207.255,0.133518
299.2000,1.06869,207.976,0.143857
299.1000,0.953657,207.661,0.139342
299.0000,-0.147186,207.143,0.131906
298.9000,0.897455,207.911,0.142932
298.8000,0.515301,207.428,0.136008
298.7000,0.607647,207.649,0.139179
298.6000,0.0641735,207.581,0.138204
298.5000,1.56797,207.294,0.134072
298.4000,-0.960283,208.019,0.144474
298.3000,2.23902,207.394,0.13552
298.2000,0.271767,206.634,0.124586
298.1000,0.893122,207.545,0.137683
298.0000,0.959883,207.756,0.140707
297.9000,0.637554,207.292,0.134056
297.8000,1.11726,207.98,0.143922
297.7000,-0.938684,207.504,0.137098
297.6000,1.84563,206.913,0.128599
297.5000,-0.0232532,207.645,0.139114
297.4000,-0.0659699,207.935,0.143273
297.3000,-0.479904,207.441,0.136187
297.2000,-0.407133,207.187,0.132541
297.1000,0.628458,207.375,0.135243
297.0000,1.46981,208.194,0.146989
296.9000,0.259798,207.935,0.143273
296.8000,1.94184,207.539,0.137602
296.7000,0.449574,208.151,0.146372
296.6000,0.527435,207.559,0.137879
296.5000,0.305971,207.426,0.135976
296.4000,1.1471,207.656,0.139277
296.3000,0.858712,207.484,0.136805
296.2000,2.92114,207.427,0.135992
296.1000,0.415581,207.273,0.133779
296.0000,2.00124,207.166,0.132232
295.9000,0.429408,206.716,0.125761
295.8000,0.945942,207.462,0.136496
295.7000,0.080069,207.834,0.141827
295.6000,0.052356,207.469,0.136594
295.5000,1.18,207.385,0.13539
295.4000,-0.978143,206.905,0.128484
295.3000,1.45431,207.916,0.142997
295.2000,1.1069,207.903,0.142818
295.1000,0.711218,207.475,0.136675
295.0000,0.223325,207.476,0.136691
294.9000,2.30848,207.656,0.139277
294.8000,1.4109,207.597,0.138431
294.7000,-0.349372,207.728,0.1403
294.6000,-0.027697,207.678,0.139586
294.5000,1.46515,207.341,0.134755
294.4000,0.972397,207.7,0.139911
294.3000,0.548707,207.612,0.138643
294.2000,0.117633,207.554,0.137814
294.1000,0.0464399,207.228,0.133127
294.0000,0.702965,207.998,0.144182
293.9000,0.531782,207.669,0.139455
293.8000,1.7455,208.006,0.144296
293.7000,0.699737,207.427,0.135992
293.6000,2.4001,207.635,0.138968
293.5000,0.610737,207.646,0.13913
293.4000,1.20473,207.612,0.138643
293.3000,2.32688,207.993,0.144101
293.2000,-0.266183,207.048,0.130538
293.1000,1.13378,207.863,0.14225
293.0000,0.648852,207.697,0.139862
292.9000,0.97092,207.301,0.134186
292.8000,2.06015,207.576,0.138123
292.7000,0.71832,207.686,0.139699
292.6000,1.30808,207.697,0.139862
292.5000,1.10038,207.786,0.141145
292.4000,2.16775,207.535,0.137537
292.3000,2.46508,207.396,0.135536
292.2000,0.761625,206.804,0.127033
292.1000,1.94203,206.888,0.12824
292.0000,-0.431219,207.539,0.137602
291.9000,-0.51224,206.953,0.129169
291.8000,0.629724,207.454,0.136382
291.7000,0.466601,207.064,0.130766
291.6000,1.04269,207.471,0.136626
291.5000,0.785078,207.26,0.133583
291.4000,0.571499,206.865,0.127914
291.3000,-0.0648848,206.949,0.12912
291.2000,1.1051,206.472,0.122252
291.1000,0.984096,207.394,0.13552
291.0000,0.773042,206.807,0.127082
290.9000,1.23679,207.521,0.137342
290.8000,0.209905,207.55,0.137748
290.7000,1.05182,206.624,0.124439
290.6000,0.815374,207.033,0.130326
290.5000,-1.26829,208.154,0.146405
290.4000,-0.309683,207.122,0.131613
290.3000,-0.0903583,207.033,0.130326
290.2000,1.42634,207.657,0.139293
290.1000,-0.90385,208.027,0.144588
290.0000,0.095474,207.192,0.132606
289.9000,1.921,207.518,0.137293
289.8000,1.10024,207.611,0.138626
289.7000,1.04986,207.085,0.131075
289.6000,1.53516,207.664,0.13939
289.5000,1.84199,207.963,0.143679
289.4000,1.60815,207.789,0.141178
289.3000,-0.33505,208.138,0.146178
289.2000,1.13953,207.712,0.140073
289.1000,0.167801,208.094,0.145545
289.0000,-0.0804391,208.112,0.145805
288.9000,-0.627722,207.389,0.135439
288.8000,6.8617E-005,207.854,0.14212
288.7000,-0.0558658,207.959,0.143614
288.6000,1.39346,207.834,0.141827
288.5000,1.34439,207.178,0.132411
288.4000,-0.254245,207.518,0.137293
288.3000,1.9967,208.026,0.144571
288.2000,1.43032,207.569,0.138025
288.1000,0.198597,208.369,0.149486
288.0000,-0.156622,207.755,0.14069
287.9000,-0.981735,207.471,0.136626
287.8000,2.57104,207.971,0.143792
287.7000,-0.831052,208.009,0.144328
287.6000,-0.569303,207.823,0.141665
287.5000,1.33491,208.343,0.149113
287.4000,1.25788,208.115,0.145853
287.3000,0.237756,207.655,0.13926
287.2000,0.0406888,208.141,0.146226
287.1000,-0.00503497,207.927,0.143159
287.0000,0.256732,208.069,0.145188
286.9000,0.808829,207.519,0.137309
286.8000,-0.11982,207.836,0.14186
286.7000,0.360941,207.526,0.137407
286.6000,0.145656,208.197,0.147021
286.5000,1.13627,208.088,0.145464
286.4000,0.560512,208.163,0.146535
286.3000,-0.79555,207.645,0.139114
286.2000,0.230989,207.712,0.140073
286.1000,0.417808,208.209,0.1472
286.0000,0.0130413,208.086,0.145432
285.9000,0.133889,208.123,0.145967
285.8000,0.967249,208.447,0.150604
285.7000,0.409802,207.718,0.140171
285.6000,1.50581,208.403,0.149972
285.5000,-0.00322228,208.419,0.150199
285.4000,0.639581,207.014,0.130049
285.3000,0.608138,208.106,0.145724
285.2000,0.77088,208.121,0.145935
285.1000,0.565093,208.107,0.14574
285.0000,0.595865,208.134,0.146129
284.9000,1.06029,207.742,0.140512
284.8000,0.93002,208.09,0.145496
284.7000,-0.461967,207.496,0.136984
284.6000,0.234717,207.748,0.140593
284.5000,-0.0370686,208.407,0.150037
284.4000,0.450099,207,0.129853
284.3000,-0.249232,208.037,0.144734
284.2000,2.25186,208.022,0.144523
284.1000,0.559993,207.986,0.144003
284.0000,0.388128,208.004,0.144263
283.9000,0.325188,208.047,0.14488
283.8000,-0.26502,209.186,0.161153
283.7000,0.653821,208.09,0.145496
283.6000,-1.38213,207.814,0.141535
283.5000,1.78888,207.388,0.135422
283.4000,1.04603,208.302,0.148529
283.3000,0.469503,208.151,0.146372
283.2000,0.518172,207.605,0.138545
283.1000,2.4044,207.436,0.136122
283.0000,-0.908415,207.845,0.14199
282.9000,1.96969,208.676,0.153876
282.8000,-0.682247,208.377,0.149599
282.7000,0.959214,208.797,0.155607
282.6000,1.16692,207.508,0.137147
282.5000,0.585287,208.318,0.148757
282.4000,1.70814,208.671,0.153811
282.3000,0.347949,208.144,0.146275
282.2000,-0.0425739,208.573,0.152402
282.1000,-0.230199,209.16,0.160781
282.0000,0.595716,207.612,0.138643
281.9000,-1.06115,208.786,0.155445
281.8000,1.11259,208.014,0.144409
281.7000,1.14337,208.227,0.147459
281.6000,-0.306496,208.739,0.154782
281.5000,0.354661,208.294,0.148416
281.4000,0.914328,208.712,0.154393
281.3000,1.61484,208.072,0.145237
281.2000,-1.06127,207.935,0.143273
281.1000,0.391697,208.16,0.146502
281.0000,-0.454111,209.004,0.158567
280.9000,-0.437852,207.97,0.143776
280.8000,-0.124334,207.745,0.140544
280.7000,0.817186,208.466,0.15088
280.6000,1.48527,208.515,0.151576
280.5000,1.96133,208.151,0.146372
280.4000,-1.66227,207.717,0.140154
280.3000,0.991674,208.605,0.152855
280.2000,0.652501,208.853,0.1564
280.1000,0.227783,208.407,0.150037
280.0000,1.03732,208.166,0.146583
279.9000,0.325065,208.925,0.157435
279.8000,1.53874,208.053,0.144961
279.7000,0.658421,208.503,0.151398
279.6000,-0.38829,208.3,0.148497
279.5000,1.32778,207.878,0.142461
279.4000,1.77806,208.258,0.147897
279.3000,-0.0258639,208.856,0.156449
279.2000,-1.6151,208.44,0.150507
279.1000,1.15799,208.285,0.148286
279.0000,0.716319,207.667,0.139439
278.9000,0.523927,208.044,0.144831
278.8000,0.409647,208.576,0.152451
278.7000,-0.564463,208.591,0.152661
278.6000,0.951847,208.639,0.153341
278.5000,0.346916,208.302,0.148529
278.4000,1.68928,208.484,0.151139
278.3000,1.73058,208.295,0.148432
278.2000,0.294518,207.978,0.14389
278.1000,-0.578121,208.067,0.145172
278.0000,3.00789,208.159,0.146486
277.9000,-0.1099,208.591,0.152661
277.8000,-0.346922,208.25,0.147784
277.7000,1.60243,208.739,0.154782
277.6000,1.32644,207.819,0.141617
277.5000,0.405998,208.317,0.14874
277.4000,0.400466,208.078,0.145318
277.3000,0.405856,208.165,0.146567
277.2000,-0.0555691,208.422,0.150248
277.1000,-0.72983,208.619,0.153066
277.0000,1.52982,207.961,0.143646
276.9000,1.31398,208.372,0.149534
276.8000,0.209822,208.431,0.150377
276.7000,1.04597,208.091,0.145513
276.6000,0.70461,208.27,0.148075
276.5000,-0.352932,208.109,0.145772
276.4000,-0.244166,208.605,0.152855
276.3000,0.309091,208.394,0.149842
276.2000,0.262195,207.703,0.139943
276.1000,-0.0930955,208.815,0.155866
276.0000,0.341342,208.828,0.156044
275.9000,-0.45313,208.019,0.144474
275.8000,-0.371208,208.844,0.156271
275.7000,1.23757,208.378,0.149615
275.6000,0.261347,208.964,0.157985
275.5000,-0.82057,208.82,0.155931
275.4000,1.45569,207.749,0.140609
275.3000,1.79029,209.05,0.159214
275.2000,2.2151,208.334,0.148983
275.1000,0.860894,207.902,0.142802
275.0000,0.414588,208.901,0.157096
274.9000,1.0341,208.684,0.153989
274.8000,-0.196506,208.58,0.152499
274.7000,0.977989,208.032,0.144669
274.6000,0.594576,208.39,0.149794
274.5000,1.16427,208.5,0.151366
274.4000,1.06188,208.873,0.156691
274.3000,0.874956,208.321,0.148805
274.2000,0.189673,208.259,0.147913
274.1000,0.978181,208.574,0.152418
274.0000,1.10929,208.669,0.153779
273.9000,-0.975118,208.125,0.146
273.8000,0.140575,208.276,0.148156
273.7000,-0.0701347,208.333,0.148967
273.6000,-0.951215,208.214,0.147265
273.5000,0.899523,208.258,0.147897
273.4000,0.841576,208.509,0.151495
273.3000,-0.423696,207.407,0.135699
273.2000,0.00400191,208.167,0.1466
273.1000,-0.83988,208.55,0.152078
273.0000,0.739799,208.019,0.144474
272.9000,-0.845115,208.348,0.149194
272.8000,1.74796,208.706,0.154313
272.7000,0.367115,208.714,0.154426
272.6000,0.0786379,208.135,0.146145
272.5000,-0.319942,208.801,0.155656
272.4000,-0.0754045,209.104,0.159989
272.3000,-1.23178,209.559,0.166465
272.2000,-0.921887,208.506,0.151447
272.1000,0.721296,208.705,0.154296
272.0000,-0.132456,208.334,0.148983
271.9000,0.868981,208.839,0.156206
271.8000,0.0605741,209.313,0.162962
271.7000,2.4084,207.647,0.139147
271.6000,0.545464,209.232,0.161815
271.5000,-1.24356,207.773,0.14095
271.4000,-0.235501,208.424,0.15028
271.3000,0.0270395,208.954,0.15784
271.2000,-0.803083,208.684,0.153989
271.1000,-1.01037,208.121,0.145935
271.0000,0.042257,209.1,0.159925
270.9000,-2.24081,208.675,0.153859
270.8000,0.13867,209.261,0.162219
270.7000,2.27594,208.418,0.150183
270.6000,-0.491342,208.283,0.148254
270.5000,0.697407,208.602,0.152823
270.4000,-0.473621,208.641,0.153374
270.3000,1.32097,209.015,0.158713
270.2000,-0.804007,208.969,0.158066
270.1000,-0.08718,208.567,0.152321
270.0000,-0.00728428,208.28,0.148221
269.9000,0.112549,208.797,0.155607
269.8000,1.11105,208.883,0.156837
269.7000,0.0815358,208.071,0.145221
269.6000,0.967448,209.263,0.162251
269.5000,0.255698,208.844,0.156271
269.4000,1.21859,208.709,0.154345
269.3000,0.945336,207.369,0.135162
269.2000,-0.676972,208.781,0.155381
269.1000,-1.53398,208.376,0.149583
269.0000,-0.43425,209.429,0.164625
268.9000,-1.77968,208.571,0.15237
268.8000,-0.170504,209.128,0.160329
268.7000,0.205013,209.644,0.167674
268.6000,-0.345519,208.687,0.154037
268.5000,1.0954,208.768,0.155187
268.4000,-0.426019,208.916,0.157306
268.3000,0.0648438,208.49,0.15122
268.2000,0.194185,209.244,0.161977
268.1000,1.31799,209.004,0.158567
268.0000,-0.307263,208.679,0.153924
267.9000,-1.24159,208.433,0.15041
267.8000,-0.190246,209.462,0.165093
267.7000,-0.801249,208.644,0.153422
267.6000,-0.0860076,209.504,0.16569
267.5000,0.131555,208.91,0.157225
267.4000,-0.729632,208.889,0.156918
267.3000,-0.771829,209.293,0.162688
267.2000,-0.43176,209.271,0.162365
267.1000,-0.22202,209.776,0.169561
267.0000,-0.580658,209.715,0.16869
266.9000,0.0436149,209.054,0.159279
266.8000,0.991008,209.552,0.166368
266.7000,0.0971776,208.479,0.151058
266.6000,1.30527,209.302,0.162817
266.5000,-1.42724,210.269,0.176565
266.4000,1.84142,208.776,0.1553
266.3000,-0.696171,209.947,0.171994
266.2000,1.67515,208.756,0.155025
266.1000,-0.506078,210.249,0.176276
266.0000,1.17168,209.834,0.170382
265.9000,-0.594727,208.956,0.157872
265.8000,-0.119896,209.833,0.170366
265.7000,0.643071,210.437,0.178946
265.6000,1.42468,209.526,0.165997
265.5000,0.809565,209.466,0.165141
265.4000,0.239378,209.071,0.159521
265.3000,0.0760548,209.775,0.169544
265.2000,-0.329328,209.365,0.163705
265.1000,-1.40943,210.104,0.174216
265.0000,-1.01199,209.204,0.161412
264.9000,0.446661,210.51,0.17999
264.8000,-0.677029,209.595,0.166981
264.7000,1.15647,209.794,0.169818
264.6000,0.620422,210.238,0.176131
264.5000,1.16432,208.974,0.15813
264.4000,1.08359,209.71,0.168625
264.3000,-0.298298,210.061,0.173604
264.2000,0.0766211,210.143,0.174779
264.1000,-0.981736,209.69,0.168335
264.0000,1.0062,210.027,0.173121
263.9000,-0.104533,209.952,0.172058
263.8000,1.10886,210.058,0.173572
263.7000,-0.76504,210.305,0.17708
263.6000,0.00801339,209.744,0.169109
263.5000,1.45959,210.279,0.17671
263.4000,1.87733,210.608,0.181372
263.3000,0.455489,210.31,0.177144
263.2000,0.619631,210.297,0.176967
263.1000,-0.00137391,210.379,0.178125
263.0000,0.576557,210.014,0.172944
262.9000,1.29043,209.837,0.170431
262.8000,0.111366,210.619,0.181533
262.7000,1.5357,210.293,0.176903
262.6000,-0.95684,210.579,0.180971
262.5000,0.036779,210.395,0.178351
262.4000,-0.22139,210.023,0.173073
262.3000,0.0378143,211.149,0.189044
262.2000,1.10476,210.116,0.174393
262.1000,-0.534173,210.582,0.181003
262.0000,0.680103,211.1,0.188338
261.9000,-0.0339586,210.107,0.174264
261.8000,-0.253916,209.872,0.17093
261.7000,-0.139045,211.062,0.187809
261.6000,-0.0738763,210.74,0.183251
261.5000,-0.767936,210.463,0.179315
261.4000,0.990668,210.842,0.184696
261.3000,1.14497,210.585,0.181051
261.2000,1.9388,210.982,0.18667
261.1000,-0.413632,210.413,0.178608
261.0000,-0.714643,210.576,0.180922
260.9000,0.914514,210.754,0.183444
260.8000,0.877869,210.773,0.183717
260.7000,-0.0562501,210.695,0.182609
260.6000,0.706984,210.74,0.183251
260.5000,0.134076,211.216,0.189989
260.4000,-0.0808349,210.741,0.183267
260.3000,-0.360106,210.762,0.183557
260.2000,0.718719,210.569,0.180826
260.1000,-1.49502,210.921,0.185804
260.0000,-1.07672,210.476,0.179508
259.9000,2.19363,211.012,0.187103
259.8000,1.428,210.63,0.181694
259.7000,0.0115881,211.493,0.193898
259.6000,-0.375521,210.359,0.177836
259.5000,-0.201873,211.313,0.191352
259.4000,0.24504,210.87,0.185082
259.3000,0.993789,210.291,0.176871
259.2000,0.722512,211.768,0.197787
259.1000,-1.37979,210.728,0.183075
259.0000,0.491232,211.026,0.187296
258.9000,1.79272,211.08,0.188066
258.8000,0.34206,211.162,0.18922
258.7000,-0.226906,210.94,0.186076
258.6000,0.774306,210.701,0.182689
258.5000,1.3153,210.472,0.179444
258.4000,-1.90506,210.894,0.185435
258.3000,-1.42222,210.76,0.183525
258.2000,-0.450637,211.347,0.191832
258.1000,0.0509041,211.367,0.192121
258.0000,0.92353,212.337,0.205807
257.9000,0.950104,211.499,0.193994
257.8000,-1.72345,211.89,0.199514
257.7000,0.460535,211.838,0.198778
257.6000,0.112151,213.003,0.215178
257.5000,0.125169,211.196,0.189701
257.4000,0.158329,211.941,0.200233
257.3000,-1.07547,212.029,0.201464
257.2000,-0.205539,211.999,0.201048
257.1000,0.589387,212.21,0.204019
257.0000,0.279807,212.093,0.202374
256.9000,-0.614262,211.452,0.193322
256.8000,0.463969,212.007,0.20116
256.7000,0.413772,212.141,0.203045
256.6000,0.384447,212.098,0.202438
256.5000,0.47237,212.029,0.201464
256.4000,0.198194,211.087,0.188162
256.3000,0.0947983,211.967,0.200601
256.2000,-1.9074,212.229,0.20429
256.1000,0.442324,212.389,0.206541
256.0000,-1.13909,212.123,0.202789
255.9000,-1.1099,211.519,0.194267
255.8000,1.09437,211.764,0.197723
255.7000,-0.604353,212.401,0.206716
255.6000,-2.03256,211.348,0.191848
255.5000,-0.138744,212.222,0.204195
255.4000,0.0946257,212.441,0.207275
255.3000,1.36372,212.515,0.208311
255.2000,0.329046,212.73,0.21134
255.1000,0.928765,212.009,0.201192
255.0000,1.68997,212.516,0.208327
254.9000,-0.165785,212.573,0.209125
254.8000,2.10272,212.381,0.206429
254.7000,-0.267414,212.278,0.204977
254.6000,-0.905686,212.578,0.209204
254.5000,-0.020806,211.804,0.198299
254.4000,2.24776,212.371,0.206286
254.3000,-0.494009,213.431,0.22119
254.2000,-2.1386,212.357,0.206094
254.1000,0.0226133,212.401,0.206716
254.0000,1.224,212.677,0.210591
253.9000,-0.825784,212.971,0.214732
253.8000,0.383704,212.239,0.204434
253.7000,-1.63375,213.273,0.218964
253.6000,0.843266,212.126,0.202837
253.5000,-1.05903,212.68,0.210639
253.4000,-1.6596,212.063,0.201943
253.3000,-0.0248471,212.5,0.208104
253.2000,0.471779,212.669,0.21048
253.1000,2.16569,212.818,0.212583
253.0000,-0.168421,212.558,0.208917
252.9000,-0.292827,212.635,0.210002
252.8000,0.471172,213.663,0.22443
252.7000,1.1434,213.124,0.216881
252.6000,-0.618275,213.759,0.22578
252.5000,0.574496,213.003,0.215178
252.4000,-1.54577,213.534,0.222636
252.3000,0.295511,213.166,0.217469
252.2000,-1.61093,213.545,0.222779
252.1000,-0.945677,212.966,0.214653
252.0000,-0.584303,212.217,0.204115
251.9000,-0.518572,213.589,0.223398
251.8000,-1.99297,213.252,0.218678
251.7000,1.06837,214.099,0.230538
251.6000,0.0778164,213.158,0.217358
251.5000,0.402463,213.732,0.225399
251.4000,0.881437,213.413,0.220936
251.3000,1.68993,213.527,0.222525
251.2000,0.673229,213.587,0.223367
251.1000,0.172243,213.299,0.21933
251.0000,2.43126,213.335,0.219839
250.9000,0.215957,213.983,0.228921
250.8000,0.624326,213.488,0.221984
250.7000,0.665513,213.326,0.219712
250.6000,0.708664,213.517,0.222397
250.5000,1.37809,213.847,0.227017
250.4000,-1.93075,213.898,0.227731
250.3000,-0.39297,214.036,0.229666
250.2000,-2.67639,214.374,0.234387
250.1000,0.455376,213.655,0.224319
250.0000,-0.92573,214.221,0.232249
249.9000,-0.304199,214.762,0.239798
249.8000,0.914595,213.788,0.226192
249.7000,0.073692,213.995,0.229079
249.6000,0.645024,214.591,0.23741
249.5000,-0.101136,213.896,0.227699
249.4000,0.0978345,214.157,0.231346
249.3000,0.483338,214.566,0.237062
249.2000,0.208568,214.07,0.230141
249.1000,-1.71331,214.528,0.23654
249.0000,-1.87251,214.568,0.237094
248.9000,0.674355,214.111,0.230712
248.8000,-2.31714,214.295,0.233279
248.7000,-0.812196,213.91,0.22789
248.6000,1.1303,213.431,0.22119
248.5000,-0.967599,214.184,0.231726
248.4000,-0.617269,214.833,0.240794
248.3000,0.0743488,213.474,0.221794
248.2000,-0.228517,214.763,0.239814
248.1000,-1.31508,213.83,0.226779
248.0000,-0.209854,214.137,0.231077
247.9000,0.809768,214.725,0.239292
247.8000,0.0670856,214.764,0.23983
247.7000,-1.4892,214.453,0.235496
247.6000,-1.80669,214.421,0.235036
247.5000,0.220801,214.431,0.235179
247.4000,0.903813,215.223,0.246227
247.3000,0.158288,214.985,0.242911
247.2000,-0.485584,214.85,0.241031
247.1000,-1.87449,215.32,0.247584
247.0000,-1.33285,214.823,0.240652
246.9000,-0.434661,215.098,0.244491
246.8000,-0.31528,215.394,0.24861
246.7000,-2.62713,215.533,0.250549
246.6000,-0.284103,216.126,0.258784
246.5000,0.291008,214.468,0.235701
246.4000,-2.63086,215.656,0.252251
246.3000,-0.242994,215.551,0.250801
246.2000,-1.33508,216.23,0.26023
246.1000,-1.06872,215.619,0.251747
246.0000,-0.748425,215.273,0.246922
245.9000,-1.41846,214.703,0.238976
245.8000,0.79537,214.946,0.242375
245.7000,-1.8049,215.677,0.25255
245.6000,-2.23986,215.664,0.252361
245.5000,-1.65665,215.472,0.249697
245.4000,-1.02044,216.456,0.263358
245.3000,-2.30243,215.99,0.256896
245.2000,-3.29249,215.613,0.251652
245.1000,-1.69563,215.698,0.252834
245.0000,-3.54551,216.25,0.260513
244.9000,-2.81975,216.107,0.258516
244.8000,-0.943309,216.672,0.266357
244.7000,-3.29311,216.424,0.262918
244.6000,-2.29646,215.552,0.250817
244.5000,-1.22813,216.025,0.257384
244.4000,-3.34947,216.371,0.262179
244.3000,-1.97799,216.177,0.259492
244.2000,-1.03739,216.594,0.265273
244.1000,-1.90231,216.686,0.266545
244.0000,-2.77377,216.758,0.267549
243.9000,-2.03911,216.67,0.266325
243.8000,-1.93506,215.939,0.256188
243.7000,-2.36744,217.214,0.273851
243.6000,-2.79084,216.88,0.269243
243.5000,-2.95786,216.408,0.262698
243.4000,-3.55312,217.567,0.278735
243.3000,-3.24906,216.758,0.267549
243.2000,-2.47011,217.248,0.274321
243.1000,-3.55526,217.165,0.273178
243.0000,-7.1111,217.355,0.275809
242.9000,-2.14181,217.088,0.272112
242.8000,-3.33687,217.496,0.277749
242.7000,-4.54556,217.237,0.27418
242.6000,-4.3559,218.017,0.284939
242.5000,-4.19212,217.889,0.283174
242.4000,-6.32612,216.883,0.269275
242.3000,-5.14955,217.881,0.283065
242.2000,-3.7039,217.636,0.279689
242.1000,-4.4016,217.609,0.279313
242.0000,-6.5022,217.946,0.283955
241.9000,-4.26453,218.501,0.291601
241.8000,-4.55267,218.281,0.288576
241.7000,-6.60694,217.628,0.279579
241.6000,-5.3294,218.804,0.295776
241.5000,-4.43939,218.161,0.286922
241.4000,-4.53054,218.176,0.287125
241.3000,-3.76896,219.063,0.299323
241.2000,-5.74066,218.341,0.289402
241.1000,-5.15109,219.645,0.307309
241.0000,-5.74102,219.481,0.305058
240.9000,-7.86957,218.799,0.295698
240.8000,-7.26441,219.264,0.302091
240.7000,-7.768,219.675,0.307713
240.6000,-4.72813,219.315,0.30279
240.5000,-5.31487,219.696,0.308008
240.4000,-8.74772,219.109,0.299961
240.3000,-7.53326,219.062,0.299308
240.2000,-7.82527,218.852,0.296429
240.1000,-7.61477,219.382,0.303707
240.0000,-7.55226,219.465,0.304841
239.9000,-7.32671,220.034,0.312629
239.8000,-8.95541,220.523,0.319317
239.7000,-6.82341,220.269,0.315851
239.6000,-9.80589,220.318,0.316517
239.5000,-8.52436,220.699,0.321714
239.4000,-7.98186,221.084,0.326966
239.3000,-8.98128,220.665,0.32125
239.2000,-11.257,221.339,0.330438
239.1000,-12.6489,221.933,0.33851
239.0000,-9.46907,220.786,0.322904
238.9000,-10.8956,222.076,0.340448
238.8000,-10.7238,221.986,0.339233
238.7000,-8.94194,221.907,0.338156
238.6000,-10.2572,222.027,0.339787
238.5000,-11.0512,222.323,0.3438
238.4000,-11.5391,222.438,0.345367
238.3000,-13.0181,222.631,0.347977
238.2000,-11.9685,222.772,0.349895
238.1000,-13.4637,222.812,0.350431
238.0000,-11.8471,222.93,0.352026
237.9000,-14.746,223.052,0.353681
237.8000,-11.5011,223.038,0.353482
237.7000,-11.0209,223.364,0.357893
237.6000,-13.2643,224.137,0.368317
237.5000,-14.7827,223.932,0.365554
237.4000,-12.7641,223.978,0.36618
237.3000,-13.7141,223.657,0.361855
237.2000,-14.5906,224.309,0.370636
237.1000,-15.6401,225.247,0.383244
237.0000,-14.8041,224.12,0.368088
236.9000,-15.8352,224.422,0.372161
236.8000,-14.321,225.128,0.381648
236.7000,-15.7687,225.039,0.380446
236.6000,-15.7334,225.265,0.383488
236.5000,-17.2984,225.17,0.382211
236.4000,-15.7404,225.211,0.382758
236.3000,-17.4537,225.846,0.391277
236.2000,-15.8763,225.546,0.387255
236.1000,-17.1199,225.943,0.392566
236.0000,-18.3129,227.411,0.412163
235.9000,-16.6891,226.81,0.404147
235.8000,-17.6888,226.517,0.400245
235.7000,-18.6428,226.617,0.401576
235.6000,-18.2321,226.768,0.403587
235.5000,-19.1548,226.863,0.404857
235.4000,-20.705,227.534,0.413792
235.3000,-18.7573,227.367,0.411575
235.2000,-20.7218,227.198,0.409327
235.1000,-20.5405,228.304,0.424028
235.0000,-21.0309,228.396,0.425246
234.9000,-20.7863,227.967,0.419561
234.8000,-21.6204,228.429,0.425681
234.7000,-20.2865,228.462,0.426117
234.6000,-23.0018,229.638,0.441679
234.5000,-23.9373,228.394,0.425216
234.4000,-22.3223,229.711,0.442651
234.3000,-23.7825,229.459,0.439315
234.2000,-25.7761,229.285,0.437024
234.1000,-22.7467,230.376,0.45142
234.0000,-25.2732,229.876,0.44482
233.9000,-25.776,229.967,0.44603
233.8000,-26.6325,230.194,0.449017
233.7000,-23.6384,230.729,0.456058
233.6000,-25.6208,231.353,0.46426
233.5000,-26.9349,230.895,0.458248
233.4000,-27.9751,231.625,0.467827
233.3000,-27.9425,231.877,0.471123
233.2000,-26.3158,231.834,0.470559
233.1000,-28.8646,231.747,0.46943
233.0000,-27.9221,231.832,0.470544
232.9000,-29.9448,232.482,0.479039
232.8000,-29.4678,232.732,0.482311
232.7000,-28.8727,232.502,0.479306
232.6000,-30.2757,233.415,0.491222
232.5000,-31.9076,233.168,0.488003
232.4000,-31.1986,233.91,0.497666
232.3000,-32.065,233.652,0.494305
232.2000,-32.7792,234.499,0.505306
232.1000,-32.866,234.097,0.500097
232.0000,-33.231,235.156,0.513824
231.9000,-34.1862,235.139,0.513604
231.8000,-31.6832,235.302,0.515716
231.7000,-32.9862,235.015,0.512005
231.6000,-33.8894,235.387,0.516816
231.5000,-34.461,235.717,0.521079
231.4000,-34.8529,235.506,0.518354
231.3000,-35.5113,235.213,0.514572
231.2000,-39.2191,236.22,0.527574
231.1000,-35.5578,236.326,0.528947
231.0000,-35.7622,236.165,0.526872
230.9000,-34.9052,237.139,0.539407
230.8000,-36.9764,237.432,0.543179
230.7000,-37.4095,236.522,0.531474
230.6000,-39.5215,236.709,0.533882
230.5000,-39.9496,237.46,0.543543
230.4000,-41.2845,237.659,0.546088
230.3000,-38.1282,238.023,0.550768
230.2000,-39.8929,237.814,0.54808
230.1000,-40.1261,238.6,0.558153
230.0000,-43.081,238.4,0.555587
229.9000,-38.8868,238.447,0.556196
229.8000,-39.6875,239.323,0.567389
229.7000,-42.4254,238.853,0.561384
229.6000,-43.2018,239.07,0.564164
229.5000,-42.448,238.787,0.560544
229.4000,-44.2151,239.291,0.566984
229.3000,-45.0557,239.985,0.575823
229.2000,-43.3485,240.121,0.577554
229.1000,-43.0299,239.665,0.571753
229.0000,-43.9385,240.787,0.586022
228.9000,-46.4611,240.62,0.583907
228.8000,-44.473,240.676,0.584612
228.7000,-43.3631,241.824,0.599162
228.6000,-46.282,241.511,0.595204
228.5000,-44.1076,242.022,0.60167
228.4000,-44.5997,243.098,0.615254
228.3000,-47.4859,242.747,0.610826
228.2000,-47.4589,243.222,0.616809
228.1000,-47.726,243.115,0.615468
228.0000,-48.5156,243.228,0.61688
227.9000,-49.752,243.885,0.625145
227.8000,-46.4619,244.496,0.63281
227.7000,-46.9779,244.064,0.627394
227.6000,-50.4479,244.383,0.631403
227.5000,-49.4163,244.917,0.63809
227.4000,-50.9332,245.271,0.642513
227.3000,-49.6732,245.186,0.64145
227.2000,-51.2161,245.276,0.642584
227.1000,-49.8483,245.795,0.649067
227.0000,-52.8354,245.054,0.639806
226.9000,-50.3802,246.064,0.652417
226.8000,-51.2853,247.032,0.664479
226.7000,-51.371,246.621,0.659363
226.6000,-52.5001,246.988,0.66393
226.5000,-56.1896,247.383,0.668828
226.4000,-55.6735,247.31,0.667928
226.3000,-53.2225,246.95,0.663451
226.2000,-53.4572,247.703,0.672808
226.1000,-57.3195,248.111,0.677863
226.0000,-54.0849,248.005,0.676544
225.9000,-56.2459,248.183,0.678747
225.8000,-56.3777,248.018,0.676712
225.7000,-58.3109,248.543,0.683206
225.6000,-51.7606,248.603,0.683948
225.5000,-54.1625,249.029,0.689213
225.4000,-57.6508,249.334,0.692974
225.3000,-55.5478,249.469,0.694637
225.2000,-55.4322,249.858,0.69944
225.1000,-55.0582,250.152,0.703052
225.0000,-56.8713,250.681,0.709555
224.9000,-56.4963,250.945,0.712796
224.8000,-57.0507,250.56,0.708066
224.7000,-56.3726,251.522,0.719865
224.6000,-55.1549,252.043,0.726243
224.5000,-56.2229,252.015,0.725896
224.4000,-57.064,251.637,0.72128
224.3000,-56.3509,252.035,0.726145
224.2000,-56.1366,252.231,0.728541
224.1000,-55.6767,252.9,0.7367
224.0000,-58.8296,253.268,0.741186
223.9000,-57.6271,252.779,0.735235
223.8000,-57.5563,252.828,0.735829
223.7000,-54.885,253.215,0.740538
223.6000,-58.4339,254.137,0.751753
223.5000,-56.8246,253.935,0.749304
223.4000,-57.357,254.454,0.755603
223.3000,-59.312,254.186,0.752345
223.2000,-60.7338,254.243,0.753046
223.1000,-59.0811,255.007,0.762304
223.0000,-60.971,255.782,0.771675
222.9000,-59.328,255.009,0.762331
222.8000,-58.6602,255.645,0.770019
222.7000,-58.9503,256.548,0.780914
222.6000,-60.1378,256.576,0.781255
222.5000,-60.1595,256.865,0.784734
222.4000,-55.6824,256.682,0.782524
222.3000,-58.3879,256.009,0.774411
222.2000,-60.2443,257.663,0.794322
222.1000,-55.7545,257.445,0.791709
222.0000,-57.9492,258.394,0.803084
221.9000,-55.5426,257.596,0.793519
221.8000,-61.8906,258.432,0.803545
221.7000,-57.5385,258.143,0.800084
221.6000,-57.1239,258.424,0.80345
221.5000,-59.4795,258.865,0.808725
221.4000,-64.6692,259.41,0.815236
221.3000,-54.8896,259.721,0.81894
221.2000,-55.9978,260.019,0.822492
221.1000,-59.7437,260.261,0.825379
221.0000,-57.7216,260.615,0.829585
220.9000,-56.2285,260.71,0.830717
220.8000,-58.3536,260.586,0.829248
220.7000,-57.3052,260.979,0.833921
220.6000,-60.0571,261.011,0.834298
220.5000,-54.9357,261.924,0.845128
220.4000,-59.0607,261.937,0.845275
220.3000,-58.7531,262.139,0.847663
220.2000,-53.6699,262.296,0.849526
220.1000,-58.6076,262.94,0.85713
220.0000,-58.7666,262.529,0.852286
219.9000,-57.7347,262.908,0.856756
219.8000,-60.2585,263.649,0.865493
219.7000,-55.4427,263.936,0.868868
219.6000,-59.0135,264.007,0.869708
219.5000,-54.8388,263.453,0.863184
219.4000,-56.3582,265.283,0.884687
219.3000,-59.9949,264.793,0.878947
219.2000,-59.0942,265.087,0.882389
219.1000,-56.044,265.298,0.884859
219.0000,-57.1122,265.335,0.885298
218.9000,-58.5173,265.627,0.888721
218.8000,-60.4477,265.858,0.891425
218.7000,-55.9701,266.443,0.898257
218.6000,-55.6923,265.874,0.891611
218.5000,-56.5793,267.3,0.908244
218.4000,-60.2456,267.216,0.907268
218.3000,-56.0704,267.568,0.91137
218.2000,-56.9159,267.053,0.905367
218.1000,-56.5274,268.582,0.923149
218.0000,-54.7635,267.926,0.915533
217.9000,-54.2166,268.87,0.926485
217.8000,-57.0847,268.26,0.919415
217.7000,-56.9832,268.483,0.921992
217.6000,-58.9291,269.518,0.933988
217.5000,-54.1528,269.668,0.935717
217.4000,-60.2458,269.988,0.939421
217.3000,-59.1486,270.29,0.9429
217.2000,-56.4924,271.025,0.951374
217.1000,-55.8905,271.004,0.951126
217.0000,-56.9902,270.989,0.950957
216.9000,-53.7985,271.434,0.956079
216.8000,-56.0524,272.196,0.964823
216.7000,-55.1256,271.907,0.961507
216.6000,-52.1942,272.233,0.965251
216.5000,-55.0948,272.648,0.970004
216.4000,-57.6971,272.428,0.967486
216.3000,-56.3257,273.681,0.981821
216.2000,-52.1216,273.865,0.983917
216.1000,-58.2614,273.754,0.982649
216.0000,-53.9027,273.87,0.983981
215.9000,-54.1686,273.967,0.98508
215.8000,-56.1017,273.691,0.981938
215.7000,-55.4465,273.843,0.983671
215.6000,-53.8803,274.569,0.99195
215.5000,-55.8626,275.18,0.998898
215.4000,-55.3898,275.426,1.00169
215.3000,-54.1726,275.338,1.00069
215.2000,-54.3521,275.909,1.00717
215.1000,-54.4722,276.457,1.01338
215.0000,-56.3585,276.989,1.0194
214.9000,-53.6724,277.569,1.02595
214.8000,-51.2506,277.887,1.02954
214.7000,-55.4902,278.536,1.03685
214.6000,-51.8206,278.44,1.03577
214.5000,-55.2829,278.136,1.03235
214.4000,-49.4187,278.894,1.04088
214.3000,-48.4462,278.627,1.03787
214.2000,-55.5896,279.175,1.04404
214.1000,-58.5831,279.831,1.0514
214.0000,-54.5824,279.993,1.05321
213.9000,-56.0985,280.029,1.05361
213.8000,-53.089,280.097,1.05437
213.7000,-54.9358,281.639,1.0716
213.6000,-53.9754,281.082,1.06539
213.5000,-53.53,281.787,1.07325
213.4000,-55.1092,281.737,1.0727
213.3000,-52.2337,282.914,1.0858
213.2000,-53.1655,282.45,1.08063
213.1000,-52.2199,282.452,1.08066
213.0000,-50.7291,283.734,1.09489
212.9000,-54.3537,283.435,1.09157
212.8000,-54.8185,284.152,1.09952
212.7000,-52.4663,283.639,1.09383
212.6000,-56.635,285.268,1.11185
212.5000,-53.8894,285.279,1.11197
212.4000,-54.6174,285.27,1.11187
212.3000,-54.829,286.221,1.12234
212.2000,-53.2837,286.569,1.12617
212.1000,-53.0146,286.868,1.12945
212.0000,-55.3766,286.972,1.1306
211.9000,-53.2419,287.756,1.13919
211.8000,-57.8294,288.652,1.149
211.7000,-50.778,288.88,1.15148
211.6000,-48.2826,288.95,1.15225
211.5000,-53.4027,289.458,1.15779
211.4000,-59.7982,289.915,1.16276
211.3000,-55.0283,290.234,1.16624
211.2000,-55.2589,291.022,1.17479
211.1000,-57.5464,290.699,1.17128
211.0000,-54.112,291.987,1.18525
210.9000,-49.0466,292.135,1.18685
210.8000,-58.5299,291.826,1.18351
210.7000,-52.6443,292.742,1.1934
210.6000,-53.3728,292.798,1.19401
210.5000,-50.1819,293.93,1.20621
210.4000,-54.748,294.498,1.21232
210.3000,-52.4211,294.634,1.21378
210.2000,-52.62,295.15,1.21932
210.1000,-50.9691,295.98,1.2282
210.0000,-56.5854,295.599,1.22413
209.9000,-50.6853,296.347,1.23213
209.8000,-52.947,297.457,1.24398
209.7000,-58.9114,298.324,1.2532
209.6000,-50.9573,297.67,1.24625
209.5000,-59.0904,299.128,1.26173
209.4000,-56.4999,299.809,1.26894
209.3000,-55.5308,299.788,1.26873
209.2000,-50.2815,301.326,1.28496
209.1000,-52.3861,301.786,1.28981
209.0000,-55.9307,301.911,1.29113
208.9000,-53.0845,302.888,1.3014
208.8000,-52.7342,302.585,1.29821
208.7000,-53.2688,303.721,1.31013
208.6000,-51.2094,304.78,1.3212
208.5000,-54.691,303.949,1.31251
208.4000,-55.0193,304.68,1.32015
208.3000,-48.2052,305.413,1.3278
208.2000,-51.6694,306.206,1.33605
208.1000,-48.5588,307.564,1.35015
208.0000,-48.2551,308.02,1.35487
207.9000,-56.5671,309.503,1.37019
207.8000,-48.072,309.727,1.3725
207.7000,-62.3109,309.732,1.37255
207.6000,-53.1029,310.111,1.37645
207.5000,-47.1466,311.724,1.39301
207.4000,-47.2628,311.941,1.39524
207.3000,-50.9599,312.875,1.40478
207.2000,-50.2193,313.25,1.40861
207.1000,-44.4345,313.301,1.40913
207.0000,-45.1841,314.629,1.42266
206.9000,-47.8141,315.685,1.43338
206.8000,-44.0532,315.882,1.43538
206.7000,-46.3484,315.877,1.43532
206.6000,-42.3999,317.777,1.45452
206.5000,-42.333,317.829,1.45505
206.4000,-35.8372,318.578,1.46259
206.3000,-38.6864,320.085,1.47772
206.2000,-40.6405,320.85,1.48538
206.1000,-37.6146,321.436,1.49125
206.0000,-46.1897,321.674,1.49362
205.9000,-42.8027,322.83,1.50514
205.8000,-35.4682,323.819,1.51497
205.7000,-33.0927,324.495,1.52166
205.6000,-30.6182,324.916,1.52584
205.5000,-38.4714,325.809,1.53466
205.4000,-39.998,326.641,1.54287
205.3000,-38.7264,327.606,1.55237
205.2000,-32.7891,328.45,1.56065
205.1000,-29.2437,329.316,1.56913
205.0000,-29.1481,330.22,1.57797
204.9000,-32.3313,330.866,1.58427
204.8000,-36.951,331.577,1.5912
204.7000,-28.7138,331.733,1.59271
204.6000,-27.0545,333.404,1.60893
204.5000,-23.0352,334.187,1.61651
204.4000,-26.8817,335.968,1.63369
204.3000,-17.6544,336.745,1.64116
204.2000,-17.4662,337.064,1.64422
204.1000,-18.781,337.688,1.65021
204.0000,-19.0473,338.229,1.65538
203.9000,-23.1448,339.665,1.66911
203.8000,-16.8214,341.809,1.6895
203.7000,-19.6797,342.309,1.69423
203.6000,-13.3893,342.952,1.70033
203.5000,-28.6403,344.048,1.71068
203.4000,-6.53514,344.76,1.71738
203.3000,-18.1082,344.628,1.71615
203.2000,-19.3949,346.495,1.7337
203.1000,-14.5801,347.319,1.74142
203.0000,-7.31847,348.299,1.75058
202.9000,-4.48748,348.986,1.75699
202.8000,-16.4296,350.664,1.7726
202.7000,-8.97606,350.094,1.7673
202.6000,-4.98016,351.904,1.78409
202.5000,-10.1456,352.173,1.78659
202.4000,-2.72744,353.439,1.79828
202.3000,-11.0726,354.416,1.80728
202.2000,-7.22816,355.469,1.81696
202.1000,-1.88741,356.209,1.82375
202.0000,-13.375,357.373,1.8344
201.9000,-10.7007,358.227,1.8422
201.8000,-3.33816,359.118,1.85031
201.7000,-1.60005,360.564,1.86345
201.6000,-1.32822,361.698,1.87372
201.5000,1.04213,361.776,1.87443
201.4000,-1.9628,362.415,1.8802
201.3000,5.79657,363.827,1.89293
201.2000,3.96698,364.562,1.89955
201.1000,-0.62329,365.667,1.90947
201.0000,6.6959,366.639,1.91817
200.9000,4.41727,367.83,1.92881
200.8000,2.26127,368.367,1.9336
200.7000,10.0583,369.072,1.93987
200.6000,14.1943,369.985,1.94799
200.5000,-2.39241,370.301,1.95079
200.4000,4.36125,371.521,1.9616
200.3000,12.4514,372.204,1.96763
200.2000,15.0064,373.059,1.97518
200.1000,7.28627,375.259,1.99453
200.0000,11.8472,374.299,1.98609
199.9000,19.1704,375.716,1.99853
199.8000,10.4085,377.104,2.01067
199.7000,13.9747,377.732,2.01615
199.6000,9.74798,377.299,2.01238
199.5000,11.1224,379.429,2.03093
199.4000,7.33528,379.307,2.02987
199.3000,17.5406,380.892,2.04363
199.2000,9.61551,380.329,2.03874
199.1000,11.1627,382.346,2.0562
199.0000,11.6073,381.301,2.04717
198.9000,-1.20491,383.311,2.06453
198.8000,10.4809,383.3,2.06443
198.7000,11.3611,384.216,2.07232
198.6000,12.2526,384.102,2.07134
198.5000,3.27464,385.713,2.08517
198.4000,-3.76844,386.464,2.09161
198.3000,21.3016,387.569,2.10105
198.2000,11.2148,387.265,2.09845
198.1000,17.2773,388.176,2.10623
198.0000,11.5549,388.499,2.10898
197.9000,23.3662,388.616,2.10998
197.8000,19.3399,389.643,2.11871
197.7000,23.6604,390.231,2.12371
197.6000,10.246,390.248,2.12385
197.5000,9.20031,390.052,2.12219
197.4000,16.9935,391.091,2.131
197.3000,10.4427,391.401,2.13363
197.2000,14.8125,392.112,2.13964
197.1000,9.49754,393.461,2.15103
197.0000,11.7222,393.823,2.15408
196.9000,12.6429,394.337,2.15841
196.8000,16.4314,394.194,2.15721
196.7000,22.6898,393.842,2.15424
196.6000,13.6005,395.291,2.16643
196.5000,14.7133,395.467,2.1679
196.4000,-0.999126,395.147,2.16522
196.3000,1.61036,395.979,2.1722
196.2000,15.9034,395.868,2.17127
196.1000,3.9833,397.103,2.18161
196.0000,4.38156,397.232,2.18269
195.9000,11.7404,397.596,2.18573
195.8000,11.6035,398.221,2.19095
195.7000,18.7273,397.956,2.18874
195.6000,16.2873,398.411,2.19254
195.5000,7.60003,398.529,2.19353
195.4000,13.7097,399.293,2.19989
195.3000,-1.44901,398.916,2.19675
195.2000,8.70901,399.382,2.20063
195.1000,13.1385,399.527,2.20184
195.0000,9.97208,399.779,2.20393
194.9000,13.6961,399.743,2.20363
194.8000,-4.42914,399.755,2.20374
194.7000,12.2134,400.162,2.20712
194.6000,8.3378,400.469,2.20967
194.5000,-4.13974,400.717,2.21173
194.4000,10.0604,400.803,2.21245
194.3000,11.5537,400.824,2.21261
194.2000,12.9062,400.567,2.21048
194.1000,9.45787,401.335,2.21685
194.0000,4.5524,400.957,2.21372
193.9000,4.57529,401.935,2.22183
193.8000,11.2499,401.778,2.22052
193.7000,6.92262,401.694,2.21983
193.6000,0.559009,401.96,2.22204
193.5000,7.97104,402.534,2.22678
193.4000,3.16023,402.524,2.2267
193.3000,10.5224,401.892,2.22147
193.2000,-8.99215,402.547,2.22689
193.1000,11.8249,402.581,2.22717
193.0000,11.8207,402.974,2.23042
192.9000,-6.16472,402.476,2.2263
192.8000,2.7656,403.188,2.23219
192.7000,4.38139,403.787,2.23713
192.6000,0.114555,403.45,2.23435
192.5000,3.3451,403.463,2.23446
192.4000,11.6019,403.949,2.23847
192.3000,0.709908,403.485,2.23464
192.2000,6.54698,403.644,2.23595
192.1000,7.00165,403.809,2.23732
192.0000,5.98853,403.611,2.23568
191.9000,21.4901,403.784,2.23711
191.8000,12.6264,403.429,2.23417
191.7000,1.98703,403.701,2.23642
191.6000,7.83238,404.861,2.24598
191.5000,-7.5403,404.08,2.23955
191.4000,14.5045,403.651,2.23601
191.3000,9.84476,405.152,2.24837
191.2000,1.23085,404.076,2.23951
191.1000,-3.15074,404.487,2.2429
191.0000,9.2009,403.912,2.23817
190.9000,-5.27756,404.616,2.24396
190.8000,4.1441,403.977,2.2387
190.7000,0.957405,404.043,2.23924
190.6000,4.91179,405.036,2.24742
190.5000,17.3528,404.388,2.24209
190.4000,1.74788,405.544,2.2516
190.3000,5.94608,405.222,2.24895
190.2000,8.25517,404.68,2.24449
190.1000,2.7984,404.615,2.24396
190.0000,12.1441,404.558,2.24349

##### Extended Information
[Comments]
Sample name,LW+MB buffer and protein
Comment,Buffer and protein
User,Leah Whitehouse and Micheal Boden
Division
Company,Saint Mary's College

[Detailed Information]
Creation date,9/29/2022 2:11 PM

Data array type,Linear data array * 3
Horizontal axis,Wavelength [nm]
Vertical axis(1),CD [mdeg]
Vertical axis(2),HT [V]
Vertical axis(3),Abs
Start,320 nm
End,190 nm
Data interval,0.1 nm
Data points,1301    

[Measurement Information]
Instrument name,J-1500
Model name,J-1500
Serial No.,B051061638

Detector,PM-539
Detector S/N,B051061638
  Lock-in amp.,X mode
  HT volt,Auto

Accessory,PTC-517
Accessory S/N,B026561646
  Temperature,22.64 C
  Control sensor,Holder
  Monitor sensor,Holder

Measurement date,9/29/2022 2:10 PM

CD Overload detect,942
Photometric mode,CD, HT, Abs
Measure range,320 - 190 nm
Data pitch,0.1 nm
CD scale,20 mdeg/0.05 dOD
FL scale,20 mdeg/0.05 dOD
D.I.T.,8 msec
Bandwidth,2.00 nm
Start mode,Immediately
Scanning mode,Continuous
Scanning speed,200 nm/min
Baseline correction,None
Shutter control,Auto
No. of cycle,1/1
N2 Flowmeter,Manual

Solvent,NaPO4 buffer

