TITLE,LW+MB Protein and additive
DATA TYPE,
ORIGIN,JASCO
OWNER,
DATE,22/09/29
TIME,15:20:03
SPECTROMETER/DATA SYSTEM,
LOCALE,1033
RESOLUTION,
DELTAX,-0.1
XUNITS,NANOMETERS
YUNITS,CD [mdeg]
Y2UNITS,HT [V]
Y3UNITS,ABSORBANCE
FIRSTX,  320.0000
LASTX,  190.0000
NPOINTS,    1301
FIRSTY,     0.92737
MAXY,    39.94255
MINY,   -88.06954
XYDATA
320.0000,0.927371,209.642,0.167658
319.9000,2.18355,207.986,0.144003
319.8000,0.492184,208.302,0.148529
319.7000,1.13762,208.418,0.150183
319.6000,1.19194,208.256,0.147865
319.5000,-0.227345,208.508,0.151479
319.4000,1.82086,209.116,0.160151
319.3000,2.48001,209.086,0.159731
319.2000,2.25016,207.601,0.13848
319.1000,-0.564346,208.48,0.151074
319.0000,0.941211,209.282,0.162526
318.9000,0.72615,209.227,0.161735
318.8000,-0.56774,209.823,0.170221
318.7000,1.23073,207.854,0.14212
318.6000,1.7874,208.761,0.15509
318.5000,1.98494,208.89,0.156934
318.4000,1.25598,209.283,0.162542
318.3000,1.11015,207.946,0.143435
318.2000,2.60204,209.234,0.161848
318.1000,1.29034,209.82,0.170189
318.0000,0.550838,208.302,0.148529
317.9000,0.711917,208.904,0.157128
317.8000,-0.37151,208.069,0.145188
317.7000,1.17556,208.751,0.154944
317.6000,0.0594004,208.977,0.158179
317.5000,1.43264,209.267,0.162316
317.4000,0.787347,208.665,0.153714
317.3000,0.121758,208.29,0.148351
317.2000,1.50917,208.639,0.153341
317.1000,0.772688,208.176,0.14673
317.0000,3.17412,208.971,0.158082
316.9000,1.9219,209.233,0.161831
316.8000,1.0462,208.555,0.152143
316.7000,-0.105855,208.927,0.157468
316.6000,0.764757,208.418,0.150183
316.5000,0.347631,208.772,0.155251
316.4000,-0.526095,208.967,0.158034
316.3000,1.4454,208.65,0.153503
316.2000,1.72679,208.845,0.156287
316.1000,-0.276343,208.191,0.14694
316.0000,-0.529587,208.163,0.146535
315.9000,1.3448,209.07,0.159505
315.8000,1.08547,209.255,0.162138
315.7000,0.0389536,208.368,0.149469
315.6000,1.11383,208.658,0.153617
315.5000,0.26056,207.93,0.143208
315.4000,1.44214,207.11,0.131434
315.3000,-0.661226,208.37,0.149502
315.2000,0.275659,208.874,0.156707
315.1000,0.787522,208.557,0.152175
315.0000,-0.573718,209.031,0.158939
314.9000,-0.345696,208.442,0.150539
314.8000,1.00774,208.72,0.154507
314.7000,2.15319,208.197,0.147021
314.6000,0.864675,207.951,0.1435
314.5000,0.326822,209.006,0.158583
314.4000,1.04665,208.25,0.147784
314.3000,1.38119,207.826,0.141714
314.2000,1.9063,207.755,0.14069
314.1000,1.88267,207.312,0.134332
314.0000,0.418258,208.325,0.148854
313.9000,0.817226,207.562,0.137927
313.8000,0.309564,209.181,0.161088
313.7000,1.58384,207.588,0.138301
313.6000,0.474655,207.179,0.132427
313.5000,0.976739,209.301,0.1628
313.4000,1.58857,208.592,0.152677
313.3000,2.49115,207.124,0.131629
313.2000,0.806711,208.574,0.152418
313.1000,1.10128,208.537,0.151884
313.0000,0.905657,207.213,0.132916
312.9000,0.544394,208.063,0.145107
312.8000,0.443731,206.185,0.118117
312.7000,-0.0567386,207.711,0.140057
312.6000,0.534686,206.57,0.123656
312.5000,1.77337,207.743,0.140528
312.4000,0.68797,207.595,0.138399
312.3000,-0.826958,208.422,0.150248
312.2000,-0.157314,208.041,0.144799
312.1000,1.60455,207.779,0.141031
312.0000,1.60855,208.224,0.147411
311.9000,0.930007,207.959,0.143614
311.8000,1.42573,208.148,0.146324
311.7000,2.42249,207.749,0.140609
311.6000,3.08961,207.453,0.136366
311.5000,1.20266,208.959,0.15792
311.4000,2.50742,207.498,0.137
311.3000,1.28466,208.02,0.14449
311.2000,-0.0133242,208.28,0.148221
311.1000,-0.212155,208.115,0.145853
311.0000,1.43557,207.595,0.138399
310.9000,0.50236,208.428,0.150329
310.8000,0.559725,208.329,0.148919
310.7000,0.995758,208.345,0.149145
310.6000,0.356609,208.649,0.153487
310.5000,0.304629,208.678,0.153908
310.4000,0.672641,207.876,0.142429
310.3000,1.67382,208.287,0.148319
310.2000,0.907026,208.04,0.144783
310.1000,1.10687,208.881,0.156804
310.0000,-0.420767,208.727,0.154604
309.9000,2.38513,208.495,0.151285
309.8000,0.548293,207.806,0.141421
309.7000,-0.123713,208.137,0.146162
309.6000,1.15316,207.1,0.131287
309.5000,1.15084,208.514,0.15156
309.4000,1.91794,208.538,0.1519
309.3000,0.657007,207.762,0.140788
309.2000,1.05097,208.079,0.145334
309.1000,1.27966,207.597,0.138431
309.0000,1.35314,208.582,0.152532
308.9000,1.19957,208.464,0.150847
308.8000,-0.295317,208.9,0.157079
308.7000,1.17368,208.461,0.150798
308.6000,-0.536321,208.981,0.158228
308.5000,1.16499,207.944,0.143403
308.4000,2.67764,207.476,0.136691
308.3000,2.91667,207.58,0.138187
308.2000,1.87736,207.287,0.133974
308.1000,1.64287,208.112,0.145805
308.0000,0.927113,209.271,0.162365
307.9000,0.644481,207.79,0.141194
307.8000,1.0861,208.939,0.157629
307.7000,1.17253,208.58,0.152499
307.6000,1.43779,208.232,0.147524
307.5000,1.58966,207.052,0.130603
307.4000,2.39084,207.272,0.133762
307.3000,0.611337,209.117,0.160168
307.2000,-0.100402,207.484,0.136805
307.1000,3.26227,208.605,0.152855
307.0000,-1.13027,208.096,0.145577
306.9000,3.18422,207.767,0.140869
306.8000,-0.0409003,207.849,0.142039
306.7000,1.17434,208.798,0.155623
306.6000,2.34394,208.06,0.145058
306.5000,1.73092,207.511,0.137195
306.4000,0.184629,207.496,0.136984
306.3000,0.257176,208.753,0.154976
306.2000,3.07574,206.742,0.126136
306.1000,1.74817,208.753,0.154976
306.0000,2.22468,208.969,0.158066
305.9000,1.83388,206.632,0.124553
305.8000,0.533147,207.89,0.142623
305.7000,-0.862392,207.671,0.139488
305.6000,0.504959,208.904,0.157128
305.5000,2.09107,209.323,0.163107
305.4000,0.660443,208.847,0.156319
305.3000,-0.287773,206.845,0.12762
305.2000,-0.0588484,209.654,0.167819
305.1000,1.63702,209.029,0.158923
305.0000,1.00914,208.114,0.145837
304.9000,1.16165,208.175,0.146713
304.8000,0.716208,208.001,0.144215
304.7000,0.243006,207.58,0.138187
304.6000,0.778604,207.948,0.143468
304.5000,1.19709,209.76,0.169335
304.4000,0.322367,207.4,0.135602
304.3000,1.33385,209.233,0.161831
304.2000,1.29265,207.917,0.143013
304.1000,1.7265,208.009,0.144328
304.0000,2.66802,208.263,0.147978
303.9000,0.18725,208.612,0.152969
303.8000,-0.0395295,208.361,0.149372
303.7000,0.35313,207.026,0.130228
303.6000,1.82092,208.466,0.15088
303.5000,1.58351,208.543,0.151981
303.4000,0.301523,207.894,0.142688
303.3000,0.369926,207.534,0.137521
303.2000,1.33813,207.232,0.133193
303.1000,1.71016,208.173,0.146681
303.0000,-0.0517894,208.704,0.15428
302.9000,1.0634,209.845,0.170544
302.8000,1.93335,207.606,0.138561
302.7000,0.205756,207.925,0.143127
302.6000,1.10971,208.27,0.148075
302.5000,1.39309,208.552,0.152111
302.4000,0.541638,208.266,0.14801
302.3000,0.755934,208.074,0.145269
302.2000,-0.152043,208.531,0.151803
302.1000,0.843057,207.527,0.137423
302.0000,0.28486,208.149,0.14634
301.9000,0.916537,208.455,0.150717
301.8000,0.598334,209.002,0.158535
301.7000,1.05477,207.154,0.132069
301.6000,1.57356,206.824,0.127327
301.5000,0.830424,207.198,0.132704
301.4000,-0.225541,209.059,0.159343
301.3000,1.03685,207.896,0.142721
301.2000,0.441094,207.299,0.134153
301.1000,1.08987,208.065,0.145139
301.0000,0.799075,208.226,0.147443
300.9000,0.868736,206.845,0.12762
300.8000,1.76585,207.349,0.134869
300.7000,2.01359,207.099,0.131271
300.6000,0.456182,207.824,0.141681
300.5000,1.27642,206.635,0.124602
300.4000,0.532828,207.735,0.140414
300.3000,0.768456,209.331,0.16322
300.2000,2.51843,207.917,0.143013
300.1000,1.37944,208.453,0.150685
300.0000,0.389935,207.139,0.131857
299.9000,0.220935,208.175,0.146713
299.8000,0.715225,206.286,0.119572
299.7000,0.48496,208.282,0.148238
299.6000,-0.0114029,208.657,0.1536
299.5000,1.14555,207.999,0.144198
299.4000,1.10689,208.185,0.146859
299.3000,0.967419,207.095,0.131222
299.2000,0.571392,207.273,0.133779
299.1000,1.71553,207.852,0.142087
299.0000,-0.38675,207.599,0.138464
298.9000,0.904239,207.144,0.131922
298.8000,1.0712,207.797,0.141292
298.7000,1.81653,205.782,0.112293
298.6000,1.29873,207.005,0.129919
298.5000,0.368317,207.595,0.138399
298.4000,-0.0251598,208.348,0.149194
298.3000,-0.147978,208.054,0.144977
298.2000,0.870155,207.545,0.137683
298.1000,1.60083,207.861,0.142217
298.0000,0.527154,207.45,0.136317
297.9000,1.79542,207.799,0.141324
297.8000,0.564856,207.85,0.142055
297.7000,2.62475,208.133,0.146113
297.6000,0.891462,207.897,0.142737
297.5000,0.487585,206.312,0.119948
297.4000,0.324136,209.027,0.158891
297.3000,-0.30251,207.737,0.14043
297.2000,0.543474,207.759,0.140755
297.1000,1.58407,208.006,0.144296
297.0000,1.21245,206.156,0.117692
296.9000,1.15803,207.646,0.13913
296.8000,0.988999,207.594,0.138383
296.7000,-0.592841,207.563,0.137943
296.6000,0.105061,209.627,0.167432
296.5000,1.53556,207.221,0.13303
296.4000,0.718976,208.804,0.155704
296.3000,1.75723,205.706,0.111195
296.2000,-0.931054,208.109,0.145772
296.1000,1.41742,206.87,0.127979
296.0000,0.743793,207.579,0.138171
295.9000,0.91239,208.917,0.157322
295.8000,1.48765,207.59,0.138334
295.7000,1.02733,207.073,0.130896
295.6000,0.438555,208.376,0.149583
295.5000,0.966897,207.973,0.143825
295.4000,0.620457,207.51,0.137179
295.3000,1.51182,206.988,0.129674
295.2000,1.84816,208.68,0.15394
295.1000,1.18255,206.436,0.121729
295.0000,0.983845,208.137,0.146162
294.9000,0.315991,208.186,0.146875
294.8000,1.28909,206.813,0.127164
294.7000,0.67456,207.176,0.132378
294.6000,1.25936,207.595,0.138399
294.5000,1.52454,208.12,0.145918
294.4000,0.592624,207.853,0.142104
294.3000,0.746646,208.056,0.14501
294.2000,0.904204,207.581,0.138204
294.1000,1.23055,208.614,0.152985
294.0000,1.10684,207.733,0.140382
293.9000,-0.0191116,208.073,0.145253
293.8000,-0.427836,207.97,0.143776
293.7000,0.13318,207.407,0.135699
293.6000,-0.142122,207.808,0.141454
293.5000,1.52373,206.698,0.1255
293.4000,-0.518767,208.233,0.14754
293.3000,0.406085,208.198,0.147037
293.2000,2.32243,207.645,0.139114
293.1000,0.436201,207.764,0.14082
293.0000,0.796235,207.386,0.135406
292.9000,0.702502,206.72,0.125826
292.8000,-0.047553,207.308,0.134283
292.7000,-0.681003,206.762,0.12643
292.6000,1.06495,207.674,0.139537
292.5000,0.513583,207.219,0.132997
292.4000,1.41897,207.909,0.142899
292.3000,0.192043,206.671,0.125124
292.2000,3.20445,206.438,0.121762
292.1000,2.9919,207.239,0.13329
292.0000,0.980839,207.052,0.130603
291.9000,0.314303,206.778,0.126658
291.8000,-0.285121,206.965,0.129348
291.7000,1.1493,207.241,0.133323
291.6000,0.816655,206.904,0.128468
291.5000,1.03093,205.918,0.114257
291.4000,0.686205,208.261,0.147946
291.3000,0.44068,207.244,0.133355
291.2000,1.09779,206.873,0.128028
291.1000,0.264983,206.522,0.12297
291.0000,-0.854255,206.81,0.127115
290.9000,-0.148877,207.144,0.131922
290.8000,2.31128,207.433,0.136073
290.7000,1.49573,207.577,0.138139
290.6000,3.10143,206.926,0.128794
290.5000,0.233199,207.732,0.140365
290.4000,2.34056,207.746,0.140561
290.3000,1.74423,207.424,0.135943
290.2000,1.61596,207.473,0.136642
290.1000,-0.0796318,207.413,0.13578
290.0000,0.439536,207.425,0.135959
289.9000,-0.216767,207.924,0.14311
289.8000,0.866073,208.067,0.145172
289.7000,-0.111204,207.648,0.139163
289.6000,0.0396299,207.308,0.134283
289.5000,0.68424,207.826,0.141714
289.4000,1.68495,207.616,0.138708
289.3000,0.656614,207.578,0.138155
289.2000,1.32458,208.361,0.149372
289.1000,0.599481,207.776,0.140999
289.0000,1.02887,208.065,0.145139
288.9000,0.966006,209.789,0.169738
288.8000,1.66997,207.837,0.141876
288.7000,1.48429,207.047,0.130521
288.6000,1.80111,208.447,0.150604
288.5000,1.4482,207.517,0.137277
288.4000,0.823327,207.684,0.139683
288.3000,1.54256,207.532,0.137488
288.2000,-0.56385,207.365,0.135097
288.1000,2.19824,208.167,0.1466
288.0000,0.710685,207.265,0.133665
287.9000,-0.837858,208.649,0.153487
287.8000,-0.045902,208.294,0.148416
287.7000,0.668491,208.428,0.150329
287.6000,-1.93511,208.088,0.145464
287.5000,0.198577,208.263,0.147978
287.4000,-0.445312,207.989,0.144052
287.3000,-2.14457,209.02,0.158794
287.2000,0.262211,208.692,0.154102
287.1000,1.188,206.917,0.128663
287.0000,0.919309,207.895,0.142705
286.9000,-0.354264,208.718,0.154474
286.8000,-0.282313,207.663,0.139374
286.7000,-0.207557,207.179,0.132427
286.6000,0.94273,207.85,0.142055
286.5000,-0.491147,207.075,0.130929
286.4000,0.639926,207.887,0.142591
286.3000,1.47295,208.595,0.152726
286.2000,0.522883,208.227,0.147459
286.1000,0.873836,210.091,0.174039
286.0000,1.47845,208.054,0.144977
285.9000,-0.344787,208.416,0.150167
285.8000,1.23231,209.101,0.159941
285.7000,1.05897,208.872,0.156675
285.6000,1.19827,208.121,0.145935
285.5000,0.381512,209.343,0.163398
285.4000,0.700428,208.455,0.150717
285.3000,1.87579,209.315,0.162994
285.2000,1.2363,207.849,0.142039
285.1000,1.46463,208.518,0.151625
285.0000,-0.039807,208.595,0.152726
284.9000,1.78373,208.142,0.146243
284.8000,1.93847,208.228,0.147476
284.7000,0.762435,209.051,0.15923
284.6000,0.664616,208.886,0.156869
284.5000,0.109999,208.429,0.150345
284.4000,0.112215,208.607,0.152888
284.3000,0.716292,208.852,0.156384
284.2000,0.34389,208.496,0.151301
284.1000,1.68364,208.495,0.151285
284.0000,0.45151,208.156,0.146437
283.9000,1.29921,207.535,0.137537
283.8000,1.07272,209.475,0.165271
283.7000,-0.179475,209.257,0.162171
283.6000,1.20604,209.074,0.159553
283.5000,0.926237,208.43,0.150361
283.4000,-0.247207,207.988,0.144036
283.3000,0.375857,209.025,0.158858
283.2000,1.30529,208.413,0.150118
283.1000,1.64537,208.592,0.152677
283.0000,-0.450761,210.288,0.176839
282.9000,-0.128766,208.874,0.156707
282.8000,-1.74665,208.601,0.152807
282.7000,0.690467,209.208,0.161476
282.6000,0.473571,208.56,0.152224
282.5000,0.0811257,208.364,0.149421
282.4000,1.12795,207.389,0.135439
282.3000,1.38222,209.338,0.163317
282.2000,1.18462,209.101,0.159941
282.1000,-0.770308,209.133,0.160393
282.0000,0.74649,207.971,0.143792
281.9000,0.334619,208.104,0.145691
281.8000,1.65079,208.117,0.145886
281.7000,-0.136689,208.811,0.155802
281.6000,1.08713,209.079,0.159634
281.5000,1.7178,208.59,0.152645
281.4000,0.816998,208.99,0.158357
281.3000,-0.421746,208.276,0.148156
281.2000,-0.685046,209.185,0.161137
281.1000,0.142079,208.771,0.155235
281.0000,0.483443,208.509,0.151495
280.9000,2.07727,208.703,0.154264
280.8000,-0.720959,208.486,0.151155
280.7000,1.73582,208.995,0.158438
280.6000,-1.08321,208.414,0.150134
280.5000,1.17238,207.867,0.142299
280.4000,-0.383368,208.054,0.144977
280.3000,0.71139,207.636,0.138984
280.2000,-1.60125,208.875,0.156724
280.1000,1.2718,208.438,0.150474
280.0000,1.76869,208.987,0.158325
279.9000,0.275848,207.023,0.130179
279.8000,0.868017,207.561,0.137911
279.7000,0.319669,210.267,0.176533
279.6000,-1.59795,208.665,0.153714
279.5000,0.994414,207.911,0.142932
279.4000,-2.45037,209.527,0.166013
279.3000,0.0970553,208.442,0.150539
279.2000,1.59912,208.132,0.146097
279.1000,0.211898,207.023,0.130179
279.0000,0.446821,209.378,0.163899
278.9000,-1.1433,208.286,0.148302
278.8000,1.28274,208.088,0.145464
278.7000,0.152529,208.725,0.154571
278.6000,0.164351,210.178,0.175278
278.5000,-0.270786,209.263,0.162251
278.4000,-0.212876,207.839,0.141893
278.3000,1.54912,209.418,0.164464
278.2000,0.568108,208.293,0.1484
278.1000,0.684121,209.929,0.171736
278.0000,0.330654,208.606,0.152872
277.9000,0.437349,209.146,0.160588
277.8000,1.78178,208.031,0.144653
277.7000,-0.678268,208.45,0.150653
277.6000,-0.57423,208.79,0.15551
277.5000,1.72373,208.686,0.154021
277.4000,2.23453,208.948,0.157759
277.3000,2.39793,209.249,0.162058
277.2000,-1.2326,209.096,0.159876
277.1000,1.09467,209.322,0.163091
277.0000,0.222382,207.869,0.142331
276.9000,1.10057,208.283,0.148254
276.8000,-0.427433,208.836,0.156157
276.7000,0.538458,209.25,0.162074
276.6000,-1.39318,208.295,0.148432
276.5000,1.01839,209.036,0.15902
276.4000,-1.35439,208.175,0.146713
276.3000,0.683982,208.399,0.149923
276.2000,0.39826,208.671,0.153811
276.1000,0.913304,208.487,0.151171
276.0000,0.18671,207.961,0.143646
275.9000,1.63025,209.35,0.163495
275.8000,-0.0996202,209.561,0.166497
275.7000,-0.669851,209.079,0.159634
275.6000,0.685774,209.866,0.170834
275.5000,-0.0508129,209.424,0.164544
275.4000,-1.09278,209.287,0.162591
275.3000,0.233841,209.153,0.160684
275.2000,-0.806273,208.838,0.15619
275.1000,-0.246307,208.76,0.155073
275.0000,-0.248574,208.813,0.155834
274.9000,0.274754,207.877,0.142445
274.8000,1.43193,208.469,0.150912
274.7000,0.706358,209.28,0.162494
274.6000,-0.148958,208.874,0.156707
274.5000,0.179962,208.952,0.157824
274.4000,-0.930343,208.914,0.157274
274.3000,0.55705,208.48,0.151074
274.2000,-1.65368,208.33,0.148935
274.1000,0.770438,208.521,0.151657
274.0000,-1.04006,208.539,0.151916
273.9000,-0.373172,207.377,0.135276
273.8000,1.26203,207.993,0.144101
273.7000,1.40606,208.946,0.157726
273.6000,-0.0748981,208.822,0.155963
273.5000,-0.924099,209.461,0.165077
273.4000,-1.07762,209.465,0.165125
273.3000,-0.883289,207.768,0.140886
273.2000,1.38984,208.816,0.155882
273.1000,-1.72472,208.852,0.156384
273.0000,0.651648,208.738,0.154766
272.9000,0.266547,208.39,0.149794
272.8000,0.661179,208.95,0.157791
272.7000,1.25024,208.142,0.146243
272.6000,-0.848498,210.034,0.173234
272.5000,1.80352,208.755,0.155009
272.4000,0.718014,209.074,0.159553
272.3000,0.115069,208.453,0.150685
272.2000,0.390016,208.474,0.150993
272.1000,1.41412,209.765,0.169399
272.0000,-0.96822,208.602,0.152823
271.9000,-0.469211,209.437,0.164738
271.8000,1.57515,208.56,0.152224
271.7000,-0.13025,209.625,0.167416
271.6000,-0.740207,208.556,0.152159
271.5000,0.233647,208.584,0.152564
271.4000,0.977293,208.106,0.145724
271.3000,0.952837,209.281,0.16251
271.2000,-1.40941,207.867,0.142299
271.1000,1.10941,207.888,0.142607
271.0000,-0.319109,208.728,0.15462
270.9000,0.366914,209.348,0.163462
270.8000,1.49762,208.463,0.150831
270.7000,0.409947,208.924,0.157419
270.6000,0.0408199,208.582,0.152532
270.5000,0.753026,209.019,0.158777
270.4000,1.47461,208.411,0.150085
270.3000,2.57509,209.663,0.167948
270.2000,0.0686877,209.627,0.167432
270.1000,-1.21234,208.793,0.155542
270.0000,-0.256954,209.672,0.168077
269.9000,0.816588,207.891,0.14264
269.8000,0.261285,208.16,0.146502
269.7000,0.224882,209.826,0.17027
269.6000,0.192181,208.671,0.153811
269.5000,-2.37777,209.574,0.16669
269.4000,1.14125,209.497,0.165593
269.3000,-0.0494805,208.841,0.156238
269.2000,-0.805349,208.148,0.146324
269.1000,0.515458,208.533,0.151835
269.0000,1.05546,210.067,0.1737
268.9000,-0.588891,208.628,0.153195
268.8000,-0.29223,209.297,0.162736
268.7000,1.03943,209.571,0.166642
268.6000,0.258132,207.969,0.14376
268.5000,1.05562,208.958,0.157904
268.4000,0.274524,208.796,0.155591
268.3000,-0.501128,209.097,0.159893
268.2000,-0.109221,209.811,0.17006
268.1000,-0.768577,210.075,0.173813
268.0000,1.00371,209.367,0.163737
267.9000,-0.839683,209.453,0.164964
267.8000,-1.75309,210.055,0.173523
267.7000,1.03365,208.833,0.156125
267.6000,-0.387588,209.835,0.170398
267.5000,0.543852,209.184,0.161121
267.4000,-0.770811,208.917,0.157322
267.3000,-1.87117,208.774,0.155284
267.2000,-0.26906,209.603,0.167093
267.1000,0.531788,210.169,0.175149
267.0000,1.6609,208.873,0.156691
266.9000,0.710321,209.342,0.163382
266.8000,1.18886,208.761,0.15509
266.7000,-0.976273,209.288,0.162607
266.6000,0.942454,208.825,0.156012
266.5000,0.285666,209.602,0.167077
266.4000,-0.757518,209.327,0.163172
266.3000,1.48636,209.173,0.160975
266.2000,-0.444036,208.404,0.149988
266.1000,0.630138,210.305,0.17708
266.0000,-1.02825,209.801,0.169915
265.9000,-1.78674,209.47,0.165206
265.8000,2.05163,209.649,0.167755
265.7000,-0.485746,210.087,0.173974
265.6000,-0.319166,210.167,0.175117
265.5000,0.858004,208.465,0.150863
265.4000,0.378599,210.454,0.179187
265.3000,-1.54228,209.955,0.172106
265.2000,-1.11679,210.536,0.18036
265.1000,1.03289,210.09,0.174022
265.0000,-2.15186,210.714,0.182882
264.9000,-0.305946,210.033,0.173217
264.8000,0.367017,209.812,0.170076
264.7000,0.110938,209.818,0.170157
264.6000,-0.163786,209.624,0.1674
264.5000,-0.504235,210.109,0.174296
264.4000,-0.497346,209.987,0.172557
264.3000,3.47063,210.008,0.172863
264.2000,-0.664463,209.785,0.16969
264.1000,0.342013,210.871,0.185098
264.0000,-1.06685,210.659,0.182095
263.9000,0.763574,210.48,0.179556
263.8000,0.730207,210.675,0.18232
263.7000,-2.05082,209.864,0.170818
263.6000,-0.745756,209.415,0.164415
263.5000,-0.505812,209.634,0.167545
263.4000,-1.10713,210.169,0.175149
263.3000,0.480083,209.942,0.171913
263.2000,1.17874,210.111,0.174328
263.1000,0.127029,209.508,0.165739
263.0000,0.34221,210.737,0.183203
262.9000,-0.0683567,211.463,0.193482
262.8000,-0.914288,208.725,0.154571
262.7000,-0.804658,211.094,0.188258
262.6000,-0.611419,210.134,0.17465
262.5000,1.94445,210.513,0.180022
262.4000,-0.819003,209.611,0.167207
262.3000,-0.720585,211.157,0.189156
262.2000,0.562574,209.212,0.161524
262.1000,1.19954,210.277,0.176678
262.0000,-3.1192,209.913,0.17151
261.9000,0.143077,209.617,0.167303
261.8000,0.698456,210.082,0.17391
261.7000,-0.174424,211.029,0.187344
261.6000,-0.528862,210.184,0.175359
261.5000,0.183523,210.921,0.185804
261.4000,-0.347019,211.39,0.192441
261.3000,0.715733,211.111,0.188499
261.2000,-0.333226,210.897,0.185467
261.1000,1.59104,210.605,0.18134
261.0000,1.30578,209.835,0.170398
260.9000,0.94991,211.14,0.188916
260.8000,2.19738,211.535,0.194491
260.7000,-1.44505,210.338,0.177546
260.6000,-1.16126,210.382,0.178174
260.5000,-0.80432,212.037,0.201575
260.4000,-1.4306,210.671,0.182272
260.3000,1.45059,211.49,0.193866
260.2000,-0.860752,211.536,0.194507
260.1000,0.740172,210.432,0.178881
260.0000,0.0813475,210.319,0.177273
259.9000,0.489296,211.964,0.200553
259.8000,0.971687,210.544,0.180473
259.7000,-1.01349,211.331,0.191608
259.6000,0.507657,210.622,0.181581
259.5000,-0.162914,210.954,0.186285
259.4000,-0.0191994,210.521,0.180135
259.3000,-1.12492,210.058,0.173572
259.2000,-1.27541,211.138,0.188883
259.1000,0.687447,210.805,0.184167
259.0000,1.72595,211.047,0.1876
258.9000,-0.301084,210.567,0.180794
258.8000,0.811583,210.951,0.186237
258.7000,0.989974,210.579,0.180971
258.6000,1.16086,211.33,0.191592
258.5000,-0.185869,210.215,0.175793
258.4000,-0.796118,210.856,0.184889
258.3000,0.314613,211.801,0.19825
258.2000,0.590514,211.381,0.192313
258.1000,0.287617,211.191,0.189637
258.0000,-0.0485273,210.328,0.177402
257.9000,1.01036,212.447,0.207354
257.8000,-1.09857,211.164,0.189252
257.7000,-1.61816,209.717,0.168722
257.6000,-0.867876,212.214,0.204083
257.5000,-0.888539,212.194,0.203796
257.4000,1.54709,212.459,0.20753
257.3000,-0.563211,211.783,0.197995
257.2000,-0.0148285,212.214,0.204083
257.1000,0.740969,212.741,0.211499
257.0000,0.00899464,211.224,0.190102
256.9000,0.255438,210.918,0.185772
256.8000,1.6696,211.774,0.197867
256.7000,-2.41185,211.315,0.191384
256.6000,-1.21028,212.923,0.214048
256.5000,-0.997022,213.304,0.21941
256.4000,0.525583,211.544,0.194619
256.3000,-0.844069,212.094,0.20239
256.2000,0.560789,212.297,0.205248
256.1000,-1.8362,212.28,0.205009
256.0000,-1.53862,212.289,0.205137
255.9000,-0.11547,211.781,0.197963
255.8000,-0.582257,213.175,0.217597
255.7000,0.533503,211.214,0.189958
255.6000,0.169359,211.853,0.198986
255.5000,1.51165,212.162,0.203348
255.4000,-1.13343,211.765,0.197739
255.3000,-1.06798,211.273,0.190791
255.2000,-0.397166,211.469,0.193562
255.1000,1.03669,212.592,0.209396
255.0000,-0.151973,213.762,0.225827
254.9000,0.0444094,211.933,0.200121
254.8000,0.517675,213.774,0.225986
254.7000,0.942011,212.098,0.202438
254.6000,-0.0349531,212.287,0.205104
254.5000,-1.29959,211.64,0.195979
254.4000,-0.605754,211.135,0.188835
254.3000,-0.163064,212.502,0.208136
254.2000,1.90057,212.454,0.20745
254.1000,1.28416,212.706,0.211005
254.0000,0.198792,211.868,0.199194
253.9000,0.26697,213.089,0.216388
253.8000,0.1809,213.588,0.223382
253.7000,0.96565,212.944,0.21435
253.6000,1.39827,212.955,0.21451
253.5000,0.277659,212.14,0.203029
253.4000,0.552203,212.763,0.211802
253.3000,0.597961,212.163,0.203364
253.2000,-0.458168,212.703,0.210958
253.1000,-0.339398,213.086,0.21634
253.0000,0.00655954,212.048,0.201735
252.9000,1.14371,213.389,0.220602
252.8000,1.57303,213.096,0.216483
252.7000,-0.434848,213.664,0.224446
252.6000,-0.0252359,213.877,0.22743
252.5000,-1.77957,212.532,0.20855
252.4000,-0.046318,213.179,0.217645
252.3000,1.20337,212.452,0.207434
252.2000,1.22995,213.481,0.221889
252.1000,0.472008,213.643,0.22416
252.0000,-0.0341869,212.566,0.209029
251.9000,-1.38405,214.214,0.232154
251.8000,-0.226237,213,0.21513
251.7000,-1.75342,215.427,0.249067
251.6000,0.5306,213.448,0.221428
251.5000,1.05391,214.964,0.242627
251.4000,0.528339,213.898,0.227731
251.3000,-0.264436,214.375,0.234403
251.2000,-1.12781,212.396,0.206636
251.1000,-0.789218,214.382,0.234498
251.0000,0.652687,215.419,0.248957
250.9000,-0.225002,213.04,0.215703
250.8000,-2.18604,213.343,0.21995
250.7000,-0.542143,214.47,0.235733
250.6000,-0.0609005,213.685,0.224748
250.5000,0.487002,214.042,0.229745
250.4000,-0.77324,213.793,0.226256
250.3000,-0.367832,213.968,0.228715
250.2000,-0.399809,214.211,0.232107
250.1000,-0.197746,213.791,0.226224
250.0000,-0.906944,213.757,0.225748
249.9000,-0.451563,213.938,0.228286
249.8000,-1.5456,214.502,0.236176
249.7000,-0.124134,214.458,0.235559
249.6000,0.231021,213.68,0.224668
249.5000,-0.637568,214.281,0.233089
249.4000,-0.175632,213.854,0.227113
249.3000,0.223063,214.371,0.23434
249.2000,-0.608684,213.348,0.220014
249.1000,-0.401837,213.525,0.222509
249.0000,-2.40993,214.586,0.237347
248.9000,-1.12334,214.451,0.235464
248.8000,-1.0867,213.774,0.225986
248.7000,0.140868,214.13,0.230982
248.6000,0.299113,214.348,0.234023
248.5000,-2.15991,214.087,0.230379
248.4000,-0.306955,213.57,0.223128
248.3000,-2.42127,213.923,0.22808
248.2000,0.0100816,214.892,0.241616
248.1000,-1.00669,214.649,0.238233
248.0000,-0.483378,214.621,0.237837
247.9000,-0.786088,214.833,0.240794
247.8000,-1.37043,214.586,0.237347
247.7000,-0.528961,214.234,0.232423
247.6000,-0.678268,214.123,0.230871
247.5000,-0.547616,214.597,0.237505
247.4000,-3.06363,215.633,0.251936
247.3000,-2.20004,215.516,0.250312
247.2000,-2.22946,214.937,0.242248
247.1000,-0.615469,214.436,0.235258
247.0000,-1.32989,214.95,0.242422
246.9000,-3.49487,214.166,0.231473
246.8000,-1.25212,215.709,0.252991
246.7000,-2.05339,216.052,0.257761
246.6000,-2.00902,216.485,0.263766
246.5000,-1.52184,214.053,0.229904
246.4000,-2.53098,216.602,0.265383
246.3000,-0.781422,215.659,0.252298
246.2000,-2.8222,215.134,0.244996
246.1000,-1.14877,215.073,0.244143
246.0000,-2.37107,215.699,0.25285
245.9000,-1.43888,215.265,0.246811
245.8000,-1.50881,216.009,0.257163
245.7000,-2.71652,215.283,0.247064
245.6000,-1.17511,215.518,0.250344
245.5000,-2.58456,215.789,0.25411
245.4000,-4.06462,215.231,0.246338
245.3000,-2.63786,216.16,0.259256
245.2000,-1.13915,215.62,0.251763
245.1000,-2.00187,214.537,0.236666
245.0000,-3.26634,215.826,0.254614
244.9000,-3.56391,216.067,0.257966
244.8000,-2.42707,216.311,0.261346
244.7000,-3.82023,215.95,0.256345
244.6000,-3.21861,216.732,0.267188
244.5000,-2.78026,216.974,0.270545
244.4000,-3.56617,217.804,0.282002
244.3000,-4.01923,216.221,0.260105
244.2000,-4.81542,215.596,0.251416
244.1000,-4.8527,217.24,0.274211
244.0000,-4.18539,217.539,0.278343
243.9000,-5.70335,217.243,0.274258
243.8000,-3.69019,216.005,0.2571
243.7000,-4.5994,218.027,0.28508
243.6000,-4.17304,216.495,0.263907
243.5000,-2.91184,216.541,0.264536
243.4000,-3.46199,216.695,0.26667
243.3000,-3.08432,217.32,0.275323
243.2000,-3.50839,215.829,0.254661
243.1000,-4.86232,217.867,0.282877
243.0000,-4.21466,217.354,0.275793
242.9000,-4.99729,218.393,0.29012
242.8000,-5.85191,216.785,0.267926
242.7000,-4.90017,217.802,0.281971
242.6000,-5.2833,217.657,0.27997
242.5000,-4.06611,217.824,0.282284
242.4000,-6.86765,217.387,0.276247
242.3000,-3.96194,218.011,0.284861
242.2000,-5.3187,217.042,0.271485
242.1000,-6.23475,218.061,0.285548
242.0000,-4.73905,219.527,0.305695
241.9000,-6.28764,219.879,0.310505
241.8000,-7.53404,218.759,0.295153
241.7000,-9.52792,218.99,0.298328
241.6000,-6.2479,218.677,0.294031
241.5000,-5.98776,217.703,0.280611
241.4000,-7.89114,219.271,0.302184
241.3000,-7.58984,219.592,0.30658
241.2000,-7.6932,218.641,0.293533
241.1000,-9.16691,218.762,0.295199
241.0000,-6.19985,219.326,0.30293
240.9000,-8.66201,219.225,0.301547
240.8000,-9.24442,219.735,0.308535
240.7000,-9.16405,220.988,0.325654
240.6000,-9.01533,220.529,0.319395
240.5000,-10.6282,219.608,0.306797
240.4000,-7.40497,220.089,0.313388
240.3000,-10.1127,220.515,0.319209
240.2000,-9.10474,220.285,0.316068
240.1000,-8.55359,220.154,0.314271
240.0000,-9.3175,221.431,0.331687
239.9000,-9.28959,221.134,0.327646
239.8000,-11.7881,220.516,0.319225
239.7000,-11.1365,221.664,0.334861
239.6000,-11.3045,221.796,0.336648
239.5000,-11.5514,221.254,0.329281
239.4000,-11.2017,221.572,0.333613
239.3000,-14.1162,222.887,0.351444
239.2000,-12.388,222.155,0.341525
239.1000,-13.5212,222.15,0.341463
239.0000,-13.4245,223.073,0.353957
238.9000,-12.7387,222.562,0.34704
238.8000,-14.5251,223.374,0.358031
238.7000,-16.1926,223.422,0.358674
238.6000,-14.159,223.201,0.355689
238.5000,-13.3519,224.074,0.367478
238.4000,-15.8417,222.736,0.349404
238.3000,-15.159,224.241,0.369721
238.2000,-15.3783,224.421,0.372146
238.1000,-16.6156,223.9,0.365126
238.0000,-15.1599,224.149,0.368485
237.9000,-17.0246,224.1,0.367829
237.8000,-17.1148,225.565,0.387513
237.7000,-17.484,224.62,0.374829
237.6000,-17.5343,224.264,0.370026
237.5000,-19.7239,226.594,0.401274
237.4000,-17.5599,225.652,0.388667
237.3000,-17.5095,225.409,0.385417
237.2000,-21.2364,224.337,0.371018
237.1000,-20.8509,226.577,0.401047
237.0000,-22.1517,226.313,0.39752
236.9000,-21.041,227.318,0.410926
236.8000,-19.4555,227.815,0.417528
236.7000,-22.2568,225.618,0.388212
236.6000,-21.8039,226.705,0.402756
236.5000,-21.1741,226.624,0.401667
236.4000,-20.8262,228.186,0.422465
236.3000,-23.6166,228.975,0.432917
236.2000,-21.871,227.679,0.415721
236.1000,-22.8031,227.205,0.409417
236.0000,-21.8091,229.464,0.439389
235.9000,-23.4439,229.369,0.438132
235.8000,-25.49,228.669,0.428866
235.7000,-24.2523,228.692,0.429166
235.6000,-28.8256,228.517,0.426853
235.5000,-26.2695,228.58,0.427694
235.4000,-25.3356,227.873,0.418311
235.3000,-29.1376,229.726,0.442846
235.2000,-25.2092,229.881,0.444894
235.1000,-28.1942,230.566,0.453911
235.0000,-26.5915,230.836,0.457473
234.9000,-28.8043,230.843,0.457563
234.8000,-29.7234,230.804,0.457041
234.7000,-30.3768,231.496,0.466133
234.6000,-28.9323,230.928,0.45868
234.5000,-30.2616,232.065,0.473585
234.4000,-32.304,231.662,0.468317
234.3000,-32.0323,232.357,0.47741
234.2000,-32.1545,231.895,0.47136
234.1000,-32.5584,231.496,0.466133
234.0000,-32.0652,232.5,0.479276
233.9000,-34.0599,234.117,0.500347
233.8000,-33.8452,232.111,0.474193
233.7000,-33.8064,233.382,0.490794
233.6000,-37.1857,234.006,0.498904
233.5000,-34.9481,233.479,0.492048
233.4000,-35.8556,234.678,0.507628
233.3000,-37.9548,234.675,0.507599
233.2000,-37.4598,235.094,0.513032
233.1000,-39.811,236.161,0.526813
233.0000,-41.8072,236.022,0.52503
232.9000,-37.6571,235.287,0.515525
232.8000,-39.2014,236.505,0.531255
232.7000,-38.567,234.242,0.501981
232.6000,-41.3613,236.446,0.530495
232.5000,-42.6161,236.356,0.529327
232.4000,-41.3339,235.735,0.521313
232.3000,-41.2188,237.631,0.545739
232.2000,-42.6208,238.387,0.555427
232.1000,-43.6759,237.98,0.550216
232.0000,-43.9319,239.008,0.563368
231.9000,-45.8331,238.805,0.560776
231.8000,-46.2358,239.527,0.569991
231.7000,-46.0077,238.889,0.561847
231.6000,-47.1757,238.958,0.562731
231.5000,-47.2525,240.123,0.577583
231.4000,-47.781,237.852,0.548574
231.3000,-46.9797,240.437,0.581574
231.2000,-46.8036,240.734,0.585346
231.1000,-48.2645,240.031,0.576415
231.0000,-48.1472,240.832,0.586598
230.9000,-50.7189,241.761,0.598374
230.8000,-50.0439,241.546,0.595648
230.7000,-51.4576,241.279,0.592261
230.6000,-52.9014,241.165,0.590824
230.5000,-49.8409,242.396,0.606394
230.4000,-49.2059,241.978,0.601111
230.3000,-53.8909,241.925,0.600438
230.2000,-52.3864,241.909,0.600237
230.1000,-55.8338,241.755,0.598288
230.0000,-55.2453,243.944,0.625885
229.9000,-56.0715,241.374,0.593467
229.8000,-53.8879,243.512,0.620459
229.7000,-54.6845,243.715,0.62301
229.6000,-56.9461,244.667,0.634954
229.5000,-55.6724,244.114,0.62802
229.4000,-58.0865,243.31,0.617921
229.3000,-57.4612,244.835,0.637069
229.2000,-59.2669,244.798,0.636601
229.1000,-59.9843,246.329,0.655722
229.0000,-58.1433,244.678,0.635096
228.9000,-58.8935,244.9,0.637877
228.8000,-62.4039,247.577,0.671247
228.7000,-65.0348,246.285,0.655172
228.6000,-61.4101,247.3,0.667801
228.5000,-64.5632,247.836,0.674451
228.4000,-61.6666,247.32,0.668055
228.3000,-63.2811,247.808,0.6741
228.2000,-66.123,248.579,0.683654
228.1000,-64.3819,247.829,0.674367
228.0000,-68.0837,248.57,0.683542
227.9000,-63.5482,248.219,0.679196
227.8000,-64.2906,248.801,0.686399
227.7000,-68.5376,250.783,0.710807
227.6000,-67.6951,251.411,0.718505
227.5000,-65.5505,250.849,0.711614
227.4000,-69.2363,250.608,0.708664
227.3000,-69.0046,251.567,0.72042
227.2000,-68.3251,250.726,0.710112
227.1000,-71.509,251.348,0.717741
227.0000,-67.5148,252.272,0.729039
226.9000,-71.3261,252.143,0.727461
226.8000,-70.862,252.733,0.734669
226.7000,-68.8347,252.639,0.733521
226.6000,-71.2889,252.443,0.731129
226.5000,-74.4623,253.628,0.745571
226.4000,-70.5931,253.941,0.749372
226.3000,-72.4315,254.894,0.760932
226.2000,-74.5628,254.842,0.7603
226.1000,-72.6482,254.535,0.756579
226.0000,-72.7697,254.673,0.758255
225.9000,-70.2406,255.379,0.766801
225.8000,-75.3364,255.531,0.768636
225.7000,-73.5473,256.035,0.774725
225.6000,-71.2119,256.397,0.779098
225.5000,-72.4655,256.386,0.778962
225.4000,-76.3169,256.652,0.78217
225.3000,-75.1046,256.92,0.785389
225.2000,-77.6977,256.157,0.776202
225.1000,-78.0261,256.282,0.777705
225.0000,-77.0577,258.028,0.798699
224.9000,-76.5191,257.487,0.792213
224.8000,-76.6714,258.639,0.806014
224.7000,-80.7545,259.082,0.811311
224.6000,-78.7871,259.212,0.812868
224.5000,-77.5127,258.509,0.804468
224.4000,-77.2859,259.454,0.815763
224.3000,-76.3584,260.386,0.826863
224.2000,-80.1129,259.474,0.815993
224.1000,-79.0506,261.685,0.842296
224.0000,-77.5844,259.335,0.814343
223.9000,-79.5651,260.681,0.83038
223.8000,-79.4756,261.342,0.838225
223.7000,-83.1525,261.476,0.839811
223.6000,-78.4204,260.208,0.824745
223.5000,-79.1413,262.237,0.848829
223.4000,-78.2518,261.391,0.838803
223.3000,-77.6746,262.444,0.851281
223.2000,-79.937,262.472,0.851603
223.1000,-81.2292,262.812,0.855619
223.0000,-80.3952,263.605,0.864973
222.9000,-82.7097,264.175,0.87168
222.8000,-83.3921,264.666,0.877458
222.7000,-81.7793,264.704,0.877896
222.6000,-78.9421,265.481,0.88701
222.5000,-79.9839,265.522,0.887487
222.4000,-80.774,265.702,0.889596
222.3000,-79.5919,265.591,0.888296
222.2000,-79.3795,267.414,0.909577
222.1000,-81.0282,265.543,0.887739
222.0000,-79.7406,266.911,0.903716
221.9000,-79.5425,267.107,0.906001
221.8000,-85.5143,265.538,0.887673
221.7000,-79.491,266.896,0.903544
221.6000,-82.3076,267.471,0.910236
221.5000,-83.9558,267.708,0.912991
221.4000,-83.3552,267.652,0.912345
221.3000,-85.0456,268.453,0.921651
221.2000,-82.1264,269.119,0.929373
221.1000,-81.4746,269.917,0.938597
221.0000,-80.8203,270.792,0.948686
220.9000,-83.855,271.362,0.955246
220.8000,-83.1333,270.596,0.946428
220.7000,-82.8499,271.9,0.961429
220.6000,-78.8125,271.894,0.961364
220.5000,-81.8476,272.286,0.965862
220.4000,-79.4336,272.124,0.964004
220.3000,-82.1961,273.474,0.979453
220.2000,-84.4088,272.572,0.969135
220.1000,-78.1621,275.031,0.997198
220.0000,-78.9134,273.646,0.98142
219.9000,-84.5763,274.569,0.99195
219.8000,-79.591,274.89,0.9956
219.7000,-83.9549,275.235,0.999516
219.6000,-81.259,274.154,0.987212
219.5000,-78.5268,275.044,0.997353
219.4000,-78.0759,275.517,1.00272
219.3000,-76.1841,277.018,1.01973
219.2000,-81.0764,276.728,1.01645
219.1000,-78.0146,277.189,1.02166
219.0000,-82.1247,276.926,1.01869
218.9000,-83.2084,278.136,1.03235
218.8000,-81.0313,277.349,1.02347
218.7000,-82.5276,277.949,1.03024
218.6000,-83.8944,278.46,1.036
218.5000,-81.1915,279.069,1.04284
218.4000,-81.4371,280.135,1.0548
218.3000,-81.0941,279.521,1.04792
218.2000,-82.7449,279.45,1.04711
218.1000,-82.3774,279.94,1.05262
218.0000,-80.9957,280.805,1.06229
217.9000,-80.3845,280.755,1.06173
217.8000,-76.3179,280.827,1.06254
217.7000,-79.4727,281.504,1.0701
217.6000,-81.8271,281.221,1.06694
217.5000,-82.3328,282.328,1.07927
217.4000,-82.0712,282.686,1.08325
217.3000,-83.2026,283.269,1.08973
217.2000,-80.7653,283.737,1.09492
217.1000,-79.0141,283.216,1.08914
217.0000,-80.8247,284.099,1.09893
216.9000,-79.8818,285.131,1.11033
216.8000,-84.4242,285.079,1.10976
216.7000,-82.3902,285.778,1.11747
216.6000,-77.0345,285.501,1.11442
216.5000,-75.523,286.538,1.12583
216.4000,-76.0693,286.692,1.12752
216.3000,-78.7964,287.271,1.13388
216.2000,-82.3216,288.21,1.14417
216.1000,-77.8966,288.758,1.15015
216.0000,-77.6025,288.266,1.14477
215.9000,-80.577,289.391,1.15706
215.8000,-82.9237,289.13,1.15422
215.7000,-79.269,287.618,1.13768
215.6000,-79.2994,289.993,1.16361
215.5000,-78.8167,290.27,1.16663
215.4000,-78.3063,290.435,1.16842
215.3000,-79.3763,291.744,1.18262
215.2000,-78.11,291.51,1.18008
215.1000,-81.424,291.955,1.1849
215.0000,-74.2529,292.471,1.19048
214.9000,-77.4357,292.57,1.19156
214.8000,-76.7376,293.934,1.20625
214.7000,-79.5617,294.254,1.2097
214.6000,-76.7121,295.081,1.21858
214.5000,-83.4324,295.553,1.22363
214.4000,-82.4839,295.013,1.21785
214.3000,-79.7522,295.642,1.22459
214.2000,-81.35,295.668,1.22487
214.1000,-80.4676,296.655,1.23542
214.0000,-79.9746,296.992,1.23901
213.9000,-77.5397,296.668,1.23555
213.8000,-79.2115,298.551,1.25561
213.7000,-72.1021,299.471,1.26537
213.6000,-77.2547,299.226,1.26277
213.5000,-72.2754,300.327,1.27443
213.4000,-78.6869,299.769,1.26852
213.3000,-79.2898,300.373,1.27491
213.2000,-77.8738,299.807,1.26893
213.1000,-79.5611,301.224,1.28389
213.0000,-82.9934,302.385,1.29611
212.9000,-81.6134,303.813,1.31109
212.8000,-79.5411,302.742,1.29986
212.7000,-76.6561,303.074,1.30335
212.6000,-75.1946,304.209,1.31524
212.5000,-81.4014,304.052,1.31359
212.4000,-79.7497,303.953,1.31256
212.3000,-75.2163,304.804,1.32145
212.2000,-81.4348,305.85,1.33235
212.1000,-77.0843,306.279,1.33682
212.0000,-78.4292,307.734,1.35191
211.9000,-88.0695,308.295,1.35772
211.8000,-85.485,307.751,1.35209
211.7000,-83.2056,310.087,1.3762
211.6000,-79.3521,310.01,1.3754
211.5000,-75.4777,310.943,1.385
211.4000,-78.9221,311.042,1.38601
211.3000,-82.7431,311.939,1.39521
211.2000,-85.5023,311.947,1.39529
211.1000,-84.2381,312.586,1.40183
211.0000,-81.1447,312.903,1.40507
210.9000,-82.6427,314.043,1.4167
210.8000,-81.4196,314.697,1.42335
210.7000,-82.3517,316.15,1.43808
210.6000,-79.9415,316.35,1.44011
210.5000,-80.0462,316.792,1.44458
210.4000,-82.7396,318.57,1.46251
210.3000,-77.9739,318.459,1.46139
210.2000,-85.9099,318.689,1.46371
210.1000,-78.0252,320.165,1.47853
210.0000,-77.9647,320,1.47687
209.9000,-80.0013,321.431,1.49119
209.8000,-81.5014,322.3,1.49986
209.7000,-85.9506,323.124,1.50806
209.6000,-80.8715,324.115,1.5179
209.5000,-78.6349,324.974,1.52641
209.4000,-77.6994,326.411,1.5406
209.3000,-84.1848,326.521,1.54168
209.2000,-86.5102,328.449,1.56064
209.1000,-82.9156,328.2,1.5582
209.0000,-83.4667,330.048,1.57629
208.9000,-85.5976,330.399,1.57972
208.8000,-85.7677,331.609,1.59151
208.7000,-75.6987,332.289,1.59812
208.6000,-80.9818,333.45,1.60938
208.5000,-87.1007,333.557,1.61042
208.4000,-80.7006,336.466,1.63847
208.3000,-76.8407,335.289,1.62715
208.2000,-78.1942,337.503,1.64844
208.1000,-77.8875,338.187,1.65498
208.0000,-75.1086,339.506,1.66758
207.9000,-76.5433,340.915,1.68101
207.8000,-75.4277,342.242,1.6936
207.7000,-73.5343,343.057,1.70131
207.6000,-72.198,343.41,1.70465
207.5000,-73.0909,344.932,1.71901
207.4000,-69.434,346.669,1.73532
207.3000,-74.6203,346.877,1.73728
207.2000,-77.5478,347.751,1.74545
207.1000,-75.6094,350.303,1.76924
207.0000,-70.7711,350.562,1.77165
206.9000,-71.8707,352.324,1.78798
206.8000,-73.4264,352.82,1.79257
206.7000,-73.966,354.593,1.80891
206.6000,-70.3166,354.924,1.81195
206.5000,-63.3431,357.23,1.83309
206.4000,-71.2991,358.019,1.84029
206.3000,-66.5512,359.409,1.85296
206.2000,-61.3878,362.141,1.87773
206.1000,-66.6088,362.364,1.87974
206.0000,-62.7771,364.238,1.89664
205.9000,-72.9385,364.517,1.89914
205.8000,-58.5303,365.848,1.91109
205.7000,-55.3008,367.602,1.92678
205.6000,-63.9891,369.22,1.94119
205.5000,-56.0252,371.373,1.96029
205.4000,-67.6585,372.232,1.96788
205.3000,-61.152,372.936,1.97409
205.2000,-44.6045,375.905,2.00019
205.1000,-50.298,377.988,2.01839
205.0000,-52.4864,378.818,2.02562
204.9000,-61.1542,381.491,2.04882
204.8000,-55.2573,382.748,2.05967
204.7000,-52.4728,383.697,2.06785
204.6000,-37.6128,385.693,2.085
204.5000,-49.2795,387.393,2.09955
204.4000,-37.771,389.716,2.11934
204.3000,-45.9676,392.121,2.13972
204.2000,-40.157,393.621,2.15238
204.1000,-35.2821,395.608,2.16909
204.0000,-41.6655,396.747,2.17863
203.9000,-34.3535,398.924,2.19681
203.8000,-29.3125,401.253,2.21618
203.7000,-39.0875,402.98,2.23047
203.6000,-27.3832,405.09,2.24786
203.5000,-35.4494,407.159,2.26484
203.4000,-30.6871,409.597,2.28477
203.3000,-15.4814,410.482,2.29197
203.2000,-29.52,414.189,2.32202
203.1000,-22.0521,415.453,2.3322
203.0000,-24.5668,417.339,2.34737
202.9000,-16.831,420.07,2.36921
202.8000,-11.9809,421.57,2.38116
202.7000,-17.4679,422.941,2.39205
202.6000,-18.5717,425.93,2.41569
202.5000,-12.8919,427.719,2.42978
202.4000,0.738191,429.762,2.4458
202.3000,-16.8732,432.5,2.46716
202.2000,-9.5288,436.044,2.49466
202.1000,-26.5694,437.347,2.50472
202.0000,1.97724,440.343,2.52776
201.9000,-12.9644,443.04,2.54838
201.8000,0.185319,446.077,2.57149
201.7000,4.5144,449.314,2.59596
201.6000,-0.810403,452.493,2.61985
201.5000,-1.10822,454.417,2.63424
201.4000,-14.2531,455.339,2.64112
201.3000,7.71355,458.382,2.66374
201.2000,-5.34999,462.241,2.69224
201.1000,15.7982,464.998,2.71249
201.0000,5.8717,467.581,2.73135
200.9000,7.20221,470.248,2.75075
200.8000,2.22279,472.346,2.76594
200.7000,10.3122,474.985,2.78496
200.6000,8.53309,478.441,2.80974
200.5000,12.2188,481.105,2.82874
200.4000,12.2908,484.685,2.85414
200.3000,13.135,488.012,2.87759
200.2000,4.20107,489.243,2.88623
200.1000,22.836,493.77,2.91787
200.0000,21.782,496.463,2.93657
199.9000,1.76066,501.413,2.97072
199.8000,32.2242,503.689,2.98633
199.7000,19.334,505.995,3.00208
199.6000,23.8238,509.952,3.02897
199.5000,17.863,513.031,3.04978
199.4000,22.5783,515.173,3.06418
199.3000,18.7965,518.666,3.08757
199.2000,34.4431,521.332,3.10533
199.1000,29.4644,524.293,3.12497
199.0000,26.3886,527.647,3.1471
198.9000,14.1964,530.792,3.16774
198.8000,23.0035,536.575,3.20543
198.7000,10.2479,539.97,3.22739
198.6000,28.3892,544.032,3.25352
198.5000,27.0796,545.62,3.26368
198.4000,30.8067,550.747,3.29635
198.3000,20.4294,554.726,3.32152
198.2000,25.8357,556.874,3.33505
198.1000,18.4665,561.479,3.36389
198.0000,26.9808,564.183,3.38073
197.9000,39.9426,568.927,3.41012
197.8000,14.5742,571.923,3.42857
197.7000,17.6178,575.41,3.44995
197.6000,24.1893,578.574,3.46924
197.5000,35.8943,581.965,3.48983
197.4000,26.0177,585.998,3.51417
197.3000,27.7732,590.137,3.53901
197.2000,17.6881,594.213,3.56334
197.1000,12.4024,597.436,3.58246
197.0000,25.1733,601.846,3.60849
196.9000,7.49041,605.349,3.62906
196.8000,25.4018,608.981,3.65027
196.7000,21.2674,612.567,3.67111
196.6000,8.69348,617.512,3.69967
196.5000,33.7519,621.209,3.72091
196.4000,28.5821,624.759,3.74119
196.3000,22.9574,629.394,3.76753
196.2000,30.0839,632.904,3.78737
196.1000,14.5946,638.077,3.81643
196.0000,17.9319,642.676,3.8421
195.9000,21.0086,645.773,3.85929
195.8000,21.9133,649.64,3.88067
195.7000,20.6316,653.967,3.90446
195.6000,34.4093,657.561,3.92412
195.5000,18.2994,660.406,3.93962
195.4000,25.8116,664.11,3.95971
195.3000,14.8239,667.283,3.97684
195.2000,18.42,670.458,3.99392
195.1000,26.9078,672.792,4.00643
195.0000,33.012,677.44,4.03123
194.9000,18.2796,680.183,4.0458
194.8000,21.8905,682.959,4.06049
194.7000,26.7958,688.231,4.08825
194.6000,10.8793,689.444,4.09462
194.5000,10.5214,693.099,4.11373
194.4000,23.1301,697.372,4.13597
194.3000,18.4963,700.706,4.15323
194.2000,15.5722,704.299,4.17177
194.1000,22.7723,708.309,4.19235
194.0000,7.11348,711.969,4.21106
193.9000,15.9309,716.337,4.23327
193.8000,17.0186,719.605,4.24982
193.7000,13.6625,723.248,4.26819
193.6000,8.85102,727.131,4.28768
193.5000,20.2971,729.086,4.29745
193.4000,7.44133,732.638,4.31517
193.3000,28.7255,734.462,4.32423
193.2000,14.159,737.333,4.33847
193.1000,9.77579,740.052,4.3519
193.0000,37.8655,742.751,4.36519
192.9000,26.7568,745.944,4.38087
192.8000,18.593,748.735,4.39452
192.7000,28.377,751.909,4.41
192.6000,29.71,756.06,4.43015
192.5000,-1.59299,758.965,4.4442
192.4000,15.4192,761.335,4.45563
192.3000,23.1035,765.644,4.47632
192.2000,19.5528,769.104,4.49287
192.1000,16.3712,772.446,4.50879
192.0000,11.6558,774.385,4.518
191.9000,8.86136,776.381,4.52747
191.8000,14.584,778.949,4.53961
191.7000,12.1845,782.056,4.55425
191.6000,23.2023,785.312,4.56955
191.5000,6.8453,787.008,4.5775
191.4000,8.05989,790.37,4.5932
191.3000,3.84943,793.785,4.6091
191.2000,8.05205,797.129,4.6246
191.1000,16.8889,800.588,4.64059
191.0000,-2.19711,805.278,4.66216
190.9000,19.2506,809.333,4.68073
190.8000,6.01649,813.37,4.69914
190.7000,3.42193,816.59,4.71377
190.6000,-1.65679,820.99,4.73367
190.5000,15.8886,823.275,4.74398
190.4000,10.0016,826.799,4.75982
190.3000,-2.05932,829.708,4.77285
190.2000,2.39639,833.245,4.78864
190.1000,0.0307012,834.735,4.79528
190.0000,0.663105,838.101,4.81023

##### Extended Information
[Comments]
Sample name,LW+MB Protein and additive
Comment,Protein and additive
User,Leah Whitehouse and Micheal Boden
Division
Company,Saint Mary's College

[Detailed Information]
Creation date,9/29/2022 2:20 PM

Data array type,Linear data array * 3
Horizontal axis,Wavelength [nm]
Vertical axis(1),CD [mdeg]
Vertical axis(2),HT [V]
Vertical axis(3),Abs
Start,320 nm
End,190 nm
Data interval,0.1 nm
Data points,1301    

[Measurement Information]
Instrument name,J-1500
Model name,J-1500
Serial No.,B051061638

Detector,PM-539
Detector S/N,B051061638
  Lock-in amp.,X mode
  HT volt,Auto

Accessory,PTC-517
Accessory S/N,B026561646
  Temperature,22.84 C
  Control sensor,Holder
  Monitor sensor,Holder

Measurement date,9/29/2022 2:19 PM

CD Overload detect,941
Photometric mode,CD, HT, Abs
Measure range,320 - 190 nm
Data pitch,0.1 nm
CD scale,20 mdeg/0.05 dOD
FL scale,20 mdeg/0.05 dOD
D.I.T.,8 msec
Bandwidth,2.00 nm
Start mode,Immediately
Scanning mode,Continuous
Scanning speed,200 nm/min
Baseline correction,None
Shutter control,Auto
No. of cycle,1/1
N2 Flowmeter,Manual

Solvent,NaPO4 buffer

