TITLE,LW+MB Buffer
DATA TYPE,
ORIGIN,JASCO
OWNER,
DATE,22/09/29
TIME,14:42:09
SPECTROMETER/DATA SYSTEM,
LOCALE,1033
RESOLUTION,
DELTAX,-0.1
XUNITS,NANOMETERS
YUNITS,CD [mdeg]
Y2UNITS,HT [V]
Y3UNITS,ABSORBANCE
FIRSTX,  320.0000
LASTX,  190.0000
NPOINTS,    1301
FIRSTY,     1.93610
MAXY,     7.46367
MINY,    -4.32575
XYDATA
320.0000,1.9361,208.146,0.146291
319.9000,1.5068,208.242,0.14767
319.8000,1.67627,208.891,0.15695
319.7000,2.66318,208.503,0.151398
319.6000,0.841081,208.671,0.153811
319.5000,1.06668,208.836,0.156157
319.4000,1.43987,209.143,0.160539
319.3000,-0.47419,209.031,0.158939
319.2000,0.852133,208.828,0.156044
319.1000,2.15324,208.951,0.157807
319.0000,3.40081,209.113,0.160119
318.9000,2.84556,209.131,0.160377
318.8000,1.79695,208.651,0.153519
318.7000,2.81767,208.906,0.15716
318.6000,0.571734,208.353,0.149259
318.5000,2.43393,208.569,0.152354
318.4000,3.12532,208.854,0.156416
318.3000,1.17568,208.794,0.155559
318.2000,0.588158,208.225,0.147427
318.1000,1.75651,208.678,0.153908
318.0000,1.91753,209.018,0.158761
317.9000,1.12597,208.656,0.153584
317.8000,1.58394,208.578,0.152483
317.7000,0.255671,209.062,0.159392
317.6000,1.54138,208.421,0.150231
317.5000,1.93881,208.716,0.154442
317.4000,-0.0733448,208.649,0.153487
317.3000,2.8554,208.416,0.150167
317.2000,2.63206,209.101,0.159941
317.1000,0.737053,209.078,0.159618
317.0000,2.79883,209.108,0.160038
316.9000,0.00823424,208.696,0.154167
316.8000,0.68176,207.653,0.139228
316.7000,-1.14944,208.172,0.146665
316.6000,3.19518,208.441,0.150523
316.5000,1.7954,208.41,0.150069
316.4000,0.412491,208.977,0.158179
316.3000,2.27564,209.217,0.161605
316.2000,2.49338,208.39,0.149794
316.1000,0.701604,208.586,0.152596
316.0000,2.48237,208.629,0.153212
315.9000,1.72899,207.986,0.144003
315.8000,2.65986,208.044,0.144831
315.7000,1.09164,208.864,0.156562
315.6000,2.39238,208.33,0.148935
315.5000,1.66908,208.125,0.146
315.4000,0.561802,208.099,0.145626
315.3000,1.45129,209.153,0.160684
315.2000,1.34769,208.493,0.151268
315.1000,1.8217,208.522,0.151673
315.0000,0.987005,208.424,0.15028
314.9000,1.88069,208.249,0.147767
314.8000,0.0160847,208.147,0.146308
314.7000,0.245312,207.961,0.143646
314.6000,0.40294,208.409,0.150053
314.5000,2.7097,207.89,0.142623
314.4000,2.32129,209.04,0.159068
314.3000,0.327521,207.837,0.141876
314.2000,1.15154,208.44,0.150507
314.1000,3.56167,207.961,0.143646
314.0000,0.869833,208.109,0.145772
313.9000,1.57317,207.793,0.141243
313.8000,3.12056,207.491,0.136903
313.7000,0.785485,208.001,0.144215
313.6000,0.569384,207.926,0.143143
313.5000,2.05114,207.789,0.141178
313.4000,-0.554421,208.572,0.152386
313.3000,0.37366,207.375,0.135243
313.2000,1.78443,208.36,0.149356
313.1000,0.692608,207.503,0.137082
313.0000,0.850592,207.536,0.137553
312.9000,0.049615,208.171,0.146648
312.8000,1.23621,208.19,0.146924
312.7000,2.17369,208.223,0.147394
312.6000,2.08866,207.904,0.142835
312.5000,0.672233,208.338,0.149048
312.4000,2.72438,208.559,0.152208
312.3000,0.0696304,208.01,0.144344
312.2000,3.28115,208.089,0.14548
312.1000,-0.0605833,208.024,0.144555
312.0000,2.20067,208.292,0.148384
311.9000,0.9462,208.318,0.148757
311.8000,3.53796,208.032,0.144669
311.7000,1.59854,207.555,0.13783
311.6000,2.51653,208.048,0.144896
311.5000,0.212937,208.003,0.144247
311.4000,2.61968,207.695,0.139829
311.3000,1.64382,207.862,0.142234
311.2000,0.246786,208.318,0.148757
311.1000,2.48413,208.548,0.152046
311.0000,0.63438,207.734,0.140398
310.9000,2.84183,208.185,0.146859
310.8000,0.077947,208.015,0.144425
310.7000,1.12574,208.182,0.146811
310.6000,2.03465,207.645,0.139114
310.5000,1.65674,208.312,0.148675
310.4000,1.51239,207.601,0.13848
310.3000,2.38185,208.437,0.150458
310.2000,2.76559,208.344,0.149129
310.1000,2.25607,208.35,0.14921
310.0000,2.43006,208.402,0.149956
309.9000,0.846425,207.834,0.141827
309.8000,1.00895,208.88,0.156788
309.7000,1.33822,208.419,0.150199
309.6000,1.38059,207.666,0.139423
309.5000,1.455,208.094,0.145545
309.4000,1.09247,208.551,0.152094
309.3000,1.1109,208.367,0.149453
309.2000,1.4721,209.164,0.160846
309.1000,2.25883,208.278,0.148189
309.0000,1.30571,208.023,0.144539
308.9000,1.93621,207.938,0.143322
308.8000,3.12561,208.68,0.15394
308.7000,1.15728,208.041,0.144799
308.6000,0.400674,208.127,0.146032
308.5000,3.24012,208.345,0.149145
308.4000,1.07759,208.583,0.152548
308.3000,0.265192,208.464,0.150847
308.2000,4.35453,208.107,0.14574
308.1000,0.828854,208.261,0.147946
308.0000,0.850749,208.016,0.144442
307.9000,1.50961,208.346,0.149162
307.8000,0.253085,207.965,0.143711
307.7000,0.58843,208.328,0.148902
307.6000,2.64581,208.302,0.148529
307.5000,1.65126,207.994,0.144117
307.4000,1.27234,207.8,0.14134
307.3000,1.97195,207.863,0.14225
307.2000,3.0885,208.195,0.147005
307.1000,0.469206,208.512,0.151528
307.0000,0.478764,207.75,0.140625
306.9000,0.855255,208.178,0.146762
306.8000,0.503806,207.985,0.143987
306.7000,-0.502275,207.742,0.140512
306.6000,1.35757,207.447,0.136268
306.5000,2.23791,208.057,0.145026
306.4000,1.56125,207.985,0.143987
306.3000,2.60819,208.088,0.145464
306.2000,1.89411,208.812,0.155818
306.1000,1.04857,207.937,0.143305
306.0000,1.99218,208.158,0.14647
305.9000,1.11117,208.808,0.155769
305.8000,1.41663,208.111,0.145789
305.7000,1.45539,208.016,0.144442
305.6000,1.7475,208.651,0.153519
305.5000,2.08679,207.683,0.139667
305.4000,1.25101,208.169,0.146632
305.3000,2.05057,207.626,0.138838
305.2000,1.8018,208.111,0.145789
305.1000,3.10764,207.904,0.142835
305.0000,0.56116,208.114,0.145837
304.9000,0.905692,208.116,0.14587
304.8000,1.89178,208.619,0.153066
304.7000,2.00614,207.775,0.140983
304.6000,2.29686,208.109,0.145772
304.5000,0.301897,207.314,0.134365
304.4000,2.13904,207.831,0.141779
304.3000,2.90061,208.74,0.154798
304.2000,-0.103998,207.82,0.141633
304.1000,2.32513,208.125,0.146
304.0000,-0.225836,207.714,0.140105
303.9000,0.142622,207.189,0.132574
303.8000,-0.201699,207.381,0.135325
303.7000,2.2104,207.809,0.14147
303.6000,2.08677,207.483,0.136789
303.5000,2.21017,208.229,0.147492
303.4000,-0.401679,207.815,0.141551
303.3000,0.469422,208.418,0.150183
303.2000,0.822728,207.286,0.133958
303.1000,1.90966,208.267,0.148027
303.0000,2.38681,208.42,0.150215
302.9000,2.20397,208.216,0.147297
302.8000,1.59358,206.976,0.129511
302.7000,-0.00018657,208.024,0.144555
302.6000,0.780608,208.632,0.153244
302.5000,0.668525,207.088,0.131124
302.4000,1.97242,207.986,0.144003
302.3000,1.23668,207.943,0.143386
302.2000,0.607807,207.662,0.139358
302.1000,2.03224,207.815,0.141551
302.0000,1.16468,207.55,0.137748
301.9000,2.67163,208.05,0.144928
301.8000,1.38815,207.913,0.142964
301.7000,2.31702,207.827,0.14173
301.6000,0.977004,207.483,0.136789
301.5000,2.10964,207.169,0.132281
301.4000,-0.021115,208.501,0.151382
301.3000,1.84962,207.989,0.144052
301.2000,2.30586,207.426,0.135976
301.1000,1.11929,207.665,0.139407
301.0000,1.25708,207.819,0.141617
300.9000,1.16316,207.477,0.136708
300.8000,1.52572,207.752,0.140658
300.7000,1.10568,208.209,0.1472
300.6000,1.53684,207.499,0.137017
300.5000,1.1505,206.907,0.128517
300.4000,0.244835,207.937,0.143305
300.3000,0.9912,207.36,0.135032
300.2000,2.15928,208.088,0.145464
300.1000,0.626981,207.592,0.13835
300.0000,-0.535605,207.95,0.143484
299.9000,-0.458748,208.284,0.14827
299.8000,1.66608,207.406,0.135683
299.7000,1.69446,207.504,0.137098
299.6000,0.821169,207.504,0.137098
299.5000,-0.529637,207.757,0.140723
299.4000,0.874766,207.303,0.134202
299.3000,2.85055,207.116,0.131515
299.2000,0.650072,207.152,0.132037
299.1000,0.533337,207.15,0.132004
299.0000,-0.603427,206.758,0.126364
298.9000,1.91891,207.493,0.136935
298.8000,0.89044,207.885,0.142558
298.7000,1.64467,207.266,0.133681
298.6000,1.98108,207.409,0.135731
298.5000,1.39841,207.783,0.141097
298.4000,1.31639,207.632,0.138935
298.3000,1.24211,206.684,0.125304
298.2000,0.861689,207.748,0.140593
298.1000,2.41573,207.388,0.135422
298.0000,1.61719,207.467,0.136561
297.9000,0.550295,207.394,0.13552
297.8000,2.09464,207.449,0.136301
297.7000,0.901787,207.839,0.141893
297.6000,2.94423,207.067,0.130815
297.5000,1.63228,207.408,0.135715
297.4000,2.1546,207.391,0.135471
297.3000,0.130517,208.112,0.145805
297.2000,2.41405,207.049,0.130554
297.1000,1.29499,206.761,0.126413
297.0000,2.42882,207.82,0.141633
296.9000,2.13275,207.538,0.137586
296.8000,1.78954,206.811,0.127131
296.7000,0.373943,207.226,0.133095
296.6000,2.79231,206.094,0.116793
296.5000,1.99844,207.122,0.131613
296.4000,2.49336,207.249,0.133437
296.3000,1.07787,207.775,0.140983
296.2000,1.72424,207.314,0.134365
296.1000,1.54204,207.504,0.137098
296.0000,1.99676,207.322,0.134479
295.9000,0.799207,208.032,0.144669
295.8000,2.27383,207.767,0.140869
295.7000,0.802971,206.975,0.129495
295.6000,0.83641,207.469,0.136594
295.5000,1.96099,206.613,0.124276
295.4000,1.95093,207.135,0.131792
295.3000,1.9301,206.794,0.126886
295.2000,1.43413,208.158,0.14647
295.1000,0.160669,207.144,0.131922
295.0000,0.793248,207.166,0.132232
294.9000,2.21378,206.709,0.125663
294.8000,1.69984,207.645,0.139114
294.7000,1.68779,206.812,0.127147
294.6000,2.08166,207.968,0.143744
294.5000,3.45534,206.315,0.119981
294.4000,1.88886,207.856,0.142136
294.3000,1.46862,207.178,0.132411
294.2000,1.30297,207.445,0.136252
294.1000,1.0183,207.369,0.135162
294.0000,1.79474,207.305,0.134234
293.9000,0.751301,207.705,0.139975
293.8000,1.70862,207.381,0.135325
293.7000,0.244455,206.48,0.122366
293.6000,2.25594,207.169,0.132281
293.5000,2.97287,207.022,0.130163
293.4000,0.868683,207.152,0.132037
293.3000,0.757854,206.857,0.1278
293.2000,0.49034,208.011,0.14436
293.1000,0.786426,207.392,0.135487
293.0000,3.5889,207.475,0.136675
292.9000,1.42296,206.6,0.124096
292.8000,2.08431,206.477,0.122317
292.7000,2.64697,206.475,0.1223
292.6000,1.51982,206.851,0.127702
292.5000,1.17948,206.827,0.127359
292.4000,1.36701,207.02,0.130147
292.3000,2.2496,207.629,0.138886
292.2000,1.93013,206.823,0.12731
292.1000,0.572878,206.651,0.124831
292.0000,0.792871,206.41,0.121353
291.9000,1.95258,206.734,0.126022
291.8000,1.98421,206.873,0.128028
291.7000,1.96328,206.004,0.115501
291.6000,1.87376,206.916,0.128647
291.5000,0.926863,205.546,0.108885
291.4000,0.351614,205.22,0.104161
291.3000,2.05243,206.485,0.122431
291.2000,1.22888,206.218,0.118592
291.1000,1.42368,205.51,0.10836
291.0000,2.17069,206.204,0.118379
290.9000,1.88984,206.005,0.115517
290.8000,0.854972,205.994,0.115353
290.7000,1.82219,206.647,0.124766
290.6000,0.676342,206.49,0.122513
290.5000,-0.133358,206.32,0.120063
290.4000,1.30267,206.752,0.126283
290.3000,1.1819,206.778,0.126658
290.2000,0.576922,206.887,0.128223
290.1000,0.682622,206.924,0.128762
290.0000,1.60504,207.043,0.130473
289.9000,1.19419,206.531,0.1231
289.8000,2.24988,206.66,0.124961
289.7000,1.12433,207.597,0.138431
289.6000,2.45452,207.028,0.130261
289.5000,2.23318,207.29,0.134023
289.4000,0.057302,206.636,0.124619
289.3000,1.04716,206.975,0.129495
289.2000,-0.146825,207.139,0.131857
289.1000,1.75998,206.979,0.129544
289.0000,1.53863,207.209,0.132851
288.9000,2.83318,207.275,0.133811
288.8000,0.541315,207.051,0.130587
288.7000,-0.12892,206.668,0.125075
288.6000,-0.107841,206.71,0.125679
288.5000,2.2234,207.147,0.131971
288.4000,0.0403133,207,0.129853
288.3000,0.603114,206.307,0.119867
288.2000,1.3553,206.88,0.128126
288.1000,2.08782,206.764,0.126462
288.0000,0.776824,206.398,0.12119
287.9000,2.15013,207.581,0.138204
287.8000,3.73996,207.687,0.139715
287.7000,2.66399,206.495,0.122578
287.6000,1.50638,205.963,0.114912
287.5000,1.9086,206.786,0.126772
287.4000,2.31402,206.554,0.123427
287.3000,1.42858,207.765,0.140837
287.2000,1.86545,206.633,0.12457
287.1000,2.11794,206.188,0.11815
287.0000,1.8931,206.883,0.128174
286.9000,0.94014,205.875,0.113635
286.8000,1.15986,206.798,0.126951
286.7000,2.33593,206.422,0.121533
286.6000,0.786068,206.517,0.122905
286.5000,1.60386,206.35,0.120487
286.4000,0.83298,207.479,0.13674
286.3000,0.096505,206.752,0.126283
286.2000,1.04478,207.51,0.137179
286.1000,0.141745,206.725,0.125891
286.0000,1.06575,206.283,0.119523
285.9000,1.7066,207.551,0.137765
285.8000,2.96318,206.172,0.117921
285.7000,0.309999,206.896,0.128354
285.6000,-0.310041,206.71,0.125679
285.5000,1.79828,206.54,0.123231
285.4000,2.78571,206.661,0.124978
285.3000,3.37018,206.308,0.119883
285.2000,-0.781103,206.478,0.122333
285.1000,0.712314,206.201,0.118346
285.0000,0.549262,206.621,0.12439
284.9000,0.911489,206.945,0.129055
284.8000,1.11051,206.446,0.121876
284.7000,2.18144,207.17,0.132297
284.6000,0.638226,206.649,0.124798
284.5000,1.44834,206.573,0.123705
284.4000,1.09321,206.372,0.120814
284.3000,0.125887,206.896,0.128354
284.2000,2.7018,207.26,0.133583
284.1000,0.891167,206.759,0.126381
284.0000,1.97583,206.248,0.119017
283.9000,3.12356,206.667,0.125059
283.8000,1.64344,206.793,0.12687
283.7000,1.10343,206.252,0.119082
283.6000,2.17302,207.052,0.130603
283.5000,0.334861,206.898,0.128386
283.4000,2.45118,207.18,0.132444
283.3000,0.921869,206.155,0.117676
283.2000,1.29758,206.211,0.118494
283.1000,2.25754,207.417,0.135846
283.0000,3.03969,206.017,0.115681
282.9000,1.51154,207.044,0.130489
282.8000,1.94709,206.242,0.118935
282.7000,2.2791,206.812,0.127147
282.6000,1.44769,206.971,0.12943
282.5000,1.42888,206.661,0.124978
282.4000,2.16643,206.815,0.127196
282.3000,2.19011,206.786,0.126772
282.2000,1.33742,206.889,0.128256
282.1000,0.773805,206.298,0.119736
282.0000,0.738311,206.189,0.118167
281.9000,1.47822,206.343,0.120389
281.8000,2.29253,206.919,0.12868
281.7000,3.05102,206.137,0.117415
281.6000,0.156957,206.734,0.126022
281.5000,2.15905,206.853,0.127734
281.4000,0.720283,206.398,0.12119
281.3000,1.17409,206.655,0.12488
281.2000,1.47932,206.435,0.121712
281.1000,1.34175,206.354,0.120553
281.0000,2.4826,206.513,0.122839
280.9000,1.72773,206.613,0.124276
280.8000,-0.700516,206.589,0.123933
280.7000,2.0714,207.185,0.132509
280.6000,-0.430036,206.568,0.123639
280.5000,1.33604,207.047,0.130521
280.4000,-0.455272,206.567,0.123623
280.3000,2.2107,206.368,0.120749
280.2000,-1.09104,207.115,0.131499
280.1000,1.78157,206.302,0.119801
280.0000,2.33731,206.119,0.117153
279.9000,-0.469428,206.923,0.128745
279.8000,0.13849,206.899,0.128403
279.7000,2.08133,206.577,0.12377
279.6000,0.533473,206.287,0.119589
279.5000,2.07172,206.666,0.125043
279.4000,2.18565,206.515,0.122872
279.3000,0.777593,206.066,0.1164
279.2000,1.52022,206.796,0.126919
279.1000,0.896905,207.035,0.130359
279.0000,0.306429,206.857,0.1278
278.9000,0.995947,206.5,0.12266
278.8000,1.36416,206.266,0.119278
278.7000,1.12261,206.354,0.120553
278.6000,1.79666,206.406,0.121304
278.5000,2.17837,206.446,0.121876
278.4000,2.11595,206.883,0.128174
278.3000,1.01662,206.435,0.121712
278.2000,1.32601,207.073,0.130896
278.1000,1.75162,206.665,0.125027
278.0000,2.05671,206.41,0.121353
277.9000,1.85631,207.141,0.131874
277.8000,1.6026,207.126,0.131662
277.7000,0.180468,207.026,0.130228
277.6000,1.59021,207.298,0.134137
277.5000,2.13077,207.244,0.133355
277.4000,1.71974,206.609,0.124227
277.3000,2.04904,206.046,0.116106
277.2000,0.40533,207.701,0.139927
277.1000,0.508515,207.189,0.132574
277.0000,1.38592,206.523,0.122986
276.9000,3.0149,206.862,0.127865
276.8000,1.05173,206.716,0.125761
276.7000,0.561447,207.258,0.133567
276.6000,1.96686,206.528,0.123052
276.5000,-0.140493,206.968,0.129397
276.4000,0.0886841,207.126,0.131662
276.3000,2.03108,206.949,0.12912
276.2000,0.889392,206.29,0.119621
276.1000,-0.0128168,207.477,0.136708
276.0000,0.640905,206.729,0.125956
275.9000,1.50251,207.02,0.130147
275.8000,2.0835,207.283,0.133925
275.7000,2.36528,207.23,0.13316
275.6000,0.0685373,206.862,0.127865
275.5000,0.287639,206.345,0.120422
275.4000,1.51507,207.299,0.134153
275.3000,0.38043,207.488,0.13687
275.2000,1.33685,207.274,0.133795
275.1000,1.27128,206.631,0.124537
275.0000,1.83851,207.105,0.131369
274.9000,2.25084,207.082,0.131026
274.8000,0.373091,206.981,0.129577
274.7000,0.873261,207.756,0.140707
274.6000,1.069,206.167,0.117856
274.5000,1.15942,206.801,0.126984
274.4000,2.07249,207.047,0.130521
274.3000,1.45053,206.953,0.129169
274.2000,1.14826,207.183,0.132476
274.1000,2.72596,207.28,0.133876
274.0000,1.34257,207.269,0.133713
273.9000,2.00079,206.766,0.126479
273.8000,1.27013,206.941,0.129006
273.7000,1.39945,206.439,0.121778
273.6000,0.383577,206.734,0.126022
273.5000,2.76317,207.16,0.13215
273.4000,0.862805,206.449,0.121925
273.3000,1.13597,206.502,0.122676
273.2000,0.129171,206.494,0.122562
273.1000,2.07179,206.861,0.127848
273.0000,1.26475,206.754,0.126316
272.9000,0.461993,207.121,0.131597
272.8000,0.304443,206.742,0.126136
272.7000,1.18974,207.26,0.133583
272.6000,0.208049,207.137,0.131825
272.5000,0.656242,207.112,0.131466
272.4000,0.624393,207.252,0.133469
272.3000,1.48747,207.379,0.135292
272.2000,0.222229,207.032,0.13031
272.1000,1.81556,207.937,0.143305
272.0000,0.775233,207.091,0.131157
271.9000,2.50727,206.886,0.128207
271.8000,2.73111,207.22,0.133014
271.7000,1.36485,206.536,0.123166
271.6000,2.48518,207.049,0.130554
271.5000,1.31195,206.903,0.128452
271.4000,1.36623,206.769,0.126527
271.3000,0.0538599,206.618,0.124358
271.2000,1.17632,206.948,0.129104
271.1000,1.49984,207.228,0.133127
271.0000,1.86902,206.58,0.123803
270.9000,1.07596,208.364,0.149421
270.8000,1.82954,207.742,0.140512
270.7000,1.10583,207.317,0.134413
270.6000,0.260885,207.618,0.138724
270.5000,1.92707,208.094,0.145545
270.4000,1.01354,207.247,0.133404
270.3000,-0.0258585,207.579,0.138171
270.2000,0.535025,207.102,0.13132
270.1000,1.75967,206.873,0.128028
270.0000,0.898142,206.513,0.122839
269.9000,0.457481,207.223,0.133062
269.8000,0.0302735,206.97,0.129414
269.7000,1.92655,207.493,0.136935
269.6000,-0.158692,207.331,0.134609
269.5000,1.92039,207.714,0.140105
269.4000,2.10016,207.824,0.141681
269.3000,1.82682,207.541,0.137618
269.2000,-0.553318,207.212,0.132899
269.1000,0.399482,207.586,0.138269
269.0000,2.75042,207.66,0.139325
268.9000,1.73854,207.652,0.139212
268.8000,1.02352,207.237,0.133258
268.7000,0.186843,208.131,0.146081
268.6000,0.799768,207.69,0.139764
268.5000,2.44406,207.289,0.134007
268.4000,2.53676,207.935,0.143273
268.3000,0.114843,208.15,0.146356
268.2000,-0.62314,207.505,0.137114
268.1000,2.21612,208.165,0.146567
268.0000,1.65226,208.369,0.149486
267.9000,-0.114285,207.347,0.134837
267.8000,2.66786,207.498,0.137
267.7000,3.08074,207.757,0.140723
267.6000,0.962896,207.291,0.134039
267.5000,0.838356,208.177,0.146746
267.4000,0.825441,208.952,0.157824
267.3000,3.74767,207.006,0.129935
267.2000,1.23705,207.709,0.14004
267.1000,0.712811,207.734,0.140398
267.0000,-0.691377,207.802,0.141373
266.9000,-1.00648,209.326,0.163156
266.8000,0.69333,208.173,0.146681
266.7000,2.49026,208.627,0.153179
266.6000,1.87311,207.594,0.138383
266.5000,1.46383,207.967,0.143728
266.4000,-0.221331,208.37,0.149502
266.3000,0.517818,209.213,0.161541
266.2000,-0.156458,208.29,0.148351
266.1000,0.829751,208.177,0.146746
266.0000,3.18737,208.276,0.148156
265.9000,0.297469,208.699,0.154199
265.8000,0.693313,209.351,0.163511
265.7000,1.89098,208.458,0.150766
265.6000,0.721427,208.495,0.151285
265.5000,1.79533,208.581,0.152515
265.4000,1.71365,208.754,0.154993
265.3000,-0.0729573,208.818,0.155899
265.2000,0.91139,208.614,0.152985
265.1000,0.417172,208.474,0.150993
265.0000,1.46274,208.307,0.148594
264.9000,0.564478,208.812,0.155818
264.8000,0.633667,209.143,0.160539
264.7000,1.56591,209.06,0.159359
264.6000,-0.520959,208.509,0.151495
264.5000,3.58009,209.487,0.165448
264.4000,-0.148655,208.294,0.148416
264.3000,0.865625,209.086,0.159731
264.2000,0.98399,208.68,0.15394
264.1000,1.30123,208.622,0.153098
264.0000,1.48869,208.499,0.151349
263.9000,0.529046,210.156,0.174956
263.8000,1.74612,208.267,0.148027
263.7000,1.12341,209.351,0.163511
263.6000,0.311692,208.808,0.155769
263.5000,0.0210704,208.745,0.154863
263.4000,2.17688,209.312,0.162946
263.3000,2.31676,208.992,0.158389
263.2000,0.221618,209.046,0.159165
263.1000,2.79018,209.069,0.159489
263.0000,1.89672,208.921,0.157371
262.9000,2.07789,209.74,0.169045
262.8000,1.66508,209.596,0.166997
262.7000,0.276091,209.848,0.170576
262.6000,-0.274034,209.67,0.168045
262.5000,0.0644471,210.002,0.172767
262.4000,1.37546,209.414,0.164399
262.3000,1.40007,209.079,0.159634
262.2000,1.50778,209.234,0.161848
262.1000,0.983421,209.68,0.16819
262.0000,0.703024,209.053,0.159262
261.9000,0.645409,209.104,0.159989
261.8000,2.07822,210.123,0.174489
261.7000,1.98248,209.111,0.160087
261.6000,1.24635,210.225,0.175938
261.5000,0.190157,209.419,0.16448
261.4000,-0.148753,209.487,0.165448
261.3000,0.0640477,209.284,0.162558
261.2000,2.77944,208.651,0.153519
261.1000,2.73369,210.061,0.173604
261.0000,0.833611,209.884,0.171091
260.9000,0.662658,210.027,0.173121
260.8000,2.18269,209.993,0.172638
260.7000,1.70707,209.819,0.170173
260.6000,2.01159,210.386,0.178222
260.5000,2.3463,210.15,0.174876
260.4000,1.7129,210.624,0.181597
260.3000,1.75026,210.843,0.184712
260.2000,2.44856,209.468,0.165174
260.1000,0.627651,209.935,0.171816
260.0000,1.96196,209.734,0.168964
259.9000,-0.343375,210.472,0.179444
259.8000,1.29407,210.25,0.176292
259.7000,2.00995,210.254,0.176356
259.6000,1.4262,210.378,0.178109
259.5000,0.189854,210.349,0.177707
259.4000,1.71975,210.502,0.179878
259.3000,1.20989,210.83,0.18452
259.2000,0.355954,210.254,0.176356
259.1000,1.74148,210.013,0.172928
259.0000,1.34568,210.01,0.172879
258.9000,2.11101,210.394,0.178335
258.8000,0.379031,210.428,0.178817
258.7000,-0.602689,210.755,0.18346
258.6000,1.63981,210.423,0.178752
258.5000,1.73121,210.38,0.178142
258.4000,1.64478,210.774,0.183733
258.3000,2.68875,211.101,0.188354
258.2000,1.19627,211.219,0.190022
258.1000,0.57245,211.021,0.187232
258.0000,-1.4467,210.381,0.178158
257.9000,-0.037535,210.686,0.182481
257.8000,0.933752,210.45,0.179138
257.7000,1.43815,211.468,0.193546
257.6000,-0.343715,211.217,0.190005
257.5000,0.531325,210.988,0.186766
257.4000,0.287716,210.686,0.182481
257.3000,0.876751,210.988,0.186766
257.2000,0.825085,210.939,0.18606
257.1000,0.190628,211.045,0.187569
257.0000,1.43853,210.877,0.185194
256.9000,-0.00170551,210.511,0.180006
256.8000,1.79092,210.85,0.184809
256.7000,2.92215,211.112,0.188515
256.6000,3.23713,211.816,0.198458
256.5000,-0.205542,210.984,0.186702
256.4000,0.691076,211.195,0.189685
256.3000,1.57477,211.58,0.195131
256.2000,0.804224,211.612,0.195579
256.1000,0.715184,211.461,0.19345
256.0000,1.74257,210.91,0.185659
255.9000,0.87206,211.638,0.195947
255.8000,1.59127,211.495,0.19393
255.7000,0.429985,211.548,0.194683
255.6000,-0.349544,211.415,0.192793
255.5000,1.20256,211.679,0.196523
255.4000,0.250715,211.566,0.194939
255.3000,1.63858,211.531,0.194443
255.2000,1.54759,211.693,0.196731
255.1000,0.97453,211.349,0.191864
255.0000,1.35502,211.698,0.196795
254.9000,2.03114,211.646,0.196059
254.8000,2.94887,211.378,0.192281
254.7000,1.41086,211.692,0.196715
254.6000,2.40142,211.214,0.189958
254.5000,1.34843,211.553,0.194747
254.4000,2.61326,212.432,0.207147
254.3000,1.86206,211.88,0.19937
254.2000,0.97413,212.52,0.208391
254.1000,2.38334,211.292,0.191063
254.0000,2.63593,211.963,0.200537
253.9000,0.80949,211.299,0.191159
253.8000,1.58744,211.669,0.196395
253.7000,0.931619,211.877,0.199322
253.6000,0.564224,212.156,0.203253
253.5000,2.62178,212.414,0.206892
253.4000,3.66376,212.498,0.208072
253.3000,2.31549,212.798,0.212296
253.2000,-0.553237,212.177,0.203556
253.1000,1.0661,212.488,0.207929
253.0000,0.967116,211.818,0.19849
252.9000,-0.242792,212.398,0.206668
252.8000,0.461607,212.915,0.213936
252.7000,1.41633,211.246,0.190406
252.6000,1.90626,211.86,0.199082
252.5000,1.13395,212.544,0.208726
252.4000,0.665108,213.129,0.216945
252.3000,1.79498,211.988,0.200888
252.2000,-0.428795,213.029,0.215544
252.1000,2.3557,212.434,0.207179
252.0000,0.969324,212.383,0.206461
251.9000,2.63365,212.471,0.20769
251.8000,3.32177,212.682,0.210671
251.7000,-0.665642,212.454,0.20745
251.6000,2.72118,213.063,0.216022
251.5000,1.31707,213.289,0.219187
251.4000,2.29861,213.104,0.216594
251.3000,1.56597,212.645,0.210145
251.2000,0.584066,213.091,0.216419
251.1000,0.278888,213.161,0.21739
251.0000,1.90461,212.865,0.213236
250.9000,-1.26133,212.759,0.211755
250.8000,1.04016,213.097,0.216499
250.7000,1.39811,212.574,0.209141
250.6000,2.21608,213.124,0.216881
250.5000,-0.646753,213.104,0.216594
250.4000,1.66013,212.919,0.214
250.3000,0.575606,212.716,0.211149
250.2000,-0.109234,213.231,0.218376
250.1000,0.775327,212.407,0.206796
250.0000,3.06206,213.427,0.221126
249.9000,1.10281,213.457,0.221556
249.8000,0.74127,213.224,0.218281
249.7000,3.44828,213.59,0.223414
249.6000,0.513507,213.513,0.222334
249.5000,2.2031,212.207,0.203971
249.4000,2.91376,213.028,0.215528
249.3000,1.18482,213.897,0.227715
249.2000,-0.371805,213.757,0.225748
249.1000,-0.343696,213.276,0.219012
249.0000,1.94251,213.082,0.216292
248.9000,2.41885,213.276,0.219012
248.8000,1.06711,212.873,0.213347
248.7000,1.91537,213.104,0.216594
248.6000,1.02922,213.965,0.228667
248.5000,3.81668,213.365,0.220252
248.4000,0.0740237,214.065,0.230062
248.3000,1.21874,213.651,0.224272
248.2000,2.03155,213.692,0.224843
248.1000,0.230626,213.656,0.224335
248.0000,0.848057,213.774,0.225986
247.9000,-0.191843,213.762,0.225827
247.8000,2.85545,213.958,0.228572
247.7000,-0.480167,213.749,0.225637
247.6000,-0.101363,213.897,0.227715
247.5000,1.08298,214.766,0.239862
247.4000,1.41974,214.068,0.23011
247.3000,1.17207,214.194,0.231869
247.2000,1.64829,213.716,0.225176
247.1000,1.7129,214.126,0.230918
247.0000,1.76832,214.202,0.23198
246.9000,2.90016,214.259,0.232772
246.8000,-0.00955602,214.745,0.239561
246.7000,1.48524,214.237,0.232471
246.6000,1.32306,213.811,0.226509
246.5000,0.736058,214.388,0.234577
246.4000,0.672805,214.325,0.233706
246.3000,2.00871,214.538,0.236683
246.2000,1.24333,214.399,0.234736
246.1000,1.28028,214.77,0.239909
246.0000,0.736208,215.395,0.248625
245.9000,2.17944,214.552,0.236872
245.8000,-0.0184552,214.596,0.237489
245.7000,2.12105,214.075,0.230205
245.6000,0.34938,215.295,0.247237
245.5000,0.44658,214.72,0.239213
245.4000,2.81412,214.754,0.239688
245.3000,1.49658,214.518,0.236398
245.2000,2.72152,215.121,0.244806
245.1000,3.08536,214.839,0.240873
245.0000,1.17016,215.241,0.24648
244.9000,2.32309,215.065,0.244033
244.8000,2.83205,214.904,0.24179
244.7000,1.78043,214.995,0.243054
244.6000,-0.0504925,215.112,0.24468
244.5000,2.54556,214.763,0.239814
244.4000,-1.18129,215.035,0.243606
244.3000,-0.40782,214.851,0.241047
244.2000,0.633643,214.926,0.24209
244.1000,1.35795,215.319,0.247568
244.0000,2.45368,214.852,0.241063
243.9000,2.56506,215.785,0.254047
243.8000,-0.0261373,215.2,0.245911
243.7000,1.29264,215.422,0.249004
243.6000,-0.679134,215.25,0.246606
243.5000,-0.151991,215.267,0.246843
243.4000,-0.191306,215.566,0.251006
243.3000,0.264409,216.615,0.265572
243.2000,1.78773,215.379,0.248405
243.1000,0.0282944,215.649,0.252157
243.0000,2.28337,215.84,0.254818
242.9000,1.20796,215.822,0.254566
242.8000,0.102575,215.551,0.250801
242.7000,-0.386895,216.042,0.25762
242.6000,1.08876,216.324,0.261535
242.5000,1.91011,216.176,0.259476
242.4000,2.11631,215.244,0.246527
242.3000,-0.0610084,216.365,0.262101
242.2000,0.523728,216.221,0.260105
242.1000,1.6616,216.473,0.263593
242.0000,0.336512,216.408,0.262698
241.9000,2.56445,216.526,0.264331
241.8000,1.29761,216.771,0.267722
241.7000,0.102141,216.632,0.265807
241.6000,0.789331,216.606,0.265446
241.5000,2.64055,216.368,0.262148
241.4000,-0.760339,216.067,0.257966
241.3000,-0.308308,216.828,0.268522
241.2000,1.29011,216.963,0.270388
241.1000,0.0398731,216.797,0.268083
241.0000,1.27683,217.024,0.271234
240.9000,4.62359,217.368,0.275981
240.8000,1.2772,217.557,0.278594
240.7000,-0.43215,216.679,0.266451
240.6000,2.21676,216.922,0.269823
240.5000,0.561441,216.95,0.2702
240.4000,0.460568,217.059,0.27172
240.3000,0.614177,217.487,0.277624
240.2000,0.693835,217.726,0.280924
240.1000,2.60102,217.348,0.275715
240.0000,-0.799304,217.159,0.273099
239.9000,0.205884,217.824,0.282284
239.8000,1.51606,217.269,0.274619
239.7000,0.978923,217.515,0.278015
239.6000,1.73522,217.14,0.272833
239.5000,-0.968827,217.28,0.274775
239.4000,0.171857,218.715,0.294545
239.3000,2.28585,217.306,0.275135
239.2000,0.677187,217.509,0.277937
239.1000,2.40208,217.858,0.282752
239.0000,0.441389,218.155,0.286844
238.9000,2.25321,218.687,0.294156
238.8000,-0.791597,219.275,0.302231
238.7000,2.16463,218.231,0.287889
238.6000,1.30551,217.95,0.284018
238.5000,2.79941,217.861,0.282784
238.4000,0.640619,217.967,0.284252
238.3000,3.33768,218.502,0.291616
238.2000,1.8911,219.536,0.305819
238.1000,3.92617,218.418,0.290463
238.0000,3.03211,218.51,0.291726
237.9000,-0.689874,219.457,0.304732
237.8000,0.264256,219.446,0.304577
237.7000,-0.165574,219.043,0.299059
237.6000,0.693137,219.216,0.301423
237.5000,1.62578,219.087,0.29965
237.4000,0.0692597,219.198,0.301174
237.3000,0.794638,219.23,0.301625
237.2000,-0.102975,219.511,0.305477
237.1000,2.54376,219.281,0.302324
237.0000,1.39294,219.245,0.301827
236.9000,0.404504,219.713,0.30824
236.8000,0.0399085,220.005,0.312241
236.7000,2.09161,220.187,0.31472
236.6000,3.17472,219.834,0.3099
236.5000,0.498919,220.184,0.314689
236.4000,2.82282,220.101,0.313543
236.3000,0.647174,220.46,0.318451
236.2000,0.208846,220.231,0.315324
236.1000,2.14228,219.433,0.304406
236.0000,2.39655,220.792,0.322982
235.9000,2.58992,219.994,0.312086
235.8000,-1.83474,220.294,0.316191
235.7000,0.616255,220.085,0.313326
235.6000,0.973597,220.529,0.319395
235.5000,-0.414711,220.857,0.323878
235.4000,2.34744,220.155,0.314287
235.3000,0.024602,221.601,0.333999
235.2000,-0.0369202,220.667,0.321281
235.1000,-0.330465,220.743,0.322317
235.0000,-0.21688,220.743,0.322317
234.9000,1.61969,221.356,0.330669
234.8000,1.93447,221.273,0.329543
234.7000,-0.183777,220.558,0.319797
234.6000,1.351,220.456,0.318405
234.5000,0.146903,220.861,0.323924
234.4000,0.792988,221.246,0.329173
234.3000,0.856265,221.33,0.330314
234.2000,1.06456,221.92,0.338341
234.1000,2.10396,221.906,0.338141
234.0000,1.17897,221.734,0.335816
233.9000,-0.246823,222.638,0.348069
233.8000,3.37324,222.153,0.341494
233.7000,3.35595,222.774,0.34991
233.6000,2.83682,222.727,0.349281
233.5000,1.67929,222.753,0.349634
233.4000,0.0542471,222.744,0.349511
233.3000,1.33096,221.819,0.336971
233.2000,0.0230745,222.258,0.342924
233.1000,1.29696,222.652,0.348268
233.0000,1.91574,222.545,0.34681
232.9000,1.70433,222.707,0.349005
232.8000,1.619,223.193,0.355581
232.7000,1.36836,222.836,0.350753
232.6000,0.428998,223.206,0.355765
232.5000,1.1366,222.578,0.347255
232.4000,2.9022,223.475,0.359393
232.3000,2.70576,224.396,0.371811
232.2000,2.14644,223.336,0.35751
232.1000,1.80103,223.856,0.36453
232.0000,2.41579,223.572,0.360708
231.9000,1.9997,223.883,0.364897
231.8000,1.32976,223.918,0.36537
231.7000,0.729989,223.459,0.359179
231.6000,1.96036,223.707,0.362528
231.5000,2.03859,223.662,0.361917
231.4000,1.76427,224.079,0.367539
231.3000,1.56271,224.146,0.368439
231.2000,2.13274,223.738,0.362941
231.1000,1.23975,223.587,0.360907
231.0000,0.996672,224.62,0.374829
230.9000,0.838017,224.209,0.369294
230.8000,1.16609,224.218,0.369416
230.7000,0.524575,223.757,0.363201
230.6000,2.9262,224.276,0.370194
230.5000,2.03205,224.377,0.371552
230.4000,2.46413,224.712,0.376063
230.3000,1.37226,224.354,0.371247
230.2000,0.478915,223.958,0.365905
230.1000,-0.564843,224.379,0.371582
230.0000,1.23106,224.658,0.375332
229.9000,-0.0598837,225.147,0.381906
229.8000,0.025795,225.202,0.382636
229.7000,0.885514,224.446,0.372482
229.6000,1.61268,224.16,0.368638
229.5000,1.59297,225.018,0.380172
229.4000,1.60287,224.764,0.376763
229.3000,-1.33507,225.593,0.387878
229.2000,0.951025,226.131,0.395082
229.1000,1.90616,225.525,0.386967
229.0000,0.461906,225.69,0.389183
228.9000,1.43457,225.31,0.384096
228.8000,0.218659,225.828,0.391034
228.7000,2.47676,225.73,0.389714
228.6000,3.0619,225.418,0.385539
228.5000,2.36655,225.954,0.392718
228.4000,1.39749,226.066,0.394218
228.3000,1.30692,225.803,0.3907
228.2000,0.457404,226.456,0.399428
228.1000,0.209387,226.297,0.397308
228.0000,2.73373,226.099,0.394658
227.9000,1.44983,226.343,0.397914
227.8000,0.255464,226.839,0.40454
227.7000,0.43616,227.224,0.409674
227.6000,-0.884315,227.424,0.412329
227.5000,0.685016,227.579,0.414395
227.4000,1.56426,227.513,0.413521
227.3000,1.99118,227.284,0.410474
227.2000,1.64151,227.483,0.413113
227.1000,3.32804,228.509,0.426748
227.0000,2.70204,228.025,0.420328
226.9000,1.01861,228.047,0.420614
226.8000,1.66237,227.825,0.417664
226.7000,0.755428,227.486,0.413159
226.6000,2.46935,228.337,0.424464
226.5000,1.87106,227.669,0.4156
226.4000,3.01628,228.732,0.429706
226.3000,2.3261,228.354,0.42469
226.2000,3.92209,228.39,0.425171
226.1000,2.46299,229.389,0.438401
226.0000,3.35739,228.745,0.429871
225.9000,2.50744,228.423,0.425606
225.8000,1.66642,229.105,0.434641
225.7000,2.42582,229.175,0.43557
225.6000,1.58003,229.518,0.440093
225.5000,-1.1081,229.369,0.438132
225.4000,1.83007,229.589,0.441036
225.3000,1.91456,228.338,0.424479
225.2000,1.70859,229.457,0.4393
225.1000,1.5122,230.989,0.459484
225.0000,1.09413,229.838,0.444326
224.9000,3.6414,230.038,0.446956
224.8000,1.31435,230.145,0.448375
224.7000,2.48648,229.848,0.444461
224.6000,1.39372,230.279,0.450137
224.5000,0.861718,229.971,0.446075
224.4000,1.34625,230.367,0.451301
224.3000,0.230357,230.374,0.451391
224.2000,2.51359,231.07,0.460541
224.1000,1.66701,230.186,0.448913
224.0000,2.16822,230.615,0.454567
223.9000,0.723438,230.524,0.45336
223.8000,1.57453,230.987,0.459454
223.7000,0.975659,230.795,0.456922
223.6000,0.62539,231.221,0.46252
223.5000,2.86748,231.735,0.469267
223.4000,1.84552,231.258,0.463011
223.3000,-0.679573,231.156,0.461672
223.2000,1.25686,231.096,0.460883
223.1000,2.67045,232.024,0.473052
223.0000,0.406894,231.458,0.465642
222.9000,0.482641,231.907,0.471523
222.8000,1.35492,231.952,0.472117
222.7000,1.01612,232.22,0.475617
222.6000,2.24455,233.092,0.487013
222.5000,1.88349,232.657,0.481334
222.4000,0.105454,232.599,0.480579
222.3000,1.51637,232.202,0.475379
222.2000,0.316905,232.223,0.475661
222.1000,1.61709,232.867,0.484071
222.0000,2.08337,232.193,0.475261
221.9000,2.05705,232.538,0.47978
221.8000,1.23979,232.596,0.480535
221.7000,2.9222,233.188,0.488254
221.6000,1.6315,234.45,0.504673
221.5000,3.63947,233.837,0.496709
221.4000,2.96333,233.163,0.487929
221.3000,2.17531,233.16,0.487899
221.2000,2.51987,233.058,0.48657
221.1000,2.56254,233.723,0.495234
221.0000,3.26378,233.71,0.495058
220.9000,2.89301,234.375,0.503703
220.8000,0.511633,234.295,0.502658
220.7000,5.37751,233.476,0.492019
220.6000,2.33589,234.9,0.510507
220.5000,3.04386,234.364,0.503556
220.4000,0.843766,234.892,0.510404
220.3000,1.77625,235.114,0.513281
220.2000,4.4338,235.024,0.512122
220.1000,2.22942,234.938,0.511006
220.0000,-0.146664,235.451,0.517651
219.9000,3.34762,234.997,0.51177
219.8000,0.695091,234.499,0.505306
219.7000,0.809736,235.816,0.522367
219.6000,1.62678,235.085,0.512914
219.5000,3.35849,236.002,0.524766
219.4000,2.43149,235.763,0.521679
219.3000,1.40639,235.027,0.512151
219.2000,3.79578,235.562,0.519087
219.1000,3.23212,235.663,0.52039
219.0000,2.83908,236.258,0.52807
218.9000,0.246872,236.442,0.530437
218.8000,2.365,235.641,0.520097
218.7000,3.33257,235.918,0.523684
218.6000,2.6376,237.086,0.538737
218.5000,2.85318,236.98,0.537367
218.4000,0.110724,236.146,0.526623
218.3000,1.92185,236.943,0.536886
218.2000,2.80268,236.599,0.532466
218.1000,3.08007,236.675,0.533444
218.0000,4.34181,235.992,0.524634
217.9000,-0.233327,237.331,0.541883
217.8000,0.357224,237.451,0.543426
217.7000,1.26158,237.545,0.544634
217.6000,1.588,236.679,0.533488
217.5000,1.11251,237.74,0.547135
217.4000,1.28601,237.336,0.541942
217.3000,1.07505,237.228,0.540558
217.2000,0.441241,237.721,0.546888
217.1000,0.461318,238.294,0.554238
217.0000,3.19799,238.31,0.554441
216.9000,3.62936,238.351,0.554963
216.8000,4.27014,237.988,0.550318
216.7000,2.47829,238.762,0.560225
216.6000,1.77154,239.197,0.565784
216.5000,0.408695,238.491,0.556761
216.4000,4.79735,238.821,0.560979
216.3000,1.24056,239.159,0.565292
216.2000,0.722101,239.093,0.564453
216.1000,1.46166,238.863,0.561514
216.0000,3.47047,239.272,0.566738
215.9000,1.54047,238.929,0.562354
215.8000,2.47763,239.245,0.566391
215.7000,-1.61013,239.287,0.566926
215.6000,2.94006,239.468,0.569239
215.5000,1.97841,240.217,0.578779
215.4000,4.34658,239.64,0.571435
215.3000,1.48554,238.592,0.558052
215.2000,1.70587,239.682,0.57197
215.1000,2.71772,240.062,0.576804
215.0000,4.12738,239.7,0.572201
214.9000,2.93976,239.739,0.572692
214.8000,1.13085,240.222,0.578837
214.7000,2.70734,240.792,0.58608
214.6000,1.57752,240.602,0.583677
214.5000,-0.406672,240.115,0.577482
214.4000,0.788764,241.633,0.596753
214.3000,0.778645,240.458,0.581848
214.2000,0.642581,240.523,0.582669
214.1000,2.68686,240.77,0.585807
214.0000,1.13334,240.993,0.58864
213.9000,1.62005,240.461,0.581877
213.8000,-0.561333,241.109,0.590106
213.7000,-1.03876,240.924,0.587763
213.6000,1.92659,241.747,0.598187
213.5000,1.29387,241.699,0.597585
213.4000,1.9185,241.468,0.594658
213.3000,2.15833,241.678,0.597312
213.2000,-0.0970608,241.879,0.599864
213.1000,1.19106,241.518,0.59529
213.0000,2.47547,242.204,0.603975
212.9000,1.19343,242.089,0.602515
212.8000,3.88508,242.735,0.610669
212.7000,1.1966,241.998,0.601369
212.6000,4.52567,242.591,0.608854
212.5000,0.837714,242.123,0.602944
212.4000,0.385566,242.689,0.610098
212.3000,1.07391,241.75,0.59823
212.2000,2.03952,241.925,0.600438
212.1000,1.18594,242.172,0.60356
212.0000,2.03667,244.008,0.626696
211.9000,-1.86737,242.884,0.612555
211.8000,1.75093,244.039,0.627081
211.7000,2.60564,243.264,0.617337
211.6000,2.72084,243.961,0.626099
211.5000,-1.83096,244.089,0.627707
211.4000,3.14635,243.173,0.616195
211.3000,0.320838,243.347,0.618378
211.2000,-0.789813,244.357,0.631076
211.1000,2.0428,244.433,0.632028
211.0000,2.61946,243.894,0.625259
210.9000,1.21194,244.091,0.627735
210.8000,3.01403,244.902,0.637906
210.7000,2.61653,244.46,0.632369
210.6000,-0.186031,244.68,0.635124
210.5000,2.0612,244.033,0.62701
210.4000,0.678184,244.378,0.631332
210.3000,2.47611,245.156,0.641082
210.2000,1.0301,244.596,0.634074
210.1000,0.0540655,245.197,0.641592
210.0000,2.82533,245.569,0.646237
209.9000,1.36563,245.511,0.645516
209.8000,2.0719,245.305,0.642938
209.7000,0.124414,245.526,0.6457
209.6000,4.95729,244.809,0.636742
209.5000,0.915257,245.938,0.650849
209.4000,2.10911,245.828,0.649477
209.3000,1.81047,246.202,0.654141
209.2000,0.676505,246.091,0.652757
209.1000,2.21587,246.273,0.65503
209.0000,1.18624,246.711,0.660477
208.9000,0.290553,246.91,0.662958
208.8000,0.599977,246.486,0.657684
208.7000,0.532805,246.737,0.660801
208.6000,2.17565,247.829,0.674367
208.5000,1.58882,247.285,0.667618
208.4000,2.88403,247.384,0.668842
208.3000,-1.24635,247.506,0.670362
208.2000,2.18879,248.527,0.68301
208.1000,3.17122,248.408,0.681538
208.0000,2.73537,248.537,0.683136
207.9000,2.11249,248.782,0.686161
207.8000,3.07523,248.537,0.683136
207.7000,2.3715,248.66,0.684649
207.6000,1.06341,249.121,0.690346
207.5000,2.97742,248.317,0.680416
207.4000,0.648552,249.416,0.693994
207.3000,0.421936,249.554,0.695685
207.2000,3.7928,249.814,0.698895
207.1000,2.02217,249.83,0.699091
207.0000,0.822116,249.484,0.694833
206.9000,2.60205,249.205,0.691381
206.8000,0.66576,250.124,0.702703
206.7000,0.91969,249.907,0.70004
206.6000,1.77122,249.93,0.700319
206.5000,0.951711,250.454,0.706771
206.4000,1.836,251.065,0.714269
206.3000,4.04865,250.841,0.711516
206.2000,3.60766,250.483,0.707119
206.1000,1.75384,250.042,0.701699
206.0000,3.60597,251.048,0.714061
205.9000,2.62832,251.246,0.716492
205.8000,1.8544,251.601,0.720836
205.7000,2.18269,251.736,0.722487
205.6000,-0.152783,251.88,0.724247
205.5000,1.28363,251.957,0.725189
205.4000,4.37828,251.575,0.720517
205.3000,2.67432,253.775,0.747362
205.2000,0.354946,252.513,0.731987
205.1000,3.99186,253.134,0.739558
205.0000,-0.176097,252.816,0.735677
204.9000,1.50728,252.948,0.737294
204.8000,-0.621847,253.659,0.745943
204.7000,1.33717,253.775,0.747362
204.6000,-0.150223,253.648,0.745819
204.5000,2.6884,254.524,0.756455
204.4000,-0.640536,253.869,0.748505
204.3000,0.857677,254.882,0.760794
204.2000,3.2903,255.52,0.768513
204.1000,-0.625655,255.926,0.773413
204.0000,4.01571,254.928,0.761343
203.9000,2.15666,256.031,0.774685
203.8000,2.64368,255.124,0.763716
203.7000,5.39905,254.664,0.758145
203.6000,3.63385,256.234,0.777131
203.5000,1.68467,256.444,0.779658
203.4000,1.65967,255.602,0.769499
203.3000,1.07681,255.583,0.769266
203.2000,2.41859,256.2,0.776721
203.1000,4.40333,255.623,0.769759
203.0000,7.46367,257.095,0.787501
202.9000,2.62958,257.056,0.787024
202.8000,1.54413,256.679,0.782497
202.7000,3.26012,257.619,0.793791
202.6000,2.96625,257.698,0.794743
202.5000,3.51747,257.565,0.793152
202.4000,2.98082,257.851,0.796579
202.3000,2.3431,258.585,0.805376
202.2000,1.7903,258.251,0.801374
202.1000,4.47503,258.403,0.803192
202.0000,1.53426,259.48,0.816074
201.9000,1.47542,259.458,0.815804
201.8000,2.74996,259.928,0.821411
201.7000,1.8519,260.29,0.82573
201.6000,-0.267745,258.863,0.808697
201.5000,3.28414,259.97,0.821911
201.4000,3.65309,260.093,0.823383
201.3000,1.79272,261.446,0.839461
201.2000,3.77295,260.979,0.833921
201.1000,0.381325,260.814,0.831956
201.0000,5.33481,261.209,0.836652
200.9000,0.856123,261.762,0.843209
200.8000,2.30141,262.307,0.84966
200.7000,0.126101,261.961,0.845557
200.6000,2.80211,262.335,0.849982
200.5000,2.19074,262.584,0.852929
200.4000,-1.71052,263.466,0.863344
200.3000,1.68923,263.231,0.860566
200.2000,1.23755,263.213,0.860352
200.1000,0.679341,263.859,0.867961
200.0000,4.71718,264.025,0.869921
199.9000,2.63251,263.856,0.867935
199.8000,1.86956,264.724,0.878136
199.7000,2.89461,264.719,0.878069
199.6000,1.25332,264.28,0.872919
199.5000,1.41691,264.848,0.879585
199.4000,0.841774,264.551,0.8761
199.3000,-0.0228833,264.321,0.873398
199.2000,0.268156,265.879,0.891664
199.1000,1.90436,265.563,0.887965
199.0000,3.5524,266.022,0.893333
198.9000,3.1019,265.951,0.892512
198.8000,4.58573,266.231,0.895783
198.7000,2.41482,266.562,0.899646
198.6000,2.87517,267.037,0.905182
198.5000,0.0437127,266.923,0.903862
198.4000,0.0235833,267.415,0.90959
198.3000,1.1646,267.138,0.906357
198.2000,2.01433,267.915,0.915401
198.1000,2.14168,267.968,0.91602
198.0000,3.03242,267.628,0.912068
197.9000,0.800066,267.983,0.916191
197.8000,4.34848,268.679,0.924266
197.7000,1.57537,268.045,0.916915
197.6000,3.22728,269.431,0.932979
197.5000,-0.846742,269.13,0.929491
197.4000,2.0109,269.275,0.931169
197.3000,-1.11403,269.856,0.93789
197.2000,3.62786,269.846,0.937772
197.1000,1.28787,270.166,0.941475
197.0000,3.96239,270.509,0.945422
196.9000,4.73443,270.626,0.94678
196.8000,2.67121,271.42,0.95591
196.7000,0.888914,270.825,0.949065
196.6000,1.43929,270.615,0.94665
196.5000,5.54453,272.025,0.96286
196.4000,0.375451,270.919,0.950148
196.3000,-0.639479,272.336,0.966434
196.2000,5.04511,272.948,0.973442
196.1000,2.09945,273.053,0.974647
196.0000,1.1328,273.836,0.983593
195.9000,-1.83443,273.935,0.984718
195.8000,4.69502,274.138,0.987032
195.7000,-4.32575,274.765,0.994182
195.6000,0.903171,275.093,0.997906
195.5000,2.85242,274.957,0.99636
195.4000,-0.827418,275.1,0.997984
195.3000,3.65839,275.912,1.00721
195.2000,1.12885,276.218,1.01068
195.1000,1.40752,276.445,1.01324
195.0000,2.8425,276.559,1.01454
194.9000,4.33783,276.751,1.01671
194.8000,3.12583,277.356,1.02354
194.7000,4.3149,278.14,1.03239
194.6000,-0.0676538,278.066,1.03156
194.5000,2.33896,278.009,1.03092
194.4000,0.77024,278.316,1.03438
194.3000,-0.675108,278.706,1.03876
194.2000,2.37822,280.516,1.05906
194.1000,0.588687,280.389,1.05764
194.0000,3.19038,281.38,1.06872
193.9000,-2.55808,281.047,1.065
193.8000,2.14709,282.19,1.07775
193.7000,2.17422,282.383,1.07989
193.6000,-0.194334,281.75,1.07284
193.5000,-2.49903,283.646,1.09392
193.4000,-2.21051,283.731,1.09486
193.3000,3.5804,284.688,1.10544
193.2000,2.89869,284.714,1.10573
193.1000,4.36669,285.809,1.11782
193.0000,1.42414,286.867,1.12944
192.9000,5.13775,287.112,1.13214
192.8000,4.97265,286.725,1.12789
192.7000,2.33496,288.017,1.14205
192.6000,1.99895,289.219,1.15518
192.5000,5.06811,290.091,1.16468
192.4000,2.64473,291.618,1.18125
192.3000,1.00914,290.529,1.16944
192.2000,3.42252,291.819,1.18343
192.1000,5.66594,292.257,1.18816
192.0000,4.62059,293.483,1.20139
191.9000,1.71473,293.608,1.20275
191.8000,0.56785,294.269,1.20986
191.7000,0.86506,295.325,1.22119
191.6000,1.13997,297.14,1.2406
191.5000,1.6792,297.06,1.23974
191.4000,2.66763,297.721,1.24679
191.3000,0.852727,299.378,1.26438
191.2000,1.69173,300.94,1.2809
191.1000,2.56827,301.53,1.28711
191.0000,2.50125,303.888,1.31187
190.9000,6.12792,304.778,1.32118
190.8000,-1.31173,305.822,1.33206
190.7000,-2.60146,308.078,1.35547
190.6000,1.38317,308.714,1.36205
190.5000,4.11872,309.802,1.37327
190.4000,3.54489,311.596,1.3917
190.3000,-2.2215,312.781,1.40382
190.2000,-2.8749,314.093,1.4172
190.1000,5.40935,314.969,1.42611
190.0000,2.69495,316.502,1.44165

##### Extended Information
[Comments]
Sample name,LW+MB Buffer
Comment,Buffer
User,Leah Whitehouse and Michael Boden
Division
Company,Saint Mary's College

[Detailed Information]
Creation date,9/29/2022 1:42 PM

Data array type,Linear data array * 3
Horizontal axis,Wavelength [nm]
Vertical axis(1),CD [mdeg]
Vertical axis(2),HT [V]
Vertical axis(3),Abs
Start,320 nm
End,190 nm
Data interval,0.1 nm
Data points,1301    

[Measurement Information]
Instrument name,J-1500
Model name,J-1500
Serial No.,B051061638

Detector,PM-539
Detector S/N,B051061638
  Lock-in amp.,X mode
  HT volt,Auto

Accessory,PTC-517
Accessory S/N,B026561646
  Temperature,22.57 C
  Control sensor,Holder
  Monitor sensor,Holder

Measurement date,9/29/2022 1:41 PM

CD Overload detect,1276
Photometric mode,CD, HT, Abs
Measure range,320 - 190 nm
Data pitch,0.1 nm
CD scale,20 mdeg/0.05 dOD
FL scale,20 mdeg/0.05 dOD
D.I.T.,8 msec
Bandwidth,2.00 nm
Start mode,Immediately
Scanning mode,Continuous
Scanning speed,200 nm/min
Baseline correction,None
Shutter control,Auto
No. of cycle,1/1
N2 Flowmeter,Manual

Solvent,NaPO4 buffer

