TITLE,TB_TH_KD_Protein and Additive,,
DATA TYPE,,,
ORIGIN,JASCO,,
OWNER,,,
DATE,22/09/29,,
TIME,16:59:09,,
SPECTROMETER/DATA SYSTEM,,,
LOCALE,1033,,
RESOLUTION,,,
DELTAX,-0.1,,
XUNITS,NANOMETERS,,
YUNITS,Î¸M [deg*cm^2/dmol],,
Y2UNITS,HT [V],,
Y3UNITS,ABSORBANCE,,
FIRSTX,320,,
LASTX,190,,
NPOINTS,1301,,
FIRSTY,0.84122,,
MAXY,28.98565,,
MINY,-60.63684,,
XYDATA,,,
320,126254.88,-70.34693317,-2.804824667
319.9,-244688.3177,-70.25543733,-2.801761667
319.8,-308708.0912,-69.62152367,-2.791229
319.7,61422.8878,-70.61776167,-2.805020333
319.6,-236886.1571,-70.18756533,-2.804601333
319.5,-714598.1523,-70.50121333,-2.803797
319.4,-58642.22918,-70.47228667,-2.801166333
319.3,-365199.0761,-69.39267167,-2.788832
319.2,-400715.5416,-69.53800567,-2.789642333
319.1,-81601.6689,-69.54414667,-2.787455
319,358887.1256,-69.819166,-2.79392
318.9,-215726.7173,-69.391752,-2.792414667
318.8,-148359.857,-69.80778533,-2.800356333
318.7,81424.82491,-69.490205,-2.790231667
318.6,147967.218,-68.9772231,-2.785382333
318.5,-459695.2764,-69.51338667,-2.796217667
318.4,-435448.3684,-69.72984967,-2.797707333
318.3,-205147.0188,-69.69484367,-2.791462
318.2,-409239.4576,-69.94356333,-2.788703333
318.1,-929131.724,-69.53638533,-2.796445333
318,-584845.0305,-70.10559333,-2.792892
317.9,-223697.2135,-68.29756,-2.678198333
317.8,-598838.8467,-69.26257833,-2.785401
317.7,5291.431977,-69.33827183,-2.790753667
317.6,216071.3605,-69.78519133,-2.794976667
317.5,-323927.1793,-70.13836333,-2.794250667
317.4,-475196.543,-69.591545,-2.789412333
317.3,-452573.2827,-70.08000333,-2.791794667
317.2,-745415.1393,-69.2369088,-2.788888667
317.1,41412.90419,-69.71201367,-2.792606
317,-929.5187006,-69.33918633,-2.793702667
316.9,-638002.8312,-69.83356,-2.801845667
316.8,-698553.2707,-69.28490133,-2.787753333
316.7,-69523.91596,-69.47130767,-2.794855333
316.6,-130310.833,-70.37248297,-2.804824
316.5,-243704.1425,-68.9198424,-2.784406667
316.4,221273.5807,-69.61649,-2.789055333
316.3,-411436.835,-69.13402467,-2.790438333
316.2,-102566.8306,-69.12040367,-2.784860333
316.1,-401861.2725,-69.56386767,-2.791025333
316,-194423.5583,-69.678945,-2.796037
315.9,-1085958.128,-69.24293333,-2.765754667
315.8,-550632.4989,-69.296876,-2.790458667
315.7,-423507.9571,-70.37954333,-2.797736333
315.6,-821186.917,-69.52905833,-2.789978667
315.5,-247245.8799,-69.52621267,-2.78858
315.4,-190226.4938,-69.70649767,-2.793556667
315.3,-449209.0747,-69.13869933,-2.790981333
315.2,-352772.1651,-68.8234679,-2.783174333
315.1,228594.3675,-68.672589,-2.777619667
315,7804.500075,-69.18929667,-2.784734333
314.9,-215082.3126,-70.39642033,-2.801401
314.8,-300248.2491,-69.471675,-2.788849333
314.7,225316.3463,-69.27955667,-2.784231333
314.6,-580276.1138,-69.871826,-2.794277333
314.5,-47811.07138,-69.55827733,-2.798296
314.4,-534218.7453,-69.42782333,-2.787752333
314.3,-113446.2822,-69.33693,-2.788922
314.2,-286263.7461,-69.69436467,-2.792086333
314.1,-781856.6533,-69.78450333,-2.790988333
314,-6762.479511,-68.65296867,-2.781481667
313.9,-80992.83266,-69.73485733,-2.791463
313.8,-585682.5063,-68.01395333,-2.729470333
313.7,-102683.9517,-68.36961667,-2.777553667
313.6,-25238.71256,-70.28110267,-2.799395333
313.5,-163476.9781,-68.7581523,-2.781941333
313.4,-9585.456713,-69.28366233,-2.790793333
313.3,385592.6091,-70.10597667,-2.802736
313.2,-807368.0525,-68.124641,-2.775557333
313.1,66593.19028,-69.34742186,-2.790592333
313,-536294.74,-70.54795,-2.801923667
312.9,-445149.7392,-69.467875,-2.791485667
312.8,488363.1352,-69.041913,-2.782294
312.7,-331607.3461,-68.99752,-2.779461667
312.6,-394184.0262,-69.35476467,-2.791254667
312.5,42123.97556,-68.45942,-2.779168333
312.4,214054.5224,-69.16169633,-2.785691667
312.3,-94166.63686,-69.27573,-2.783822667
312.2,-207223.6775,-69.383659,-2.786612
312.1,-72561.91328,-69.20098433,-2.786147667
312,-350872.7462,-69.67162,-2.792401333
311.9,38936.67114,-69.56334,-2.788656333
311.8,-496057.4513,-69.15371533,-2.792146667
311.7,-368583.1024,-70.37165567,-2.801819333
311.6,-74009.08955,-69.84601233,-2.797118333
311.5,-365860.0805,-69.07279992,-2.786647667
311.4,-451818.2089,-69.02399467,-2.785659
311.3,-279045.2392,-69.58924,-2.788471333
311.2,-833357.4728,-68.823197,-2.780185
311.1,-382943.0785,-69.342277,-2.788473667
311,404808.2104,-69.46214963,-2.791866
310.9,215802.1159,-69.74614667,-2.789062
310.8,-198205.7816,-69.36243767,-2.791788333
310.7,-599412.0101,-70.20333667,-2.797654
310.6,-13589.03293,-69.48159933,-2.793829667
310.5,-26469.37863,-69.41650833,-2.792736
310.4,-919149.1283,-69.910572,-2.794239667
310.3,-460246.014,-68.301144,-2.780357
310.2,38617.64268,-69.687556,-2.792759333
310.1,384462.8073,-69.78193133,-2.798026333
310,-415496.2003,-68.857565,-2.782809333
309.9,558.9628967,-68.99833233,-2.781511333
309.8,-10511.93563,-69.199735,-2.791286
309.7,-87233.79526,-69.42666433,-2.790247333
309.6,-462283.7133,-69.997011,-2.796499
309.5,301152.8833,-69.69322233,-2.794180667
309.4,-129969.9747,-69.61057867,-2.793032333
309.3,-332011.8909,-68.60415333,-2.760881667
309.2,-486324.7057,-70.1707512,-2.802117
309.1,-121244.8219,-69.7561266,-2.796018333
309,-97445.07525,-69.52381,-2.786989333
308.9,225251.8254,-69.608885,-2.79274
308.8,-273402.9951,-69.86764933,-2.796963333
308.7,233898.6738,-69.129339,-2.783817333
308.6,-105414.8711,-68.89710333,-2.745828333
308.5,-793579.4963,-68.99954267,-2.782095667
308.4,-26597.37744,-69.803131,-2.799693
308.3,-402887.2001,-69.81892433,-2.792735667
308.2,2785.57592,-70.36481497,-2.804649
308.1,409104.9918,-69.41559667,-2.786006667
308,-148551.6316,-69.69755467,-2.792798
307.9,-527116.8008,-68.709136,-2.778914
307.8,-358157.9496,-69.75439267,-2.794624667
307.7,-414345.6564,-69.82991,-2.794745333
307.6,91287.98987,-69.89625467,-2.797682
307.5,217434.8085,-68.50587567,-2.776384333
307.4,-665937.2821,-69.17829567,-2.789930333
307.3,47219.04336,-69.20705,-2.786248667
307.2,-209117.3894,-69.705992,-2.795257667
307.1,-282832.3648,-69.508865,-2.790085333
307,-524154.9695,-68.49121067,-2.779033
306.9,152880.5975,-70.54615133,-2.803397667
306.8,-624776.99,-69.36230067,-2.791547667
306.7,-50587.84086,-70.16287633,-2.801490667
306.6,-539751.0058,-70.08417267,-2.798080667
306.5,-591832.6628,-69.290987,-2.787634667
306.4,-446048.2789,-70.068791,-2.798972
306.3,-456500.2563,-68.874703,-2.784699667
306.2,384622.858,-70.17417667,-2.795544667
306.1,-44377.88705,-68.733384,-2.784925333
306,-1016135.405,-69.98454733,-2.795159667
305.9,-848502.1308,-69.89157283,-2.79807
305.8,-212260.4679,-68.91702733,-2.783402
305.7,-518084.7862,-68.48208,-2.763355333
305.6,-109024.1395,-70.27551267,-2.801231
305.5,1779.764566,-69.59241733,-2.79517
305.4,-368929.8167,-69.08918467,-2.784626667
305.3,-3768.141857,-69.233821,-2.787593333
305.2,-676427.0302,-69.439988,-2.791200333
305.1,-301972.627,-68.97039333,-2.780741333
305,211373.5658,-68.96859583,-2.784913
304.9,-77041.0371,-70.01456667,-2.791393
304.8,317908.8064,-69.9268,-2.79209
304.7,-421473.9979,-69.16331267,-2.789425333
304.6,-876207.4207,-68.98810167,-2.786259667
304.5,-114900.7748,-68.91857967,-2.780527333
304.4,-241428.2968,-69.27429167,-2.788379667
304.3,-1029078.23,-69.10073133,-2.78559
304.2,-113187.6024,-69.80774833,-2.792669
304.1,-324265.4001,-68.76526267,-2.786096
304,92561.01922,-69.218475,-2.787890667
303.9,-588910.8926,-68.73669967,-2.777085667
303.8,-1012154.522,-69.75292233,-2.793041667
303.7,-583996.0378,-69.25824333,-2.786566333
303.6,62097.95858,-69.09923133,-2.783553667
303.5,215905.2302,-69.732318,-2.797897
303.4,-251531.6644,-69.308001,-2.791465
303.3,148017.136,-68.55433567,-2.780744667
303.2,-211438.1165,-69.25838667,-2.784523333
303.1,-358978.0063,-69.29041467,-2.790709
303,-553543.5852,-68.95759167,-2.781828667
302.9,-301662.8669,-68.99953967,-2.78328
302.8,248668.5591,-69.484659,-2.788069667
302.7,441327.373,-69.3739,-2.778203
302.6,-289714.588,-69.58989667,-2.787752667
302.5,-197043.1977,-68.59057467,-2.782283
302.4,-362912.0846,-69.47409067,-2.789805333
302.3,-20042.37819,-69.38105533,-2.789051
302.2,-577947.2508,-69.45789567,-2.791226667
302.1,-165188.0793,-69.19255511,-2.788365667
302,-288200.9388,-70.33999767,-2.800626667
301.9,-301250.0373,-69.347556,-2.787905333
301.8,291771.6585,-68.99414933,-2.786496
301.7,-351361.198,-68.96241667,-2.779366333
301.6,-304274.1171,-68.715695,-2.781902
301.5,100085.9782,-69.39658833,-2.793306667
301.4,-307155.0887,-69.65906767,-2.792414
301.3,287337.9526,-68.80333033,-2.783988333
301.2,100292.0578,-69.46279,-2.784792
301.1,-139936.0006,-70.07878333,-2.791949333
301,-503254.9546,-69.570495,-2.791456333
300.9,-75784.38385,-69.472993,-2.793333667
300.8,-221084.6074,-68.55054667,-2.780030667
300.7,-524125.3613,-69.29199633,-2.792329333
300.6,-16918.93906,-69.87410267,-2.793580667
300.5,-496734.3168,-69.34877667,-2.783702667
300.4,-317024.2885,-68.56450767,-2.781883333
300.3,-352050.6631,-68.75959,-2.782949667
300.2,-416732.8267,-69.31511067,-2.792857667
300.1,216764.5656,-69.98283,-2.794765
300,-869644.8219,-69.947274,-2.798282333
299.9,-41534.94263,-69.07542,-2.783847
299.8,-603480.2563,-68.53931833,-2.782155667
299.7,-400537.2374,-69.12184067,-2.784410667
299.6,-906043.6597,-68.09808187,-2.772273667
299.5,-292906.1243,-69.16613533,-2.789487
299.4,-412113.6939,-69.96812667,-2.793713667
299.3,-534104.4703,-68.49153433,-2.779750333
299.2,342057.4132,-68.52422233,-2.781536667
299.1,-32628.59484,-68.39325333,-2.772089667
299,-558757.7112,-69.03871933,-2.786641667
298.9,301208.0018,-69.679238,-2.792281333
298.8,-145433.7655,-69.473698,-2.791594333
298.7,-521806.2882,-69.16663467,-2.786062
298.6,-322577.2612,-68.49156367,-2.781568
298.5,402906.7203,-69.83502037,-2.797445
298.4,-307223.2901,-68.61404267,-2.782687
298.3,182707.7291,-69.53213867,-2.797672
298.2,-503345.7756,-69.38741333,-2.782551667
298.1,-397990.4634,-68.90780467,-2.785954333
298,-862855.6102,-69.75833667,-2.791284333
297.9,-264614.6625,-69.503865,-2.790011333
297.8,-476018.3281,-68.97225013,-2.785558
297.7,-102253.5092,-68.768637,-2.781859333
297.6,71674.34063,-69.81847333,-2.788177667
297.5,146820.7421,-69.54454333,-2.785800667
297.4,22915.95887,-68.65865567,-2.781432333
297.3,-387549.2326,-68.580945,-2.777629
297.2,-304724.3451,-69.0630177,-2.78625
297.1,66784.08583,-69.14030467,-2.791299
297,-123060.0507,-68.56933033,-2.780616333
296.9,-61589.92699,-69.54348033,-2.790149
296.8,-344844.8815,-70.16530133,-2.800375667
296.7,-362621.3083,-69.060656,-2.785855667
296.6,-505514.0814,-69.516135,-2.789050667
296.5,-468630.3532,-68.54437633,-2.780323333
296.4,-717820.2801,-69.008343,-2.784962
296.3,217955.8486,-69.87529533,-2.794470667
296.2,343600.0149,-69.03944267,-2.784719
296.1,-529015.4969,-68.95519877,-2.784909
296,-585746.0885,-69.27230867,-2.786637333
295.9,-455235.5834,-69.17205367,-2.787297333
295.8,-526461.6302,-69.63326833,-2.790713667
295.7,-434677.3953,-69.25044933,-2.785452
295.6,-318689.2564,-68.66943823,-2.780492
295.5,385469.0359,-69.27184067,-2.786565333
295.4,-331814.2155,-69.14860667,-2.782658333
295.3,52663.09045,-70.16142333,-2.792777667
295.2,-540830.1594,-68.209539,-2.773274667
295.1,-218095.1125,-69.57606333,-2.788213667
295,-138212.8148,-68.7254192,-2.781506667
294.9,-352444.9411,-68.70442267,-2.782792333
294.8,-216421.7702,-69.28155033,-2.787958667
294.7,-341809.9091,-68.87732267,-2.783198667
294.6,-587058.2626,-68.36823867,-2.774827333
294.5,-503484.7266,-70.13142667,-2.792673333
294.4,-580405.1557,-69.75142667,-2.793945667
294.3,-482534.4956,-68.742854,-2.779782333
294.2,-103957.6814,-69.59542,-2.791304333
294.1,-371888.3922,-68.66148667,-2.773809333
294,-706739.4129,-69.0500257,-2.786533333
293.9,-90299.80629,-69.31858467,-2.787916667
293.8,-128036.3582,-69.15807533,-2.789751
293.7,259275.3688,-68.92821033,-2.786611
293.6,-308705.4537,-68.55941967,-2.777777667
293.5,523169.7214,-69.931813,-2.797055667
293.4,-365250.1863,-68.62572867,-2.781309
293.3,-259281.0311,-69.218309,-2.784523333
293.2,-989745.3435,-68.57730667,-2.777928333
293.1,2578.885412,-69.05724,-2.777921333
293,62595.44032,-68.21166367,-2.771358
292.9,1849.35181,-68.79288767,-2.781195
292.8,-91568.49948,-69.69223267,-2.792116667
292.7,-146473.9979,-69.105588,-2.786370667
292.6,-803434.0635,-68.269848,-2.774005667
292.5,-440015.4969,-69.16501503,-2.78754
292.4,-118212.934,-68.80007767,-2.777957333
292.3,66294.29295,-69.79926333,-2.795548333
292.2,-836738.9659,-68.1111616,-2.773161
292.1,-533831.3217,-69.42278,-2.790451
292,-889698.8526,-68.51748297,-2.778285667
291.9,-470929.0866,-67.91772553,-2.769583333
291.8,-162203.6954,-68.51489933,-2.775229667
291.7,-62676.94829,-68.292545,-2.777544333
291.6,-58480.97154,-69.36018,-2.782770333
291.5,-367819.252,-68.41534933,-2.778187333
291.4,-472357.2195,-69.20953033,-2.785702333
291.3,187241.6927,-69.02554667,-2.777286667
291.2,-369486.47,-67.82359733,-2.772634
291.1,1988.272985,-68.67864133,-2.779436
291,-856252.3618,-68.50429127,-2.778642
290.9,-447425.7786,-68.96707367,-2.788269
290.8,-14044.72955,-67.827734,-2.770121
290.7,-470240.6944,-67.88915567,-2.768312333
290.6,-237980.4798,-68.21244623,-2.774388333
290.5,-75726.2703,-69.00646,-2.778551
290.4,221050.9611,-68.56031433,-2.775362667
290.3,-194475.3092,-67.584838,-2.762089333
290.2,-798205.0365,-68.20597267,-2.775256667
290.1,-125350.1714,-68.95643767,-2.785959
290,-250595.2466,-68.68953067,-2.776896
289.9,-770207.0183,-68.81917667,-2.777455333
289.8,-131908.5382,-69.08000167,-2.785488333
289.7,73287.14052,-68.76127967,-2.780275667
289.6,-650146.0289,-68.52882933,-2.780628333
289.5,-307352.7939,-67.70775333,-2.745975667
289.4,-552179.9046,-69.21477067,-2.786879333
289.3,133092.8327,-68.68541567,-2.779322667
289.2,-313644.4941,-68.18461833,-2.775015667
289.1,-401665.1766,-68.32178933,-2.775240333
289,-707776.6354,-68.37142933,-2.774289667
288.9,211314.7072,-68.1810217,-2.773822
288.8,-513804.6342,-68.49606333,-2.776825
288.7,-340635.3748,-68.41370667,-2.77139
288.6,-234011.4737,-68.30165467,-2.774858
288.5,-30572.32901,-68.550496,-2.780934333
288.4,-210145.2839,-67.46726967,-2.759697667
288.3,52445.25406,-68.87267667,-2.781667333
288.2,-60669.70645,-69.00064533,-2.784330667
288.1,-468130.219,-67.91253567,-2.771502
288,-39968.48458,-69.121831,-2.785192667
287.9,-842233.1396,-68.25974467,-2.774296
287.8,-212032.186,-67.72860667,-2.762256
287.7,-61648.33855,-67.80987167,-2.770230667
287.6,-87002.90568,-68.61128933,-2.777377
287.5,-566113.0979,-68.21059933,-2.775599333
287.4,243744.1514,-67.80825267,-2.768973667
287.3,-171205.3643,-67.79470333,-2.753392
287.2,3292.489942,-68.81434567,-2.779668
287.1,-113794.2184,-69.026877,-2.783896333
287,128832.3245,-68.27335333,-2.769484
286.9,-273870.8985,-68.6795281,-2.780714
286.8,-421981.9699,-68.693222,-2.777148333
286.7,-264777.6784,-68.08602437,-2.772612
286.6,-42818.0599,-68.12694067,-2.774863333
286.5,-388538.2208,-67.80541867,-2.769634667
286.4,-188104.4554,-68.751193,-2.783020333
286.3,-185703.9189,-68.26895263,-2.774967
286.2,3614.215467,-68.02694667,-2.775314667
286.1,-682882.7298,-67.83501,-2.764061667
286,-438156.2956,-68.001298,-2.767728667
285.9,-360937.3372,-68.15701667,-2.771815
285.8,-452827.7768,-68.04652,-2.765693333
285.7,-434982.3573,-68.63605,-2.775275667
285.6,-431825.3613,-68.73514,-2.774090667
285.5,-528428.8482,-67.886209,-2.767429667
285.4,-259332.9012,-68.45687,-2.771287667
285.3,-183224.5418,-68.27443033,-2.774336667
285.2,-143516.9125,-68.35649093,-2.776486
285.1,-507327.224,-69.124522,-2.785353
285,-144020.7123,-68.42517567,-2.779937333
284.9,-461097.1539,-68.33074667,-2.765966367
284.8,-731624.661,-68.56169,-2.775366667
284.7,183066.4283,-68.83811333,-2.776659333
284.6,179808.0808,-67.90753607,-2.770150333
284.5,275867.0243,-67.822745,-2.766687333
284.4,-81762.92654,-68.38648,-2.770782
284.3,-201790.6124,-68.01626367,-2.768597333
284.2,-307767.4415,-68.00385967,-2.76816
284.1,-561838.0271,-67.92611733,-2.769233
284,-376035.7622,-67.85190367,-2.772778333
283.9,-121449.024,-68.97726667,-2.778370667
283.8,-672447.2657,-68.234155,-2.7717777
283.7,226350.6184,-68.44434433,-2.781058333
283.6,-74267.47132,-68.151775,-2.774670667
283.5,-206406.7948,-68.77007433,-2.780065667
283.4,183548.0554,-69.23206933,-2.785036
283.3,119967.963,-68.35151933,-2.774114667
283.2,-338338.3996,-68.36104433,-2.775084
283.1,-545240.9477,-68.02484533,-2.770341667
283,-318320.9656,-68.70001503,-2.780850667
282.9,-211344.807,-68.66612567,-2.776312667
282.8,-1035569.2,-68.79327133,-2.781597667
282.7,-536403.7908,-68.30002867,-2.774588667
282.6,-261234.2423,-67.883631,-2.774223333
282.5,-302420.8017,-67.72447933,-2.762626
282.4,392494.2632,-67.63461967,-2.764495667
282.3,-347474.4449,-68.52942633,-2.777761333
282.2,763902.9504,-68.36110433,-2.773268667
282.1,-441218.4026,-68.23597167,-2.774277667
282,-178615.5565,-68.14296767,-2.772681667
281.9,-429122.6345,-67.80818333,-2.772966333
281.8,-640416.7784,-68.53722767,-2.777974
281.7,333613.2916,-67.0078818,-2.756609
281.6,174047.8319,-67.119657,-2.762051667
281.5,-55020.26524,-68.30244333,-2.770065
281.4,-494191.0297,-68.25861,-2.766169
281.3,-549932.9459,-67.49371467,-2.766932
281.2,-328878.1106,-67.736696,-2.769283
281.1,-167062.4348,-66.9601961,-2.75612
281,357851.5869,-68.38069,-2.771396333
280.9,-599598.6142,-67.98044133,-2.769417333
280.8,-60430.33825,-68.81411233,-2.780283333
280.7,-185688.571,-68.24347067,-2.772327
280.6,45137.6397,-69.11905667,-2.779914333
280.5,-857182.0146,-68.06293,-2.770622667
280.4,-360884.965,-68.146196,-2.768985333
280.3,-504053.3453,-68.83456333,-2.779674
280.2,-312102.5183,-68.6209,-2.774140333
280.1,-594919.2967,-66.929897,-2.755093333
280,-784454.4181,-67.789703,-2.766453333
279.9,-407966.7114,-68.695325,-2.777980333
279.8,-191341.5288,-69.01819733,-2.788426
279.7,-664855.044,-68.02914633,-2.769782
279.6,-241303.3825,-67.99910167,-2.772011333
279.5,-256808.5233,-69.18550367,-2.783741333
279.4,-560168.2313,-67.93262233,-2.771645
279.3,383819.0285,-68.92559667,-2.776230333
279.2,-489570.8538,-68.44755033,-2.776011
279.1,-423243.1381,-68.23052633,-2.771425667
279,467360.9447,-68.722675,-2.778118333
278.9,-223031.4335,-67.99995393,-2.771188
278.8,-677831.7687,-68.96759567,-2.782212667
278.7,-335799.2848,-68.093022,-2.768552667
278.6,-168502.7567,-67.251962,-2.756797333
278.5,-574814.3198,-68.847675,-2.779895667
278.4,-170367.4564,-68.225646,-2.775977333
278.3,-163386.4402,-68.5553,-2.771803333
278.2,-87371.13694,-68.088271,-2.768719
278.1,144415.795,-68.292946,-2.777625667
278,-58516.15259,-67.44832967,-2.761785
277.9,-137591.5512,-68.054413,-2.770148667
277.8,11996.57279,-68.56505667,-2.772071667
277.7,353252.8684,-68.1272488,-2.773363667
277.6,-386370.2876,-67.944768,-2.772663667
277.5,-389911.3992,-67.77212133,-2.771388333
277.4,-411707.4952,-68.31472633,-2.772657
277.3,-737846.9677,-69.04067633,-2.782777333
277.2,-196451.0505,-67.628974,-2.767103333
277.1,-167429.0419,-68.09034133,-2.773066667
277,-111522.3216,-68.83152133,-2.782504
276.9,-228551.6615,-68.26176467,-2.775592
276.8,-380152.1085,-67.47346467,-2.764951333
276.7,-669182.8342,-67.78998333,-2.763242
276.6,-493222.4706,-69.50683333,-2.786763
276.5,-306207.1673,-68.96953333,-2.779823
276.4,-216527.0451,-67.777258,-2.76619
276.3,-559720.1609,-68.54494233,-2.776928
276.2,-407028.4607,-67.702012,-2.767718667
276.1,-431937.4758,-68.77772,-2.777573667
276,-369986.6786,-67.81475,-2.750068
275.9,187110.8926,-67.63119333,-2.727845
275.8,4268.714052,-69.04385,-2.779758
275.7,-423189.0925,-68.252709,-2.770705333
275.6,-185684.9948,-68.304925,-2.772461667
275.5,-340882.7298,-67.7178296,-2.767650667
275.4,-239127.1048,-68.871139,-2.782739333
275.3,-343181.2696,-68.58931333,-2.778506667
275.2,-80354.93965,-68.26176433,-2.771504
275.1,-183119.8033,-69.1679,-2.782037333
275,58460.88511,-68.39840067,-2.775663333
274.9,-96901.35598,-68.584949,-2.777939
274.8,-511512.1442,-68.04393833,-2.769474
274.7,-45297.49665,-68.57750233,-2.774937
274.6,-751914.4688,-67.335258,-2.762528333
274.5,355494.4122,-67.41609733,-2.764790667
274.4,-461265.4448,-68.43783233,-2.775477333
274.3,-140314.8562,-68.31557,-2.772648667
274.2,-493465.862,-68.54207667,-2.778312667
274.1,-491829.9285,-68.56617667,-2.773908333
274,-291051.7062,-68.20865467,-2.773529333
273.9,250032.037,-68.52813867,-2.783281667
273.8,-58618.68574,-67.32541787,-2.761307
273.7,-402533.08,-68.19412133,-2.773295667
273.6,-234168.2313,-68.20436,-2.775851333
273.5,-79733.10982,-68.745902,-2.781439333
273.4,-604829.2505,-68.42955733,-2.781616
273.3,493255.2675,-68.773358,-2.778484667
273.2,-463268.8273,-68.452266,-2.776398
273.1,-1000621.219,-68.24827,-2.766883
273,-551672.2098,-68.585944,-2.776285
272.9,-163365.8173,-68.76316,-2.775686667
272.8,-394828.9525,-68.053525,-2.775584333
272.7,373085.2332,-67.672822,-2.769334
272.6,-434303.159,-68.436823,-2.774873667
272.5,-319387.7217,-67.22370333,-2.745229333
272.4,24942.19043,-69.37828933,-2.788363333
272.3,-609186.47,-67.77156567,-2.768664333
272.2,-381842.0504,-67.85953667,-2.768073667
272.1,-187585.5908,-68.12922533,-2.770582333
272,-584294.591,-69.352266,-2.789312333
271.9,-436435.1065,-68.58165667,-2.773518
271.8,-230269.7512,-68.89665333,-2.783352
271.7,-275928.0286,-68.242728,-2.770376
271.6,-454851.885,-68.906841,-2.779992667
271.5,-495587.0079,-68.52153667,-2.773505
271.4,-409351.2144,-67.88421467,-2.770541
271.3,75030.56176,-68.47450533,-2.776395
271.2,-419528.9823,-68.59131267,-2.781243
271.1,185881.5378,-67.60025667,-2.706777667
271,86596.58769,-69.31867933,-2.788230333
270.9,-39863.90702,-68.29243433,-2.774825333
270.8,-279768.5889,-69.118707,-2.785738
270.7,-583348.115,-68.67985567,-2.777612
270.6,-476483.2365,-68.179096,-2.775731333
270.5,81598.86753,-67.44826867,-2.762169333
270.4,-832795.4254,-68.18784567,-2.775419333
270.3,-375829.3846,-67.90876233,-2.769030667
270.2,-532253.3155,-68.37424481,-2.77667
270.1,-19911.65251,-68.80114233,-2.780655333
270,84516.61451,-67.885317,-2.765859667
269.9,-139463.7163,-68.79236433,-2.780514
269.8,-256030.2488,-69.127613,-2.785562
269.7,-642961.1086,-68.80524867,-2.780408333
269.6,-273178.7066,-68.67444267,-2.77952
269.5,-304972.4929,-68.78301233,-2.779258333
269.4,-358727.6412,-67.56189867,-2.762855333
269.3,356318.5069,-68.50234933,-2.779518
269.2,-38382.05931,-67.60254767,-2.763736667
269.1,-274002.1308,-67.52293633,-2.760634667
269,-471763.7461,-69.765173,-2.792209333
268.9,-44720.45895,-68.67539883,-2.780961667
268.8,-262269.5574,-69.216671,-2.791729667
268.7,-96529.28029,-68.33632233,-2.776834333
268.6,-549223.3646,-68.735339,-2.778161
268.5,-408329.3011,-68.779888,-2.779745667
268.4,-951254.6565,-69.02302967,-2.783735667
268.3,-374883.7729,-68.979493,-2.784275667
268.2,-681386.9572,-68.3149513,-2.775613333
268.1,57887.43853,-68.48049,-2.771507333
268,-422469.5872,-68.44219067,-2.773025333
267.9,-202857.5473,-67.85289867,-2.767099667
267.8,-378627.6427,-68.390657,-2.777754333
267.7,-703374.2944,-68.90615097,-2.784000333
267.6,-225106.3925,-68.32142717,-2.776267
267.5,-59917.29996,-68.94739267,-2.783124
267.4,-399511.3992,-69.43905667,-2.789962667
267.3,-926153.6284,-68.542448,-2.775295
267.2,-291796.4536,-69.20127233,-2.784795667
267.1,-173951.8701,-68.643254,-2.778489667
267,73973.20817,-68.84136867,-2.782806
266.9,-570278.498,-68.447347,-2.777260667
266.8,289849.7988,-68.95069667,-2.779970667
266.7,-373971.9863,-68.08202333,-2.771258667
266.6,-753565.4895,-68.80533633,-2.779041333
266.5,-12125.25704,-69.09862333,-2.781702667
266.4,-936730.1296,-68.42701503,-2.777053
266.3,-797220.0864,-68.859908,-2.782086333
266.2,-330700.909,-68.59603633,-2.778064667
266.1,-641963.4183,-69.139761,-2.786625667
266,-60842.6464,-68.780822,-2.778453333
265.9,232995.6787,-68.22978833,-2.772609
265.8,-179261.511,-68.33306017,-2.775784333
265.7,-105657.2791,-68.9750965,-2.785794
265.6,243626.7322,-69.31218667,-2.789305333
265.5,-250999.1059,-69.394978,-2.792663333
265.4,-472733.1247,-69.01007467,-2.786306333
265.3,-359215.7056,-68.898289,-2.785530333
265.2,-31248.23424,-69.101209,-2.784961
265.1,-264492.6241,-68.20641267,-2.776450667
265,194163.4183,-68.79029667,-2.779083333
264.9,-278505.7368,-68.79672467,-2.783589333
264.8,182925.4955,-69.68877867,-2.791513667
264.7,-319318.4324,-69.42449633,-2.789469333
264.6,-385931.3962,-69.59003567,-2.789469667
264.5,-213112.3678,-69.33093717,-2.790592
264.4,-364514.9754,-68.66587433,-2.782797
264.3,-581140.456,-69.32068,-2.784399
264.2,-623137.3864,-68.96835233,-2.782341
264.1,-319063.8653,-68.23274167,-2.777977667
264,-859961.6153,-68.58683233,-2.777722667
263.9,-532662.9712,-69.11295,-2.781558
263.8,233099.6871,-69.41542767,-2.790577
263.7,69268.8422,-69.73738233,-2.79241
263.6,-326265.5342,-68.46935367,-2.775306333
263.5,-506612.5764,-69.08426333,-2.785367
263.4,-300948.0778,-70.07817567,-2.796843
263.3,-364626.6279,-69.719642,-2.793072333
263.2,-295611.8313,-69.74555377,-2.796193667
263.1,248892.1174,-69.56282427,-2.793808333
263,-352074.2065,-70.28228067,-2.799368
262.9,191379.9583,-69.48725833,-2.789451333
262.8,-237184.3689,-69.87552267,-2.793410667
262.7,561896.5877,-68.98181497,-2.784944333
262.6,258125.421,-69.75955833,-2.795297333
262.5,-550500.5215,-69.49755833,-2.791564333
262.4,-321645.4627,-69.02632967,-2.781859333
262.3,-366933.2439,-69.38774133,-2.791758333
262.2,-173338.5487,-69.36478533,-2.787301
262.1,-247761.4364,-69.94720333,-2.794010667
262,-465724.0799,-69.63365967,-2.791577667
261.9,-427688.6798,-69.16542,-2.789269
261.8,-210452.0757,-69.78560333,-2.795739333
261.7,11533.15452,-69.565528,-2.78936
261.6,-113757.4132,-69.74387567,-2.79412
261.5,-630695.2764,-69.09646923,-2.787227
261.4,-183512.8379,-69.78856,-2.789167333
261.3,-213180.45,-69.669795,-2.793544667
261.2,306609.1492,-69.948061,-2.796143333
261.1,-830585.7547,-69.48869,-2.788711667
261,-52854.74594,-69.82573667,-2.792316
260.9,-51207.42065,-69.27348697,-2.789503
260.8,166541.648,-69.17023533,-2.784943
260.7,-319723.8862,-69.77681533,-2.792293
260.6,-487336.4923,-69.33528197,-2.790085667
260.5,-644274.5194,-69.48046433,-2.795118
260.4,-124469.4531,-69.379471,-2.787364333
260.3,-274179.3324,-69.058572,-2.784836333
260.2,-535617.8364,-69.05087433,-2.788303
260.1,-177121.8894,-69.78401,-2.792036
260,-390605.111,-69.10545467,-2.786500333
259.9,-686668.7528,-70.06353767,-2.799744333
259.8,32370.88362,-69.248111,-2.790612667
259.7,76619.57979,-69.33199337,-2.790062667
259.6,-351729.0675,-70.19605933,-2.800902
259.5,-444009.6111,-69.36247767,-2.790174
259.4,-339095.4701,-69.62405137,-2.794999
259.3,366680.4202,-70.34400167,-2.807607667
259.2,-427806.7352,-69.81270867,-2.794469667
259.1,-141710.7734,-70.42701667,-2.804278333
259,-181718.1791,-69.69622267,-2.792912333
258.9,-58405.15571,-70.107229,-2.800491667
258.8,223989.8674,-69.61177067,-2.792643333
258.7,96748.77068,-69.14642667,-2.789516333
258.6,-775676.2032,-70.0448818,-2.800122667
258.5,-21095.51483,-69.81196467,-2.793774333
258.4,81285.2034,-70.38518,-2.796181667
258.3,-15881.23976,-70.670304,-2.807644667
258.2,-527201.4603,-70.25488667,-2.804758667
258.1,-7571.896886,-69.455189,-2.792934667
258,-576873.2678,-69.067125,-2.787548667
257.9,-437604.1425,-69.13946,-2.790720667
257.8,23412.90419,-70.094904,-2.796824333
257.7,265147.2001,-69.15145367,-2.78576
257.6,-162381.6123,-70.30559933,-2.805543333
257.5,-795816.8678,-69.77000433,-2.795603667
257.4,-385298.3162,-70.224703,-2.801319333
257.3,52423.18581,-69.930104,-2.797162333
257.2,-398427.8945,-69.19051467,-2.787412
257.1,404745.8203,-69.68037733,-2.798094
257,-718326.1362,-69.28478667,-2.786387
256.9,220457.3089,-69.35161433,-2.789006333
256.8,-196285.5014,-70.46687,-2.798625333
256.7,-707933.691,-70.554624,-2.805210667
256.6,-515895.634,-69.81341787,-2.797065333
256.5,-141036.2092,-69.6976078,-2.796105333
256.4,-358284.6074,-69.76384637,-2.796734333
256.3,-372095.6638,-69.9178216,-2.798721
256.2,-258909.2535,-69.80214033,-2.796221667
256.1,-392009.1939,-70.41254533,-2.806513333
256,-598713.1277,-71.171629,-2.815553
255.9,-223544.1216,-70.33715,-2.798953333
255.8,275174.2065,-70.39343433,-2.804893667
255.7,-301748.5025,-68.81335903,-2.783424333
255.6,-98943.57026,-69.397,-2.791476333
255.5,-277092.0876,-70.368217,-2.803483
255.4,36404.57458,-70.260463,-2.802067667
255.3,-409479.3324,-69.75044,-2.794851667
255.2,-651996.7218,-70.71216333,-2.805048333
255.1,-333533.1396,-70.00502333,-2.794794
255,-20938.45925,-69.863514,-2.795537
254.9,21643.76397,-69.84484133,-2.796298667
254.8,-481549.2773,-70.46883867,-2.804905333
254.7,35962.71793,-69.74982633,-2.795374667
254.6,-288312.6956,-69.932652,-2.798149333
254.5,-260515.482,-70.26845767,-2.801853
254.4,-184544.4792,-69.907775,-2.795834
254.3,-424376.9185,-69.29478467,-2.794400333
254.2,-98718.16421,-70.401493,-2.80456
254.1,-386498.5397,-70.40065,-2.800535667
254,251053.4943,-70.04326917,-2.800729
253.9,-367800.1788,-70.26912633,-2.804662667
253.8,-97353.30055,-69.553849,-2.789938333
253.7,-831254.6521,-70.72920008,-2.810242
253.6,-804367.826,-70.89169333,-2.803482
253.5,-593167.4862,-69.85517533,-2.801821333
253.4,-559127.2538,-71.23206633,-2.814615667
253.3,-251502.3096,-70.409101,-2.805139333
253.2,-162063.9249,-70.18074833,-2.798111
253.1,-242609.924,-70.6244679,-2.808829
253,-145416.1973,-70.09412933,-2.798428333
252.9,-245071.3754,-70.25938667,-2.798797333
252.8,-33246.31203,-70.67766967,-2.808352333
252.7,-437922.6643,-70.88968667,-2.805720667
252.6,-505812.9936,-70.79325533,-2.809143667
252.5,132731.3366,-71.45426333,-2.814901
252.4,-24960.52749,-70.63466167,-2.804642
252.3,-471537.1778,-71.20629033,-2.815684667
252.2,-389291.5363,-69.66576833,-2.796098667
252.1,-458359.4248,-70.31459453,-2.804078
252,-457608.6276,-70.24673667,-2.802352667
251.9,-559155.342,-70.06981367,-2.800440667
251.8,205294.1439,-70.19268467,-2.801120667
251.7,-56278.49799,-70.0717512,-2.800763333
251.6,93257.63672,-70.418262,-2.804307
251.5,-835037.4907,-70.88928633,-2.811023333
251.4,-385283.2663,-70.83201467,-2.812560333
251.3,-280152.3916,-71.13518633,-2.812466333
251.2,-728923.752,-70.61272033,-2.807851667
251.1,-507823.7222,-71.32474133,-2.815092667
251,-448300.9984,-70.77782567,-2.808494667
250.9,166317.8066,-70.96908133,-2.810495
250.8,-163705.707,-71.21333433,-2.814408
250.7,-353662.7924,-70.058412,-2.797586667
250.6,-72167.93324,-71.46876833,-2.817387333
250.5,154732.6181,-71.0919513,-2.815104333
250.4,-70134.4211,-70.08807267,-2.802911667
250.3,-529649.471,-69.880613,-2.799103667
250.2,442764.5656,-71.61319833,-2.819866667
250.1,-802367.4564,-70.37110667,-2.807666667
250,7839.01058,-70.93353033,-2.814276
249.9,-724213.679,-70.658425,-2.808107
249.8,-563948.1448,-71.111383,-2.817235
249.7,24637.60989,-70.96127667,-2.812779333
249.6,-254460.2891,-71.62985,-2.820503
249.5,207054.0307,-70.382586,-2.803289333
249.4,-1090917.896,-70.45924747,-2.806625
249.3,-281124.7057,-70.92498767,-2.809587
249.2,-21719.41737,-71.11565733,-2.815123
249.1,-201161.3768,-70.666973,-2.809132333
249,-510114.9903,-71.21860367,-2.814687667
248.9,-695363.8057,-71.11127167,-2.813280667
248.8,-94457.3983,-70.72675433,-2.808830667
248.7,-141716.7784,-71.36471433,-2.815378
248.6,-309530.0253,-70.460074,-2.805651333
248.5,-475917.1509,-71.28422667,-2.815638
248.4,38353.00253,-70.74360367,-2.808036333
248.3,243065.713,-70.84369,-2.810602
248.2,-636519.7437,-70.88753867,-2.808812333
248.1,-1004740.173,-70.4919823,-2.807252333
248,-550603.0845,-71.13643033,-2.815139
247.9,-420858.5904,-70.94828667,-2.810579333
247.8,-509046.1928,-70.84485333,-2.811127
247.7,-724037.2523,-70.86951067,-2.810915
247.6,-668908.6574,-70.96650233,-2.809113667
247.5,-951630.3084,-71.051904,-2.813007333
247.4,-546707.3461,-71.340244,-2.817455
247.3,65167.65013,-70.78348333,-2.805402667
247.2,-448530.9343,-70.28671007,-2.804012667
247.1,-509883.0875,-71.12742633,-2.814770333
247,-485049.8286,-71.136699,-2.816584667
246.9,-839915.4969,-70.96954933,-2.810583667
246.8,-905945.6117,-69.8370615,-2.797561667
246.7,-456637.9079,-71.33602467,-2.814966333
246.6,-232403.0845,-71.770131,-2.823333333
246.5,-832355.7234,-70.58404333,-2.802896333
246.4,-1208718.075,-71.023765,-2.813678333
246.3,-581636.4178,-70.73578087,-2.810586
246.2,-582851.3336,-71.364089,-2.817830333
246.1,-387251.9744,-70.69280433,-2.808726667
246,-238303.7103,-71.59743667,-2.815377667
245.9,-684470.6452,-70.34528333,-2.799304
245.8,-585120.2503,-71.06584,-2.809532
245.7,-528894.7698,-71.38751333,-2.813101333
245.6,-611196.6533,-70.9992625,-2.813829
245.5,-850432.1264,-71.19764667,-2.811759
245.4,-987845.1796,-70.69951667,-2.807621667
245.3,-950163.91,-70.854066,-2.813303
245.2,-1057949.039,-70.959694,-2.812499333
245.1,-1090043.213,-71.115969,-2.815218667
245,-913122.7984,-70.99025467,-2.813224667
244.9,-388318.2983,-70.538507,-2.808724333
244.8,113735.0618,-71.192775,-2.817939667
244.7,-417026.242,-70.65012533,-2.80614
244.6,-783749.6647,-70.80934,-2.806630333
244.5,-1200175.622,-69.8501744,-2.797870667
244.4,-362099.2401,-71.04514733,-2.816908333
244.3,-840954.7459,-71.23845067,-2.816468667
244.2,-846669.1998,-71.50215233,-2.818302333
244.1,-1432136.835,-71.57461567,-2.820402667
244,-716893.1605,-70.81416233,-2.810653333
243.9,-994144.9858,-70.46122267,-2.804014667
243.8,-851538.2208,-70.81714733,-2.813762333
243.7,-1053510.922,-71.10595,-2.811313333
243.6,-1619251.84,-70.42858347,-2.806516667
243.5,-784205.2153,-71.717123,-2.822136
243.4,-594019.5202,-71.4157986,-2.819795
243.3,-1566018.888,-71.73178433,-2.822059
243.2,-1456690.21,-71.48351833,-2.817339667
243.1,-892775.8456,-70.840104,-2.814189333
243,-865706.0051,-71.33725267,-2.816719
242.9,-702915.5864,-71.363997,-2.816383667
242.8,-1100340.337,-71.040784,-2.817719667
242.7,-1458419.639,-71.64934433,-2.822497333
242.6,-1446441.767,-71.534825,-2.820459667
242.5,-1133411.116,-71.29519167,-2.815131
242.4,-1400377.291,-71.56475233,-2.817873333
242.3,-1742529.31,-70.428004,-2.806481333
242.2,-1153318.581,-70.59818967,-2.810575667
242.1,-707861.4215,-70.5335321,-2.807691
242,-2013995.083,-70.60800833,-2.811916667
241.9,-1980460.14,-70.41324267,-2.808593
241.8,-1093968.604,-70.77445633,-2.813125333
241.7,-1191882.983,-71.02576967,-2.815403
241.6,-982795.9648,-71.081629,-2.817032
241.5,-1616852.481,-71.15068933,-2.817654333
241.4,-1415584.46,-71.0341483,-2.814213667
241.3,-1700855.908,-70.87981267,-2.814624667
241.2,-2078347.385,-71.224307,-2.814483667
241.1,-1921528.684,-72.28111333,-2.822919333
241,-1548829.608,-70.95704467,-2.817614
240.9,-1741604.232,-71.790085,-2.823610333
240.8,-1673601.892,-71.96984333,-2.819777
240.7,-1502632.097,-71.80827333,-2.819250333
240.6,-1651033.602,-71.16098833,-2.814538667
240.5,-1881666.816,-71.30611967,-2.819025667
240.4,-1933342.721,-71.35043867,-2.817473
240.3,-2109067.561,-70.83168433,-2.809181333
240.2,-1884607.957,-71.12153077,-2.81585
240.1,-1933201.758,-71.40427733,-2.816630667
240,-2657362.837,-70.80957667,-2.810396333
239.9,-1971857.294,-71.63805133,-2.820956333
239.8,-2567867.561,-71.28823367,-2.819013333
239.7,-1997887.379,-70.83329833,-2.811386
239.6,-2516586.853,-71.11428197,-2.815570333
239.5,-2182886.455,-71.9267295,-2.826902
239.4,-2547592.46,-71.64966167,-2.821743
239.3,-2626500.969,-71.83576033,-2.822251333
239.2,-2450728.744,-70.45663667,-2.810393333
239.1,-2197607.51,-72.263858,-2.829965
239,-2270590.598,-71.18049333,-2.812065667
238.9,-2259512.74,-71.16213333,-2.814700667
238.8,-3396788.705,-71.46588667,-2.824577333
238.7,-1974930.264,-70.758265,-2.808429333
238.6,-3076547.31,-71.93291,-2.822080667
238.5,-2363878.26,-72.10150773,-2.829397333
238.4,-2554042.646,-71.22393933,-2.819202
238.3,-3437320.849,-70.691092,-2.807955
238.2,-3238148.264,-71.021908,-2.813365
238.1,-3053128.744,-72.11352067,-2.827758333
238,-2680894.516,-70.680792,-2.809749333
237.9,-3490965.43,-71.38671667,-2.817663
237.8,-3478498.137,-70.93100367,-2.811314333
237.7,-3584485.323,-71.35537767,-2.818180667
237.6,-2624299.955,-71.247811,-2.814785333
237.5,-3542879.452,-70.9644,-2.810346667
237.4,-3204077.932,-70.98913,-2.809231
237.3,-3711563.85,-71.181973,-2.812987667
237.2,-3573184.771,-72.07430333,-2.822517667
237.1,-3957030.696,-71.20912233,-2.818235667
237,-2695632.693,-72.42321,-2.828283667
236.9,-4179821.04,-71.90041333,-2.820089333
236.8,-3985017.389,-70.81880133,-2.809827667
236.7,-3621288.631,-71.36423867,-2.815597667
236.6,-4340924.899,-71.2384843,-2.817821667
236.5,-4525353.152,-71.29772333,-2.817044
236.4,-4318553.569,-70.68276933,-2.808810333
236.3,-4100302.514,-70.82791733,-2.811594333
236.2,-4352435.256,-71.409591,-2.816132667
236.1,-3995902.25,-70.88035667,-2.808188333
236,-4526244.449,-71.29766333,-2.812277
235.9,-4418303.83,-71.13913067,-2.814077667
235.8,-5300508.717,-70.38375333,-2.797482333
235.7,-3892753.315,-70.77057733,-2.810567
235.6,-4790447.771,-70.75205533,-2.812281333
235.5,-4682279.094,-71.12713667,-2.811820667
235.4,-5253757.368,-71.77105,-2.819373667
235.3,-4871741.456,-71.707607,-2.821202
235.2,-4743446.282,-70.63315333,-2.807516667
235.1,-4330186.738,-69.99083667,-2.804883333
235,-4564643.049,-71.080562,-2.81282
234.9,-4878231.113,-70.334992,-2.805836
234.8,-5536429.742,-71.215485,-2.816580667
234.7,-4891579.943,-71.67099767,-2.822836333
234.6,-5929573.312,-70.998599,-2.817781333
234.5,-5930402.071,-71.48428933,-2.819309333
234.4,-5351373.417,-71.32820933,-2.816487
234.3,-6561744.449,-71.74882033,-2.822810667
234.2,-5878940.545,-71.06077767,-2.813579333
234.1,-6203844.733,-71.06082867,-2.812703
234,-6430232.752,-71.81697,-2.818316667
233.9,-5843596.632,-70.18607533,-2.806248
233.8,-6118770.869,-70.70667,-2.806099667
233.7,-5877830.577,-71.049621,-2.814762667
233.6,-6035866.249,-71.284634,-2.816274
233.5,-6224694.636,-71.58294367,-2.821534
233.4,-6837252.57,-71.138995,-2.813514667
233.3,-6830039.934,-71.15091547,-2.817904
233.2,-6505956.787,-71.147047,-2.816575333
233.1,-6313733.87,-71.59924667,-2.818906333
233,-6411565.981,-71.3535374,-2.820798333
232.9,-6791316.972,-71.08414967,-2.814016667
232.8,-7488161.973,-71.62097167,-2.823872
232.7,-6950192.013,-71.719236,-2.821318667
232.6,-7392435.33,-72.32733967,-2.831513667
232.5,-6757320.548,-71.632983,-2.822214333
232.4,-7608866.488,-71.21061,-2.818209667
232.3,-7740248.383,-71.36430467,-2.818090667
232.2,-8881979.139,-71.57844967,-2.821506667
232.1,-7467318.581,-71.59130763,-2.823871667
232,-7029495.023,-72.46526233,-2.832978333
231.9,-7034315.571,-71.952428,-2.826741667
231.8,-8282168.976,-71.87829967,-2.829881667
231.7,-8262918.492,-72.461609,-2.833727
231.6,-7642166.562,-72.0256423,-2.829906667
231.5,-8092428.684,-72.4097946,-2.834796667
231.4,-8337060.796,-72.383277,-2.835343
231.3,-9197776.178,-72.08907,-2.829942667
231.2,-9332236.477,-71.86775533,-2.830465333
231.1,-8830966.95,-72.33424083,-2.833992667
231,-8210265.892,-71.89887033,-2.826334
230.9,-9700718.075,-72.93361333,-2.839101
230.8,-8587487.707,-72.528966,-2.833813667
230.7,-8613688.571,-72.61246333,-2.832885333
230.6,-9864502.205,-71.93060867,-2.830929
230.5,-9228593.801,-72.99206133,-2.839007333
230.4,-9405746.387,-73.80781,-2.849300333
230.3,-9562543.868,-72.63678933,-2.83788
230.2,-9369133.631,-72.842866,-2.839906
230.1,-9518808.672,-73.533396,-2.846399
230,-9928210.095,-73.59253067,-2.847228
229.9,-10321844.29,-73.70555833,-2.851561667
229.8,-10847423.04,-73.19459833,-2.843411667
229.7,-10334877.66,-73.94040733,-2.854979
229.6,-9030910.744,-72.7604843,-2.840198667
229.5,-9976728.409,-73.63716867,-2.855056333
229.4,-10549045.6,-73.78702067,-2.850101333
229.3,-10178936.67,-74.241259,-2.855676333
229.2,-10620546.86,-73.82707167,-2.852332
229.1,-10522850.25,-75.72810267,-2.877518333
229,-11028655.94,-75.543556,-2.874424
228.9,-10506424.53,-75.9179075,-2.881492667
228.8,-10514677.84,-76.25061667,-2.878442333
228.7,-10572930.76,-75.004392,-2.873259667
228.6,-9922765.013,-76.65171667,-2.883068
228.5,-11690910.88,-76.63393967,-2.889030667
228.4,-11081279.09,-77.21688667,-2.891182333
228.3,-11515041.28,-76.79500333,-2.886057333
228.2,-10562823.2,-76.52018133,-2.888704
228.1,-10908000.89,-77.266792,-2.898902333
228,-11190901.24,-77.526003,-2.899261
227.9,-11513831.02,-78.14879992,-2.910687
227.8,-11170217.4,-78.57470667,-2.909825333
227.7,-11597706.27,-78.68656767,-2.917016
227.6,-11714024.59,-77.77171633,-2.905002667
227.5,-11783718.82,-78.792331,-2.917617
227.4,-11924282.22,-79.071702,-2.92204
227.3,-12765452.24,-79.60322,-2.924409667
227.2,-11364774.55,-79.47447,-2.921012333
227.1,-11482214.13,-80.12918503,-2.936403
227,-12478783.34,-82.367269,-2.962014667
226.9,-12933599.61,-81.50964567,-2.951088667
226.8,-13210634.38,-81.49516567,-2.953756667
226.7,-12285054.63,-81.682665,-2.953096
226.6,-11854238.89,-81.75293833,-2.954372667
226.5,-12472528.98,-83.52518333,-2.974270333
226.4,-13565122.19,-82.64592967,-2.963890333
226.3,-11874249.68,-83.42131333,-2.970906667
226.2,-12879977.5,-83.451398,-2.976426333
226.1,-13240225.45,-83.89594967,-2.986438333
226,-13418351.39,-85.08467667,-2.996142667
225.9,-12797246.3,-85.79876317,-3.007293
225.8,-13533699.9,-85.049548,-3.000564667
225.7,-12942300.1,-86.33902333,-3.009941
225.6,-12851642.97,-87.76814167,-3.027857667
225.5,-12454417.67,-87.5164192,-3.027616333
225.4,-13951578.45,-89.00529267,-3.048501
225.3,-13362747.73,-87.558008,-3.028478667
225.2,-13061994.04,-90.50314733,-3.066019
225.1,-13615346.36,-89.65291547,-3.053877
225,-13332700.51,-91.61691733,-3.076938
224.9,-13995478.02,-92.072096,-3.081136667
224.8,-13381581.85,-92.030669,-3.080103
224.7,-14415476.53,-92.8378477,-3.092116667
224.6,-13989398.15,-93.96299633,-3.101825333
224.5,-14041281.63,-94.20172553,-3.107791
224.4,-12966342.62,-95.33243667,-3.116651333
224.3,-13922013.11,-95.16957333,-3.120455333
224.2,-14885211.15,-96.40282,-3.129273667
224.1,-14376867.26,-97.91697533,-3.149663667
224,-13421303.23,-98.51196667,-3.157321333
223.9,-14433211.44,-99.55267533,-3.169299667
223.8,-14620493.82,-98.9068858,-3.162962667
223.7,-15316790.05,-100.8085768,-3.185255
223.6,-13754891.03,-101.6352933,-3.190636667
223.5,-13317613.02,-103.5331643,-3.215658
223.4,-13921151.99,-103.09804,-3.213422333
223.3,-14264535.39,-105.64652,-3.237365
223.2,-13754869.47,-106.872861,-3.252496667
223.1,-13861263.61,-107.3008734,-3.259928
223,-14173775.59,-108.4692014,-3.273261333
222.9,-13720844.73,-109.756579,-3.288599667
222.8,-14119549.71,-111.5945783,-3.304582667
222.7,-14748229.18,-113.0260053,-3.324363667
222.6,-14233416.03,-113.6089513,-3.329523
222.5,-15341117.87,-115.281497,-3.347751667
222.4,-14771523.32,-117.4954563,-3.370052333
222.3,-14778682.16,-116.5298167,-3.363970667
222.2,-14903049.81,-118.5359279,-3.38371
222.1,-14699101.48,-119.8525493,-3.395713667
222,-15260716.88,-120.0540682,-3.399561667
221.9,-14931967.67,-122.1950837,-3.422184333
221.8,-14524429.2,-123.6021643,-3.436120333
221.7,-14106367.25,-124.9501704,-3.451886
221.6,-14929964.68,-127.3233117,-3.474999333
221.5,-13463329.16,-127.743417,-3.480494333
221.4,-14995857.55,-130.335696,-3.511490333
221.3,-13036688.03,-131.6395463,-3.521539
221.2,-13407601.48,-133.464468,-3.539917333
221.1,-15828474.3,-135.1969088,-3.559534
221,-14447752.78,-136.4609827,-3.571873667
220.9,-13437621.67,-138.802973,-3.596762333
220.8,-13731828.28,-140.303456,-3.61046
220.7,-14725096.45,-142.057359,-3.629979667
220.6,-12732117.27,-145.1469897,-3.660051333
220.5,-13509788.56,-147.545698,-3.684407667
220.4,-12023905.99,-149.459561,-3.702082
220.3,-13009284.91,-151.396463,-3.721098333
220.2,-15387501.12,-151.9545237,-3.728395333
220.1,-17127753.39,-154.990526,-3.755101333
220,-13483442.83,-157.6994746,-3.784184
219.9,-13369182.24,-159.2293307,-3.797947
219.8,-15630491.01,-161.6060683,-3.821958
219.7,-14363489.79,-164.4114913,-3.844948333
219.6,-15906397.54,-166.59371,-3.862800667
219.5,-15780754.4,-168.135909,-3.885068
219.4,-13183288.93,-171.501652,-3.913926
219.3,-13245526.64,-173.141703,-3.926627667
219.2,-15741601.53,-178.1269067,-3.968828667
219.1,-15628260.8,-178.6428243,-3.980301
219,-13156965.13,-181.580668,-4.00646
218.9,-14616897.63,-184.41739,-4.030975
218.8,-15974314.71,-187.5001833,-4.054316667
218.7,-14971176.87,-190.2474697,-4.081157
218.6,-14960756.65,-192.4410327,-4.099888667
218.5,-12358915.36,-196.8582557,-4.141342333
218.4,-15760318.28,-198.6310137,-4.156437667
218.3,-13503373.91,-202.3120127,-4.187514
218.2,-13528803.37,-205.3331147,-4.215063
218.1,-12525898.08,-210.6148917,-4.259509333
218,-15101617.49,-212.28036,-4.268858667
217.9,-12874098.35,-216.8817763,-4.310265333
217.8,-14230408.88,-219.3511227,-4.331533333
217.7,-14825433.87,-225.0877083,-4.379316333
217.6,-14425118.02,-228.25556,-4.403134333
217.5,-12603637.49,-233.3267618,-4.446315
217.4,-14436717.78,-236.73658,-4.473808
217.3,-13934524.66,-241.3691346,-4.511274333
217.2,-11964720.31,-245.8191833,-4.541541
217.1,-14533797.94,-249.6710053,-4.574162667
217,-12810171.21,-254.211996,-4.608777667
216.9,-11134887.5,-259.488605,-4.647773667
216.8,-11100706.36,-264.4824933,-4.685575667
216.7,-12379539.9,-268.5766166,-4.718047667
216.6,-11382880.79,-272.4246457,-4.744293333
216.5,-12409171.06,-277.925695,-4.786557667
216.4,-15583280.23,-280.8682807,-4.806735667
216.3,-15294862.76,-283.951076,-4.829569667
216.2,-10132629.41,-289.9570733,-4.871825667
216.1,-15233328.83,-293.8082663,-4.898902333
216,-16484562.21,-298.683726,-4.933640667
215.9,-15231921.17,-302.98251,-4.960037
215.8,-17573858.55,-307.7243737,-4.997495667
215.7,-14614208.76,-311.9426206,-5.028198667
215.6,-16845661.6,-316.4172633,-5.053740667
215.5,-15218214.28,-321.0822567,-5.086064667
215.4,-14174290.42,-326.85584,-5.122272667
215.3,-16775483.03,-331.7249003,-5.159954
215.2,-11411636.27,-336.1954507,-5.19068
215.1,-12807226.05,-342.4764,-5.226466667
215,-12989614.11,-346.4139633,-5.251439667
214.9,-14164432.36,-351.886056,-5.287813667
214.8,-14332322.9,-356.286654,-5.317920333
214.7,-11104997.34,-363.0550567,-5.358856
214.6,-15349378.04,-367.9686237,-5.388573
214.5,-14324881.28,-373.3711067,-5.420808667
214.4,-12637777.23,-378.9237,-5.456465667
214.3,-14312600.8,-381.7395533,-5.450253667
214.2,-9941711.816,-388.5455383,-5.516339667
214.1,-14761537.18,-394.9084267,-5.550376667
214,-13837699,-400.2697137,-5.584704667
213.9,-13520237.22,-405.7386387,-5.617761333
213.8,-12819266.43,-410.6126197,-5.642894333
213.7,-12139095.37,-416.9306463,-5.682475667
213.6,-12065339.35,-421.2095593,-5.704430333
213.5,-13668737.15,-426.712186,-5.736516667
213.4,-19800308.15,-432.314644,-5.767443333
213.3,-12244815.82,-438.3815347,-5.800820333
213.2,-12472812.25,-444.3164396,-5.833093333
213.1,-12418048.87,-449.806736,-5.863491
213,-12096841.16,-455.7179767,-5.895458
212.9,-14951991.21,-460.1348097,-5.92019
212.8,-17945466.99,-465.7226333,-5.94829
212.7,-10703773.81,-471.33589,-5.97569
212.6,-15671315.15,-477.8946233,-6.011596667
212.5,-13855610.94,-483.9537867,-6.044606667
212.4,-14328407.24,-489.369099,-6.07066
212.3,-10995843.69,-497.2252033,-6.111486667
212.2,-15917698.85,-501.6853207,-6.13325
212.1,-11597439.43,-509.14349,-6.168846667
212,-14914972.14,-516.186331,-6.206683333
211.9,-16581235.79,-521.559788,-6.233056667
211.8,-12402425.57,-528.4631943,-6.266443333
211.7,-16107181.14,-534.545641,-6.296113333
211.6,-12417545.05,-540.0948813,-6.32196
211.5,-16783794.37,-544.1830403,-6.338936667
211.4,-15740669.94,-550.211884,-6.37076
211.3,-14357482.4,-556.2237533,-6.398463333
211.2,-11781501.12,-560.3560273,-6.418363333
211.1,-10190098.06,-565.3244133,-6.436476667
211,-10220252.42,-569.5502263,-6.45243
210.9,-12992268.91,-575.3591576,-6.48058
210.8,-15307505.47,-581.004626,-6.508853333
210.7,-13905876.77,-585.8502023,-6.531253333
210.6,-15434347.64,-589.8958763,-6.548573333
210.5,-14114410.48,-594.76136,-6.569236667
210.4,-12944562.51,-599.830022,-6.58963
210.3,-14210142.45,-604.3686933,-6.6104
210.2,-15649711.07,-608.0700287,-6.623886667
210.1,-16545750.71,-613.1814883,-6.649503333
210,-12929270.15,-616.2734993,-6.660483333
209.9,-13154119.36,-621.0923483,-6.678796667
209.8,-15682898.52,-626.331632,-6.698836667
209.7,-15162656.65,-629.062792,-6.709156667
209.6,-15115688.11,-634.516561,-6.733176667
209.5,-16122062.14,-639.6491377,-6.756386667
209.4,-15792521.08,-642.4944993,-6.762263333
209.3,-12180177.47,-645.5903317,-6.77242
209.2,-14492426.61,-649.4031933,-6.786753333
209.1,-15163159.29,-652.9000633,-6.802456667
209,-16323223.83,-654.971186,-6.80953
208.9,-14336829.83,-656.1509088,-6.810436667
208.8,-14505102.82,-659.8354333,-6.82383
208.7,-12580528.54,-660.9529157,-6.827606667
208.6,-12245588.29,-662.3904883,-6.827403333
208.5,-16351972.43,-664.6577533,-6.83763
208.4,-14088726.34,-666.4285033,-6.75515
208.3,-13728969.75,-668.265827,-6.85117
208.2,-13753715.39,-671.2295367,-6.862156667
208.1,-14503537.92,-673.2084013,-6.867413333
208,-18044385.49,-673.05492,-6.864906667
207.9,-10839238.41,-674.4110847,-6.87052
207.8,-15559550.89,-677.0977113,-6.87378
207.7,-19027279.42,-676.1736557,-6.866973333
207.6,-10807146.94,-678.0075967,-6.877376667
207.5,-12902509.76,-679.2606233,-6.877026667
207.4,-15993047.68,-678.2694157,-6.871043333
207.3,-15395305.47,-677.7940867,-6.85878
207.2,-12000333.48,-679.406429,-6.87052
207.1,-13936491.13,-677.805853,-6.859376667
207,-16648325.14,-677.8780417,-6.85704
206.9,-16307559.98,-677.806855,-6.855996667
206.8,-13653035.76,-677.8428167,-6.852036667
206.7,-13163942.94,-676.3894993,-6.843906667
206.6,-14663952.63,-674.7939407,-6.83151
206.5,-14510809.12,-674.874681,-6.83256
206.4,-16666072.66,-673.219686,-6.82144
206.3,-15093353.3,-673.4274067,-6.81966
206.2,-9665851.84,-670.866869,-6.803346667
206.1,-12976047.83,-668.9527867,-6.792863333
206,-13574713.47,-667.9952343,-6.787536667
205.9,-14046764.71,-666.4601163,-6.77591
205.8,-13590282.97,-664.5531887,-6.765703333
205.7,-11490769.78,-662.4682557,-6.75243
205.6,-13885624.35,-660.273224,-6.742726667
205.5,-11769502.61,-657.9828597,-6.729513333
205.4,-13274842.29,-654.9491617,-6.70895
205.3,-12266133.36,-653.9645683,-6.70617
205.2,-15354420.8,-650.93046,-6.687566667
205.1,-9597780.629,-647.2433133,-6.66625
205,-10354769.39,-644.945739,-6.654766667
204.9,-12156151.1,-643.34714,-6.642713333
204.8,-8245251.974,-639.4692093,-6.62262
204.7,-12820686.34,-637.308429,-6.612723333
204.6,-6419876.918,-634.0475377,-6.58857
204.5,-9930517.702,-632.4304877,-6.5864
204.4,-9789027.716,-628.3662001,-6.561793333
204.3,-16426521.08,-624.810719,-6.541896667
204.2,-10688682.16,-621.7847243,-6.52399
204.1,-8042293.771,-619.63893,-6.512516667
204,-6180526.553,-617.0880287,-6.496643333
203.9,-5916080.912,-614.897173,-6.484513333
203.8,-9116881.702,-609.001101,-6.45019
203.7,-9080816.272,-606.5123117,-6.438006667
203.6,-11421114.14,-603.3306453,-6.418913333
203.5,-3233668.932,-601.346565,-6.40864
203.4,-9016933.542,-598.4151233,-6.387186667
203.3,-4028230.815,-596.2671057,-6.37777
203.2,-4683000.641,-593.1369107,-6.358493333
203.1,-4358806.735,-590.8659937,-6.346913333
203,-4627832.663,-587.1464187,-6.325963333
202.9,-7091923.558,-584.6994197,-6.309663333
202.8,-4768517.807,-581.968468,-6.294316667
202.7,-4885576.665,-580.148415,-6.28342
202.6,-3107784.98,-579.1255833,-6.27554
202.5,-2261377.097,-575.0463988,-6.25338
202.4,-2922804.202,-572.977943,-6.23969
202.3,-7666659.514,-569.6172967,-6.18518
202.2,-2428012.368,-567.8601967,-6.20401
202.1,-2848602.727,-565.3001837,-6.191566667
202,-7459842.497,-562.2238767,-6.168653333
201.9,775863.3587,-561.1646733,-6.160863333
201.8,-592862.0027,-557.8313893,-6.141043333
201.7,-1136550.589,-556.8843137,-6.133383333
201.6,-1260194.621,-555.3430933,-6.12079
201.5,1719001.49,-554.0651863,-6.11412
201.4,-301438.2357,-551.9716007,-6.09946
201.3,287700.1937,-550.8474467,-6.09338
201.2,5673057.193,-549.403158,-6.078073333
201.1,-17884.96498,-549.4551903,-6.075056667
201,3133275.756,-549.101921,-6.070746667
200.9,2246118.388,-547.879647,-6.062036667
200.8,2491267.918,-547.3984133,-6.05626
200.7,6429518.254,-547.610772,-6.055033333
200.6,-444097.4519,-546.5743403,-6.043066667
200.5,2896959.619,-546.8825702,-6.041166667
200.4,3708662.494,-547.210848,-6.037976667
200.3,2022518.701,-547.920911,-6.038116667
200.2,4468093.429,-547.733748,-6.030186667
200.1,3826086.425,-549.9653387,-6.04064
200,5450904.783,-549.6996637,-6.034323333
199.9,5777587.99,-551.499483,-6.033356667
199.8,4834062.137,-553.32076,-6.03925
199.7,6340102.369,-554.507289,-6.042
199.6,8766861.124,-557.1163567,-6.04843
199.5,9528987.483,-559.118274,-6.056336667
199.4,5852968.038,-560.4358953,-6.057613333
199.3,6519849.352,-563.7216617,-6.068723333
199.2,5476240.724,-565.9122567,-6.074033333
199.1,7342818.507,-568.361266,-6.08156
199,11873707.41,-572.4078533,-6.093253333
198.9,12492553.97,-575.2695767,-6.101233333
198.8,5172939.651,-581.443847,-6.126683333
198.7,11580058.98,-586.7435333,-6.14336
198.6,9956886.902,-591.6376773,-6.161613333
198.5,10486582.33,-596.5513367,-6.176213333
198.4,11647552.23,-603.5015207,-6.20296
198.3,13414272.3,-609.2844493,-6.224223333
198.2,9487517.613,-614.3661687,-6.244446667
198.1,9037920.429,-620.8458867,-6.262253333
198,6771498.882,-627.0536707,-6.287796667
197.9,7793805.528,-636.996629,-6.322906667
197.8,12498639.55,-643.00024,-6.342076667
197.7,11487526.27,-650.7455197,-6.370656667
197.6,11181360.48,-659.061517,-6.398156667
197.5,8102214.424,-667.0020407,-6.426116667
197.4,11101368.8,-675.751181,-6.457213333
197.3,10175207.12,-688.0125733,-6.50087
197.2,13097214.13,-697.0142193,-6.530486667
197.1,10840926.69,-705.70003,-6.558053333
197,13008979.21,-717.3011629,-6.599753333
196.9,9589281.329,-728.668233,-6.639346667
196.8,11217144.39,-741.4145463,-6.67916
196.7,13819803.61,-752.801,-6.716706667
196.6,10053208.33,-765.3162687,-6.76035
196.5,11154383.4,-775.1281893,-6.789156667
196.4,19278287.29,-777.5613887,-6.79378
196.3,11856000.75,-779.2450027,-6.79554
196.2,11496256.95,-779.967956,-6.792196667
196.1,16823023.39,-778.3449273,-6.779256667
196,15742070.78,-777.442729,-6.770626667
195.9,11344118.06,-776.7555033,-6.766256667
195.8,13393025.72,-775.565544,-6.75664
195.7,12048547.76,-773.910865,-6.745473333
195.6,12965657.38,-773.1835517,-6.742123333
195.5,12917500.24,-772.29605,-6.732246667
195.4,14503295.66,-771.47136,-6.722886667
195.3,15268691.42,-769.8599503,-6.71703
195.2,11649550.52,-769.2786967,-6.708226667
195.1,7468659.663,-768.068323,-6.702736667
195,9130267.787,-767.2455507,-6.695476667
194.9,10295606.14,-766.5176767,-6.689676667
194.8,14047464.76,-765.2613533,-6.681073333
194.7,14027339.61,-763.5805193,-6.670433333
194.6,16405992.33,-763.8920933,-6.67265
194.5,10991710.18,-762.514586,-6.66077
194.4,9281220.682,-761.809999,-6.654806667
194.3,7986747.877,-761.1802263,-6.65041
194.2,9953751.14,-760.74485,-6.64266
194.1,7455486.708,-758.2061997,-6.629473333
194,10114504.13,-757.074608,-6.62225
193.9,5487316.048,-755.461983,-6.612123333
193.8,8827409.477,-754.3439467,-6.602863333
193.7,14802067.28,-752.9834613,-6.593756667
193.6,15804002.83,-752.7524693,-6.59024
193.5,12409257.67,-751.2501053,-6.58297
193.4,12184971.84,-751.3643283,-6.579903333
193.3,13779184.74,-751.373301,-6.57674
193.2,11327757.56,-749.796855,-6.571266667
193.1,7763642.974,-749.176439,-6.565506667
193,8425635.226,-747.5650513,-6.555076667
192.9,13204465.31,-747.9084167,-6.553886667
192.8,10205749.37,-745.8721447,-6.544633333
192.7,10020855.31,-745.3899128,-6.537086667
192.6,9221298.167,-743.6237017,-6.527746667
192.5,6311046.789,-743.644177,-6.524206667
192.4,13493886.16,-741.7022307,-6.515236667
192.3,8541472.359,-740.5671717,-6.50633
192.2,7130471.614,-740.1445543,-6.50257
192.1,5680153.032,-739.7092713,-6.498393333
192,8118927.135,-738.3678858,-6.490413333
191.9,11117655.79,-736.5920337,-6.480556667
191.8,7247674.862,-735.6831567,-6.475476667
191.7,8181192.192,-734.8960593,-6.46815
191.6,7675746.729,-733.684247,-6.460666667
191.5,8940020.861,-733.525165,-6.45846
191.4,6376712.263,-732.40675,-6.44876
191.3,11442712.13,-731.3652733,-6.444846667
191.2,6115952.153,-729.7860583,-6.432926667
191.1,6378453.733,-729.836486,-6.430043333
191,5606580.092,-726.08736,-6.30614
190.9,5788304.277,-726.334722,-6.410416667
190.8,6281009.864,-724.561428,-6.400246667
190.7,10782715.99,-723.337127,-6.38888
190.6,2991854.224,-722.143385,-6.380656667
190.5,6107967.516,-720.8753633,-6.374933333
190.4,8362786.544,-720.497742,-6.370053333
190.3,9529328.714,-718.6027177,-6.36062
190.2,5087465.519,-718.3742187,-6.355786667
190.1,10056032.78,-716.6417203,-6.346703333
190,5188054.686,-716.1436233,-6.340603333
,,,
##### Extended Information,,,
[Comments],,,
Sample name,,,
Comment,,,
User,,,
Division,,,
Company,,,
,,,
[Detailed Information],,,
Creation date,,,
,,,
Data array type,,,
Horizontal axis,,,
Vertical axis(1),,,
Vertical axis(2),,,
Vertical axis(3),,,
Start,,,
End,,,
Data interval,,,
Data points,,,
,,,
[Measurement Information],,,
Instrument name,,,
Model name,,,
Serial No.,,,
,,,
Detector,,,
Detector S/N,,,
Lock-in amp.,,,
HT volt,,,
,,,
Accessory,,,
Accessory S/N,,,
Temperature,,,
Control sensor,,,
Monitor sensor,,,
,,,
Measurement date,,,
,,,
CD Overload detect,,,
Photometric mode,,HT,Abs
Measure range,,,
Data pitch,,,
CD scale,,,
FL scale,,,
D.I.T.,,,
Bandwidth,,,
Start mode,,,
Scanning mode,,,
Scanning speed,,,
Baseline correction,,,
Shutter control,,,
No. of cycle,,,
N2 Flowmeter,,,
,,,
Solvent,,,