TITLE,PA_EH_JP
DATA TYPE,
ORIGIN,JASCO
OWNER,
DATE,22/09/27
TIME,17:44:34
SPECTROMETER/DATA SYSTEM,
LOCALE,1033
RESOLUTION,
DELTAX,-0.1
XUNITS,NANOMETERS
YUNITS,CD [mdeg]
Y2UNITS,HT [V]
Y3UNITS,ABSORBANCE
FIRSTX,  320.0000
LASTX,  190.0000
NPOINTS,    1301
FIRSTY,     1.13699
MAXY,    46.03451
MINY,   -76.32674
XYDATA
320.0000,1.13699,206.736,0.126054
319.9000,2.71302,207.252,0.133469
319.8000,2.0547,207.3,0.134169
319.7000,1.22382,206.664,0.12501
319.6000,1.63204,206.836,0.12749
319.5000,-0.0181438,206.37,0.120781
319.4000,1.59755,206.862,0.127865
319.3000,0.653606,206.986,0.129658
319.2000,0.708261,207.779,0.141031
319.1000,1.69257,206.596,0.124031
319.0000,0.837256,206.759,0.126381
318.9000,0.246133,206.177,0.118003
318.8000,0.873002,206.393,0.121108
318.7000,1.17287,206.621,0.12439
318.6000,0.0954869,207.447,0.136268
318.5000,1.57551,207.428,0.136008
318.4000,-0.645082,206.566,0.123606
318.3000,-0.667731,207.524,0.137374
318.2000,1.04096,206.691,0.125402
318.1000,1.66208,206.42,0.1215
318.0000,1.36908,207.158,0.132118
317.9000,1.51512,206.461,0.122088
317.8000,0.236734,206.547,0.123329
317.7000,0.365192,206.652,0.124847
317.6000,1.79214,207.356,0.134967
317.5000,0.0690378,206.571,0.123672
317.4000,1.06446,206.079,0.11658
317.3000,0.859908,206.657,0.124912
317.2000,-0.427437,207.178,0.132411
317.1000,2.68174,207.255,0.133518
317.0000,1.96427,206.643,0.124716
316.9000,1.79719,206.295,0.119703
316.8000,2.36663,206.997,0.129804
316.7000,0.0554339,206.904,0.128468
316.6000,2.58205,206.638,0.124635
316.5000,1.85155,206.843,0.127587
316.4000,1.72554,207.465,0.136529
316.3000,0.768599,206.656,0.124896
316.2000,-0.0848909,207.26,0.133583
316.1000,0.67505,206.971,0.12943
316.0000,0.670081,206.657,0.124912
315.9000,0.825513,206.46,0.122072
315.8000,1.04988,206.04,0.116024
315.7000,0.84382,206.439,0.121778
315.6000,1.42351,206.534,0.12315
315.5000,0.664361,206.908,0.128533
315.4000,2.17191,206.999,0.129837
315.3000,1.29777,206.48,0.122366
315.2000,0.221486,206.183,0.118085
315.1000,2.13051,206.566,0.123606
315.0000,0.0769664,205.932,0.114453
314.9000,1.29913,206.908,0.128533
314.8000,1.34398,206.54,0.123231
314.7000,1.21147,207.235,0.133225
314.6000,0.891849,206.898,0.128386
314.5000,-0.097635,205.562,0.109114
314.4000,1.33601,205.926,0.114371
314.3000,1.97824,206.676,0.12519
314.2000,-0.0339829,206.045,0.11609
314.1000,0.499654,206.412,0.121386
314.0000,-0.166614,206.681,0.125255
313.9000,1.38952,206.205,0.118396
313.8000,0.706548,206.387,0.121027
313.7000,1.3487,207.108,0.131401
313.6000,1.09806,206.188,0.11815
313.5000,0.289854,205.687,0.110917
313.4000,0.82624,206.19,0.118183
313.3000,0.778294,206.412,0.121386
313.2000,1.29489,206.388,0.121043
313.1000,1.83488,205.568,0.109196
313.0000,1.05865,206.407,0.12132
312.9000,0.654862,206.103,0.116924
312.8000,2.8889,205.632,0.11013
312.7000,0.219765,206.1,0.116891
312.6000,1.67201,205.455,0.107557
312.5000,1.44119,206.432,0.12168
312.4000,0.72,207.01,0.13
312.3000,1.25005,206.256,0.119131
312.2000,1.63705,206.24,0.118902
312.1000,1.61404,206.188,0.11815
312.0000,0.810175,205.455,0.107557
311.9000,-0.420121,205.575,0.109294
311.8000,-0.737436,206.628,0.124504
311.7000,-1.60464,205.319,0.105589
311.6000,0.485533,206.213,0.11851
311.5000,1.00798,206.001,0.115452
311.4000,-0.686522,206.688,0.125369
311.3000,1.29567,206.032,0.11591
311.2000,0.69371,205.817,0.1128
311.1000,0.741479,206.759,0.126381
311.0000,1.11148,206.367,0.120732
310.9000,1.51488,206.218,0.118592
310.8000,0.999046,206.889,0.128256
310.7000,0.249724,206.516,0.122888
310.6000,2.25447,206.379,0.120912
310.5000,1.04863,206.102,0.116907
310.4000,-0.440887,206.185,0.118117
310.3000,0.288504,206.368,0.120749
310.2000,1.29718,206.633,0.12457
310.1000,0.229247,206.255,0.119115
310.0000,0.601369,205.883,0.11375
309.9000,1.35272,206.109,0.117022
309.8000,1.7224,207.044,0.130489
309.7000,0.932083,206.223,0.118657
309.6000,0.193092,206.87,0.127979
309.5000,1.53668,206.548,0.123345
309.4000,0.551605,206.83,0.127408
309.3000,1.13049,206.278,0.119458
309.2000,1.02205,206.712,0.125712
309.1000,0.252801,205.987,0.115255
309.0000,2.29008,206.258,0.119164
308.9000,0.715845,207.128,0.131695
308.8000,1.43697,206.448,0.121909
308.7000,0.84193,206.437,0.121745
308.6000,1.24639,206.639,0.124651
308.5000,0.0300499,206.074,0.116515
308.4000,0.870468,206.244,0.118968
308.3000,0.942897,206.367,0.120732
308.2000,0.105937,206.139,0.117447
308.1000,1.47153,205.68,0.110818
308.0000,0.197077,205.754,0.111883
307.9000,-1.2657,205.725,0.111474
307.8000,1.09079,206.298,0.119736
307.7000,1.54353,205.877,0.113668
307.6000,0.352722,205.923,0.114323
307.5000,1.00297,206.063,0.116351
307.4000,1.04221,207.069,0.130847
307.3000,1.07313,206.505,0.122725
307.2000,1.42903,206.228,0.118739
307.1000,1.75462,205.751,0.111851
307.0000,0.911375,206.185,0.118117
306.9000,-0.20683,206.225,0.11869
306.8000,0.825792,206.378,0.120896
306.7000,1.07508,206.485,0.122431
306.6000,1.7804,206.643,0.124716
306.5000,2.03593,206.02,0.11573
306.4000,2.46577,206.112,0.117055
306.3000,0.49848,206.372,0.120814
306.2000,1.64271,206.281,0.119491
306.1000,1.85157,206.299,0.119752
306.0000,1.56478,206.983,0.129609
305.9000,0.590383,206.658,0.124929
305.8000,0.865952,206.625,0.124455
305.7000,0.354738,206.261,0.119213
305.6000,-0.922377,206.485,0.122431
305.5000,-0.3757,206.618,0.124358
305.4000,1.08145,206.606,0.124178
305.3000,-0.901506,206.54,0.123231
305.2000,-0.109553,205.371,0.106343
305.1000,1.79682,206.46,0.122072
305.0000,1.72754,206.542,0.123264
304.9000,0.599087,207.022,0.130163
304.8000,0.166227,206.001,0.115452
304.7000,1.64824,205.996,0.115386
304.6000,-0.894955,206.125,0.117251
304.5000,0.150408,206.217,0.118575
304.4000,-0.894851,206.685,0.12532
304.3000,1.73425,205.477,0.107885
304.2000,-0.808583,205.475,0.107852
304.1000,1.03528,205.977,0.115108
304.0000,0.884166,205.425,0.107131
303.9000,-1.04778,205.754,0.111883
303.8000,-0.621864,205.77,0.112112
303.7000,1.2934,205.908,0.11411
303.6000,1.5302,205.972,0.115043
303.5000,1.38873,206.436,0.121729
303.4000,2.77555,205.647,0.110343
303.3000,1.05405,206.124,0.117234
303.2000,2.18289,205.67,0.110671
303.1000,-0.369141,206.111,0.117038
303.0000,-0.00356567,206.093,0.116777
302.9000,-0.416436,206.7,0.125532
302.8000,0.73946,206.889,0.128256
302.7000,0.544325,206.606,0.124178
302.6000,2.45506,205.877,0.113668
302.5000,2.80316,205.945,0.11465
302.4000,-0.309209,206.529,0.123068
302.3000,0.139515,205.943,0.114617
302.2000,2.7679,206.688,0.125369
302.1000,3.37883,206.364,0.1207
302.0000,0.995134,206.446,0.121876
301.9000,0.546355,206.698,0.1255
301.8000,0.91354,206.326,0.120144
301.7000,0.488287,205.74,0.111687
301.6000,0.544491,206.193,0.118232
301.5000,2.12689,206.443,0.121827
301.4000,1.43218,205.908,0.11411
301.3000,-0.305925,205.131,0.102864
301.2000,0.820305,206.059,0.116286
301.1000,1.16524,206.38,0.120929
301.0000,1.65305,205.706,0.111195
300.9000,1.37146,205.371,0.106343
300.8000,2.05909,205.419,0.107049
300.7000,2.00842,205.682,0.110851
300.6000,-1.04442,205.401,0.106786
300.5000,1.09356,206.24,0.118902
300.4000,2.54629,205.521,0.108524
300.3000,1.33141,205.713,0.111294
300.2000,0.325953,205.89,0.113848
300.1000,1.04967,205.784,0.112325
300.0000,0.00522842,205.961,0.114879
299.9000,2.36874,205.835,0.113062
299.8000,0.779639,205.618,0.109917
299.7000,-1.1511,205.416,0.106999
299.6000,0.678623,205.385,0.106557
299.5000,1.36286,205.708,0.111228
299.4000,1.46417,205.621,0.109967
299.3000,0.895787,205.631,0.110114
299.2000,2.71398,206.326,0.120144
299.1000,0.787768,207.007,0.129951
299.0000,2.0941,205.984,0.115206
298.9000,1.28448,206.495,0.122578
298.8000,-0.262431,205.987,0.115255
298.7000,2.23726,204.991,0.100844
298.6000,-0.345495,206.206,0.118412
298.5000,0.866592,205.907,0.114093
298.4000,1.74978,205.763,0.112014
298.3000,0.724105,205.124,0.102766
298.2000,0.169862,205.007,0.101074
298.1000,-0.123734,205.484,0.107983
298.0000,0.104684,205.209,0.103997
297.9000,0.694828,205.7,0.111113
297.8000,1.65676,206.165,0.117823
297.7000,3.8952,205.962,0.114895
297.6000,2.47727,205.076,0.102076
297.5000,-0.540478,205.85,0.113275
297.4000,1.44286,205.177,0.103537
297.3000,2.51075,205.717,0.111359
297.2000,2.25054,205.552,0.108967
297.1000,1.57953,205.546,0.108885
297.0000,0.764952,206.265,0.119262
296.9000,1.56527,205.357,0.106147
296.8000,0.641396,205.199,0.103849
296.7000,1.55463,205.755,0.111899
296.6000,-1.32117,205.708,0.111228
296.5000,2.04356,205.705,0.111179
296.4000,1.21404,204.893,0.099415
296.3000,0.542868,204.825,0.0984288
296.2000,1.92642,205.265,0.104818
296.1000,2.02003,205.966,0.114944
296.0000,-1.02735,205.552,0.108967
295.9000,0.492418,205.374,0.106393
295.8000,1.67232,205.533,0.108688
295.7000,2.42027,206.142,0.117496
295.6000,-0.462435,205,0.100976
295.5000,1.69143,206.197,0.118281
295.4000,-0.0980291,205.34,0.1059
295.3000,0.469911,205.796,0.112489
295.2000,0.413899,206.128,0.117284
295.1000,0.926576,206.049,0.116155
295.0000,1.80858,205.865,0.113488
294.9000,0.811683,206.261,0.119213
294.8000,1.26626,205.683,0.110868
294.7000,1.52048,206.514,0.122856
294.6000,0.789276,205.75,0.111834
294.5000,0.238507,205.456,0.107573
294.4000,2.77574,205.605,0.109737
294.3000,0.757059,205.442,0.107377
294.2000,1.39449,205.614,0.109868
294.1000,0.644304,205.278,0.104998
294.0000,-0.827706,206.718,0.125793
293.9000,-0.139575,205.977,0.115108
293.8000,-1.03028,205.521,0.108524
293.7000,1.74979,205.967,0.114961
293.6000,1.36818,206.131,0.117333
293.5000,1.18051,205.382,0.106507
293.4000,0.98047,205.676,0.110753
293.3000,1.95599,205.349,0.106032
293.2000,1.80906,205.951,0.114732
293.1000,0.0798064,205.483,0.107967
293.0000,2.14998,204.471,0.0932965
292.9000,2.11224,205.348,0.106015
292.8000,-0.713674,205.697,0.111064
292.7000,-0.242645,205.91,0.114143
292.6000,1.59796,205.792,0.11244
292.5000,-0.978099,205.323,0.105654
292.4000,1.62349,205.614,0.109868
292.3000,2.05446,205.918,0.114257
292.2000,1.28704,205.385,0.106557
292.1000,-0.538626,205.872,0.113586
292.0000,1.51051,205.39,0.106622
291.9000,0.991975,205.893,0.113897
291.8000,0.442029,204.848,0.0987739
291.7000,0.195857,205.816,0.112784
291.6000,0.141104,205.368,0.106311
291.5000,0.435922,205.503,0.108262
291.4000,1.32151,205.163,0.103341
291.3000,0.125404,204.961,0.100401
291.2000,1.71314,204.888,0.0993491
291.1000,-0.521397,205.439,0.107327
291.0000,0.113009,206.062,0.116335
290.9000,-0.0180233,205.047,0.101649
290.8000,0.440792,205.421,0.107065
290.7000,1.16254,205.796,0.112489
290.6000,-0.19721,205.681,0.110835
290.5000,0.878664,205.622,0.109983
290.4000,1.45315,205.838,0.113095
290.3000,0.952962,205.477,0.107885
290.2000,-0.158935,205.836,0.113079
290.1000,0.764817,206.385,0.120994
290.0000,1.42328,206.063,0.116351
289.9000,0.12279,205.603,0.109704
289.8000,0.753862,205.946,0.114666
289.7000,0.266549,205.583,0.109409
289.6000,-0.463193,205.84,0.113128
289.5000,0.826201,205.838,0.113095
289.4000,0.403713,205.836,0.113079
289.3000,0.00257249,206.259,0.11918
289.2000,0.513768,206.892,0.128305
289.1000,0.862569,206.347,0.120455
289.0000,1.18668,205.451,0.107508
288.9000,-0.813657,206.109,0.117022
288.8000,-0.0197378,206.402,0.121239
288.7000,0.873288,206.217,0.118575
288.6000,0.597591,205.923,0.114323
288.5000,0.158033,206.111,0.117038
288.4000,-0.338037,206.548,0.123345
288.3000,0.472019,206.042,0.116041
288.2000,0.46845,205.686,0.1109
288.1000,1.77072,206.188,0.11815
288.0000,0.855526,206.589,0.123933
287.9000,-0.646974,205.92,0.11429
287.8000,1.50204,206.732,0.125989
287.7000,2.85574,205.421,0.107065
287.6000,-1.60559,206.625,0.124455
287.5000,-0.0291144,205.972,0.115043
287.4000,0.498811,206.009,0.115566
287.3000,-1.04419,206.582,0.123835
287.2000,0.258532,206.682,0.125271
287.1000,0.296721,206.328,0.120177
287.0000,-0.629084,206.234,0.118821
286.9000,1.06164,207.193,0.132623
286.8000,1.05527,206.719,0.12581
286.7000,2.6232,206.964,0.129332
286.6000,0.27278,206.635,0.124602
286.5000,0.752753,206.562,0.123541
286.4000,1.07168,207.081,0.13101
286.3000,-0.0926201,206.638,0.124635
286.2000,0.9136,206.436,0.121729
286.1000,0.831819,206.565,0.12359
286.0000,0.388364,207.326,0.134544
285.9000,0.865601,206.883,0.128174
285.8000,0.660247,206.66,0.124961
285.7000,0.424906,206.564,0.123574
285.6000,-0.879765,206.658,0.124929
285.5000,1.894,206.703,0.125581
285.4000,0.353822,207.229,0.133144
285.3000,1.5025,206.653,0.124863
285.2000,-0.492247,205.796,0.112489
285.1000,0.472277,206.688,0.125369
285.0000,1.04244,206.786,0.126772
284.9000,0.0916719,206.57,0.123656
284.8000,1.18379,206.677,0.125206
284.7000,0.979535,206.451,0.121941
284.6000,2.22044,206.123,0.117218
284.5000,-0.739987,206.173,0.117938
284.4000,-0.438739,206.134,0.117382
284.3000,0.312847,206.691,0.125402
284.2000,0.396729,207.72,0.140187
284.1000,0.0703475,206.474,0.122284
284.0000,-0.437082,206.568,0.123639
283.9000,-0.268221,206.37,0.120781
283.8000,0.481254,206.58,0.123803
283.7000,0.930336,206.847,0.127653
283.6000,0.248551,206.54,0.123231
283.5000,0.977571,205.898,0.113962
283.4000,0.125771,206.703,0.125581
283.3000,0.891624,206.671,0.125124
283.2000,2.12877,206.292,0.119654
283.1000,1.93774,206.114,0.117087
283.0000,0.212779,207.396,0.135536
282.9000,0.527423,206.298,0.119736
282.8000,-1.00745,206.645,0.124749
282.7000,1.15535,206.227,0.118722
282.6000,0.514754,206.546,0.123313
282.5000,0.784446,206.15,0.117611
282.4000,1.79622,207.064,0.130766
282.3000,0.661121,207.087,0.131108
282.2000,0.99447,207.458,0.136431
282.1000,0.0659472,206.184,0.118101
282.0000,2.07094,207.117,0.131532
281.9000,1.18156,207.008,0.129967
281.8000,0.859148,206.758,0.126364
281.7000,1.36203,206.582,0.123835
281.6000,1.76911,207.113,0.131483
281.5000,0.413224,207.02,0.130147
281.4000,0.945156,205.689,0.11095
281.3000,-0.771811,206.607,0.124194
281.2000,0.758986,206.826,0.127343
281.1000,-0.616339,207.491,0.136903
281.0000,0.966564,206.615,0.124308
280.9000,-0.30227,206.516,0.122888
280.8000,0.319621,206.915,0.128631
280.7000,0.745332,206.923,0.128745
280.6000,-0.3734,206.75,0.12625
280.5000,1.60552,207.127,0.131678
280.4000,2.22743,206.983,0.129609
280.3000,0.27137,207.074,0.130913
280.2000,0.209813,206.628,0.124504
280.1000,1.15265,206.013,0.115632
280.0000,0.52497,207.1,0.131287
279.9000,-0.0207424,206.93,0.128843
279.8000,-0.811199,206.814,0.12718
279.7000,0.182504,207.418,0.135862
279.6000,1.60598,206.661,0.124978
279.5000,-0.402506,206.986,0.129658
279.4000,-0.182601,205.453,0.107541
279.3000,-1.31925,205.838,0.113095
279.2000,-1.00878,206.011,0.115599
279.1000,1.85996,206.958,0.129251
279.0000,0.787005,206.759,0.126381
278.9000,0.371908,205.764,0.112031
278.8000,-0.86891,206.817,0.127213
278.7000,0.838524,207.478,0.136724
278.6000,0.433495,206.281,0.119491
278.5000,1.68401,206.81,0.127115
278.4000,0.751083,207.803,0.141389
278.3000,0.68271,206.648,0.124782
278.2000,-0.716348,206.511,0.122807
278.1000,-0.616244,207.701,0.139927
278.0000,1.07478,207.411,0.135764
277.9000,0.264634,207.532,0.137488
277.8000,0.812884,206.949,0.12912
277.7000,-1.15464,208.423,0.150264
277.6000,2.60082,206.853,0.127734
277.5000,0.299169,207.262,0.133616
277.4000,0.302074,207.45,0.136317
277.3000,0.0760292,207.092,0.131173
277.2000,0.2139,206.014,0.115648
277.1000,1.44039,207.526,0.137407
277.0000,-0.105227,207.397,0.135553
276.9000,-0.0278559,205.808,0.112669
276.8000,0.648139,206.386,0.12101
276.7000,1.66655,207.695,0.139829
276.6000,0.773254,207.256,0.133534
276.5000,-0.0910017,207.806,0.141421
276.4000,1.71176,208.077,0.145302
276.3000,2.44255,206.667,0.125059
276.2000,-0.289734,207.113,0.131483
276.1000,2.77934,206.71,0.125679
276.0000,-0.510814,206.932,0.128876
275.9000,-0.651165,206.464,0.122137
275.8000,2.03504,207.152,0.132037
275.7000,0.796045,207.321,0.134462
275.6000,-0.344444,206.771,0.12656
275.5000,-0.779135,207.592,0.13835
275.4000,1.37009,206.175,0.11797
275.3000,0.675139,205.97,0.11501
275.2000,-0.894432,206.843,0.127587
275.1000,0.537393,207.159,0.132134
275.0000,-0.249823,206.109,0.117022
274.9000,0.682314,207.648,0.139163
274.8000,0.412874,207.699,0.139894
274.7000,-0.450876,204.603,0.0952055
274.6000,0.70369,206.456,0.122023
274.5000,0.869051,206.328,0.120177
274.4000,0.0159452,206.295,0.119703
274.3000,-1.45239,206.798,0.126951
274.2000,-0.469659,206.882,0.128158
274.1000,0.668388,205.755,0.111899
274.0000,-0.0655293,207.207,0.132835
273.9000,0.825586,208.505,0.15143
273.8000,0.834778,206.198,0.118297
273.7000,0.473732,207.416,0.135829
273.6000,0.0988467,207.985,0.143987
273.5000,-0.895489,207.218,0.132981
273.4000,1.52463,207.652,0.139212
273.3000,0.812706,206.915,0.128631
273.2000,-0.234629,207.212,0.132899
273.1000,0.875029,207.372,0.135195
273.0000,-1.22007,207.342,0.134771
272.9000,1.5546,207.192,0.132606
272.8000,-0.890244,206.617,0.124341
272.7000,-1.86062,207.159,0.132134
272.6000,-0.166618,206.915,0.128631
272.5000,1.70174,206.605,0.124162
272.4000,0.139436,207.237,0.133258
272.3000,-0.0574973,208.172,0.146665
272.2000,-0.194562,206.95,0.129136
272.1000,-1.19446,209.476,0.165287
272.0000,-1.0313,207.416,0.135829
271.9000,-1.04933,207.501,0.137049
271.8000,0.0513361,206.88,0.128126
271.7000,-0.989015,206.373,0.12083
271.6000,1.71506,208.052,0.144945
271.5000,-0.0977502,206.524,0.123003
271.4000,-0.0813753,206.751,0.126266
271.3000,-1.31156,207.396,0.135536
271.2000,-1.97007,206.488,0.12248
271.1000,0.699878,207.283,0.133925
271.0000,-0.948578,207.324,0.134511
270.9000,0.349569,206.66,0.124961
270.8000,0.42791,207.833,0.141811
270.7000,0.665415,207.372,0.135195
270.6000,1.4525,207.619,0.13874
270.5000,1.63691,206.214,0.118526
270.4000,0.158387,207.125,0.131646
270.3000,1.55693,207.534,0.137521
270.2000,0.556106,207.147,0.131971
270.1000,-0.683407,207.715,0.140122
270.0000,1.9227,207.933,0.14324
269.9000,-0.0169336,207.447,0.136268
269.8000,1.14953,207.068,0.130831
269.7000,-0.818118,207.543,0.137651
269.6000,-1.31174,206.546,0.123313
269.5000,-0.322285,207.533,0.137505
269.4000,0.844631,207.511,0.137195
269.3000,0.672647,208.279,0.148205
269.2000,1.5147,207.39,0.135455
269.1000,3.34911,207.434,0.13609
269.0000,0.427851,207.017,0.130098
268.9000,0.200586,207.771,0.140918
268.8000,1.15505,208.138,0.146178
268.7000,-0.455828,207.476,0.136691
268.6000,1.70037,208.149,0.14634
268.5000,-0.136219,207.466,0.136545
268.4000,-0.673078,208.054,0.144977
268.3000,-0.130359,207.868,0.142315
268.2000,0.779332,208.023,0.144539
268.1000,-1.1028,207.292,0.134056
268.0000,0.205504,207.155,0.132085
267.9000,-1.36619,207.848,0.142023
267.8000,-2.3995,207.771,0.140918
267.7000,0.163796,207.887,0.142591
267.6000,0.234768,207.765,0.140837
267.5000,0.782564,207.952,0.143516
267.4000,0.0371587,208.014,0.144409
267.3000,1.03013,207.785,0.141129
267.2000,1.19126,207.717,0.140154
267.1000,0.888255,207.239,0.13329
267.0000,0.120603,207.801,0.141356
266.9000,1.75111,208.133,0.146113
266.8000,0.885244,207.11,0.131434
266.7000,0.588389,208.081,0.145367
266.6000,2.21387,208.601,0.152807
266.5000,0.369949,207.903,0.142818
266.4000,-0.981706,208.105,0.145707
266.3000,0.0415931,207.297,0.13412
266.2000,-0.432224,208.368,0.149469
266.1000,-1.30927,208.416,0.150167
266.0000,-0.531803,208.016,0.144442
265.9000,-0.324264,207.646,0.13913
265.8000,-0.358606,207.98,0.143922
265.7000,1.35673,208.211,0.147232
265.6000,0.779261,208.214,0.147265
265.5000,-0.666536,208.03,0.144636
265.4000,0.647919,208.439,0.150491
265.3000,-0.415142,208.628,0.153195
265.2000,-0.774192,207.965,0.143711
265.1000,1.5324,208.769,0.155203
265.0000,-0.775289,207.937,0.143305
264.9000,0.866757,207.749,0.140609
264.8000,1.1044,209.041,0.159084
264.7000,0.539362,207.828,0.141746
264.6000,-0.857071,208.665,0.153714
264.5000,-0.153228,208.447,0.150604
264.4000,-0.8384,208.627,0.153179
264.3000,-0.384782,208.551,0.152094
264.2000,0.327251,209.094,0.159844
264.1000,-2.38892,208.41,0.150069
264.0000,1.38961,208.305,0.148578
263.9000,0.776031,208.132,0.146097
263.8000,-0.153845,208.31,0.148643
263.7000,0.548505,208.157,0.146454
263.6000,-0.576631,208.226,0.147443
263.5000,1.45252,208.625,0.153147
263.4000,-0.0481701,208.635,0.153293
263.3000,0.0548613,208.785,0.155429
263.2000,0.25771,209.455,0.164996
263.1000,2.53896,209.432,0.164657
263.0000,-0.165281,208.949,0.157775
262.9000,1.57382,208.744,0.154847
262.8000,0.0857447,208.629,0.153212
262.7000,0.311597,208.473,0.150977
262.6000,-1.27571,208.516,0.151592
262.5000,1.38935,208.631,0.153228
262.4000,0.579315,208.597,0.152742
262.3000,0.0483397,208.714,0.154426
262.2000,-1.06684,208.995,0.158438
262.1000,0.715129,209.049,0.159198
262.0000,1.06998,208.864,0.156562
261.9000,-0.644338,208.997,0.158454
261.8000,-0.382429,208.778,0.155332
261.7000,0.567736,208.2,0.14707
261.6000,-1.90739,209.026,0.158874
261.5000,1.64593,209.397,0.164157
261.4000,0.480956,210.38,0.178142
261.3000,0.435275,208.506,0.151447
261.2000,-0.731936,209.018,0.158761
261.1000,1.67711,208.721,0.154523
261.0000,0.270378,209.435,0.164706
260.9000,1.55906,209.167,0.160878
260.8000,-0.111665,208.963,0.157969
260.7000,0.586275,209.423,0.164528
260.6000,0.454209,209.427,0.164592
260.5000,-1.18207,209.651,0.167787
260.4000,-1.04628,209.794,0.169818
260.3000,2.36712,209.251,0.16209
260.2000,0.126082,208.909,0.157209
260.1000,-0.606973,209.317,0.163027
260.0000,-0.249134,209.993,0.172638
259.9000,0.213457,210.002,0.172767
259.8000,1.27705,208.797,0.155607
259.7000,-1.18509,209.934,0.1718
259.6000,-1.01247,209.122,0.160248
259.5000,0.177386,209.701,0.168497
259.4000,-0.429875,209.446,0.164867
259.3000,-0.314524,209.017,0.158745
259.2000,-0.765803,208.7,0.154215
259.1000,0.0138819,208.903,0.157112
259.0000,-0.862585,210.022,0.173056
258.9000,-0.0939359,210.115,0.174377
258.8000,1.34886,208.845,0.156287
258.7000,-0.929559,209.976,0.172396
258.6000,0.29346,209.751,0.169206
258.5000,-1.48647,210.492,0.179733
258.4000,-0.0992805,210.413,0.178608
258.3000,-0.583195,210.528,0.180248
258.2000,0.63845,209.797,0.169851
258.1000,-0.13247,209.764,0.169383
258.0000,-0.797591,209.649,0.167755
257.9000,0.114452,210.318,0.177257
257.8000,1.65521,210.039,0.173298
257.7000,0.739025,210.734,0.183155
257.6000,0.77265,210.932,0.185964
257.5000,-0.216269,210.322,0.177321
257.4000,0.020119,210.128,0.17457
257.3000,1.37799,210.564,0.180746
257.2000,-1.32674,209.662,0.167932
257.1000,1.54544,210.523,0.180167
257.0000,0.627951,211.209,0.189893
256.9000,0.290241,209.922,0.171639
256.8000,-0.816428,210.008,0.172863
256.7000,1.06538,210.681,0.182416
256.6000,0.999834,210.778,0.183781
256.5000,-0.636107,210.315,0.177225
256.4000,1.63923,211.336,0.191688
256.3000,0.480784,209.661,0.167916
256.2000,-1.06762,211.434,0.193066
256.1000,-1.83116,210.923,0.185836
256.0000,-0.652117,211.214,0.189958
255.9000,-0.532548,209.691,0.168351
255.8000,0.162199,210.68,0.1824
255.7000,0.89,210.758,0.183508
255.6000,-1.35826,210.496,0.179781
255.5000,-0.170804,211.051,0.187649
255.4000,1.12881,210.579,0.180971
255.3000,-0.110731,210.899,0.185499
255.2000,0.333969,210.752,0.183412
255.1000,1.05158,211.918,0.199897
255.0000,-0.0500185,209.732,0.168932
254.9000,0.461694,210.109,0.174296
254.8000,0.525904,210.923,0.185836
254.7000,-2.1124,210.397,0.178383
254.6000,-0.917197,211.513,0.194187
254.5000,0.0081464,211.33,0.191592
254.4000,0.46152,211.255,0.190534
254.3000,1.39926,211.577,0.195083
254.2000,-0.824469,212.047,0.201719
254.1000,0.372642,210.891,0.185387
254.0000,1.71708,211.109,0.188467
253.9000,-1.27304,211.236,0.190262
253.8000,-0.946336,211.969,0.200617
253.7000,0.216488,211.93,0.200073
253.6000,-0.4965,211.75,0.197531
253.5000,0.125981,211.365,0.192088
253.4000,-0.727944,211.226,0.190134
253.3000,-2.77751,211.682,0.196571
253.2000,0.249262,212.194,0.203796
253.1000,-1.18467,211.595,0.195339
253.0000,-2.4636,211.69,0.196683
252.9000,0.364687,212.68,0.210639
252.8000,0.507142,211.922,0.199961
252.7000,0.308614,212.122,0.202773
252.6000,0.773399,212.056,0.201847
252.5000,-1.54502,211.828,0.198634
252.4000,1.00246,211.982,0.200808
252.3000,-0.612703,211.475,0.193642
252.2000,0.701915,211.45,0.19329
252.1000,-0.176579,212.006,0.201144
252.0000,1.45404,211.802,0.198267
251.9000,0.360474,212.643,0.210113
251.8000,-2.97557,212.085,0.202262
251.7000,-0.899749,212.04,0.201623
251.6000,-0.326309,211.157,0.189156
251.5000,-0.991385,212.011,0.201208
251.4000,-0.816059,212.099,0.202454
251.3000,0.288152,212.292,0.205168
251.2000,-1.53582,212.03,0.20148
251.1000,-0.0777135,212.533,0.208567
251.0000,-2.85714,212.338,0.205823
250.9000,-0.480173,212.592,0.209396
250.8000,-1.38801,212.101,0.202486
250.7000,0.213168,212.82,0.212599
250.6000,1.38958,212.015,0.201272
250.5000,0.114899,212.18,0.203604
250.4000,-0.70112,212.459,0.20753
250.3000,-2.51069,213.493,0.222048
250.2000,-0.0672937,212.805,0.212392
250.1000,0.0632968,212.573,0.209125
250.0000,-0.127516,212.162,0.203348
249.9000,-0.358797,212.799,0.212312
249.8000,-0.0820023,213.101,0.216547
249.7000,-1.66365,212.194,0.203796
249.6000,-0.588686,212.247,0.204546
249.5000,-0.536784,212.951,0.214446
249.4000,-0.51657,213.525,0.222509
249.3000,0.465768,213.695,0.224891
249.2000,-0.302835,212.855,0.213092
249.1000,-1.21881,212.912,0.213905
249.0000,0.853138,213.673,0.224573
248.9000,-4.03791,213.616,0.223779
248.8000,-0.803458,212.858,0.21314
248.7000,-2.12751,212.796,0.212264
248.6000,0.496055,212.89,0.213586
248.5000,0.751246,213.073,0.216165
248.4000,-0.0907825,213.312,0.219521
248.3000,-1.55984,213.536,0.222652
248.2000,-1.06801,213.204,0.217994
248.1000,-0.00711318,213.329,0.219759
248.0000,-2.22577,213.476,0.22181
247.9000,-0.850911,213.436,0.221254
247.8000,-2.304,213.631,0.223986
247.7000,-1.59656,212.719,0.211181
247.6000,0.199853,213.426,0.22111
247.5000,0.00552423,213.297,0.219298
247.4000,-0.87401,212.826,0.212694
247.3000,-2.76617,213.401,0.220761
247.2000,0.733217,213.951,0.228477
247.1000,-1.09879,213.66,0.224399
247.0000,1.16592,213.657,0.224351
246.9000,-2.87156,214.123,0.230871
246.8000,-1.15803,214.188,0.23179
246.7000,-0.136309,213.881,0.227493
246.6000,-2.49769,213.921,0.228049
246.5000,-1.43671,214.153,0.231299
246.4000,-1.87083,214.048,0.229824
246.3000,-2.06156,214.482,0.235891
246.2000,-2.03332,214.936,0.242232
246.1000,-0.661439,213.733,0.225414
246.0000,-1.17727,214.516,0.236366
245.9000,-2.30963,214.691,0.238818
245.8000,-3.63064,214.175,0.231599
245.7000,-2.28546,214.28,0.233073
245.6000,-2.67456,214.61,0.237679
245.5000,-3.21086,214.574,0.237173
245.4000,-2.6914,214.288,0.233184
245.3000,-3.8196,214.414,0.234942
245.2000,-2.56167,214.929,0.242138
245.1000,-1.79228,215.112,0.24468
245.0000,-1.96727,214.876,0.241395
244.9000,-0.51975,214.603,0.237584
244.8000,-3.35394,215.021,0.243417
244.7000,-3.24201,215.726,0.253228
244.6000,-3.19219,215.538,0.250612
244.5000,-1.98929,214.799,0.24032
244.4000,-1.51114,215.733,0.253322
244.3000,-3.10526,214.784,0.240114
244.2000,-3.20089,214.253,0.232693
244.1000,-2.62718,215.311,0.247458
244.0000,-3.1767,215.848,0.254929
243.9000,-3.38499,215.823,0.254582
243.8000,-3.43988,216.308,0.261315
243.7000,-5.34549,215.414,0.248893
243.6000,-3.1649,215.85,0.25496
243.5000,-3.7418,216.176,0.259476
243.4000,-4.15746,215.863,0.255133
243.3000,-3.66611,216.064,0.257919
243.2000,-2.27284,216.935,0.269996
243.1000,-3.97866,216.397,0.262541
243.0000,-5.53981,216.8,0.26813
242.9000,-3.81467,216.794,0.268051
242.8000,-4.16982,215.554,0.250833
242.7000,-4.01492,215.773,0.253889
242.6000,-3.08979,216.169,0.259381
242.5000,-3.39784,216.175,0.25946
242.4000,-4.52826,216.914,0.269714
242.3000,-6.05523,216.883,0.269275
242.2000,-4.51583,217.199,0.273647
242.1000,-5.2226,217.254,0.274415
242.0000,-5.52595,217.186,0.273475
241.9000,-6.68298,217.812,0.282112
241.8000,-5.79671,216.902,0.269541
241.7000,-5.68696,217.371,0.276028
241.6000,-3.49726,217.99,0.284564
241.5000,-6.17567,217.186,0.273475
241.4000,-5.75835,218.258,0.288264
241.3000,-6.13302,217.521,0.278093
241.2000,-7.20603,217.881,0.283065
241.1000,-6.10069,217.694,0.280486
241.0000,-6.97697,217.864,0.282831
240.9000,-7.0698,218.221,0.287749
240.8000,-8.47724,218.365,0.28973
240.7000,-7.50813,218.094,0.286001
240.6000,-7.14755,218.313,0.289012
240.5000,-7.05174,218.731,0.294764
240.4000,-8.88891,218.487,0.291414
240.3000,-8.60306,218.792,0.295604
240.2000,-9.07745,219.471,0.304919
240.1000,-10.009,220.301,0.316284
240.0000,-8.5761,219.259,0.302013
239.9000,-11.8451,219.36,0.303396
239.8000,-11.7203,219.46,0.304779
239.7000,-8.74441,221.069,0.326766
239.6000,-11.125,220.028,0.312551
239.5000,-10.2599,220.939,0.32499
239.4000,-9.78747,219.962,0.311652
239.3000,-9.99204,220.001,0.312179
239.2000,-10.4792,220.509,0.319116
239.1000,-9.26143,220.263,0.315758
239.0000,-11.2024,220.706,0.321807
238.9000,-10.3717,221.005,0.325886
238.8000,-12.5887,221.103,0.327229
238.7000,-13.1366,221.676,0.335015
238.6000,-13.0211,221.858,0.337494
238.5000,-12.051,221.659,0.334784
238.4000,-11.7522,221.327,0.330268
238.3000,-13.24,222.54,0.346749
238.2000,-13.3155,221.719,0.335601
238.1000,-14.0355,222.744,0.349511
238.0000,-11.7728,222.478,0.345904
237.9000,-13.0638,222.403,0.34489
237.8000,-14.1424,222.885,0.351413
237.7000,-14.6983,223.124,0.354647
237.6000,-14.1687,222.997,0.352931
237.5000,-14.8238,223.925,0.365462
237.4000,-14.8503,222.508,0.346319
237.3000,-15.0078,223.858,0.364561
237.2000,-16.6216,223.613,0.361259
237.1000,-17.0091,223.326,0.357388
237.0000,-16.7589,224.209,0.369294
236.9000,-18.5037,224.545,0.373808
236.8000,-16.6204,224.082,0.367585
236.7000,-17.1694,224.744,0.376489
236.6000,-18.8695,225.893,0.391899
236.5000,-17.2569,225.332,0.384384
236.4000,-19.3249,225.014,0.380112
236.3000,-18.3992,225.399,0.385281
236.2000,-19.2497,225.222,0.38291
236.1000,-21.1229,224.717,0.376124
236.0000,-22.3892,225.807,0.390746
235.9000,-21.5301,226.599,0.401334
235.8000,-21.3762,226.365,0.398217
235.7000,-22.4288,227.336,0.411168
235.6000,-21.6409,226.842,0.404585
235.5000,-22.2958,227.496,0.413294
235.4000,-23.9044,227.42,0.412284
235.3000,-22.2462,227.109,0.408134
235.2000,-23.512,228.259,0.423427
235.1000,-22.6625,228.278,0.423683
235.0000,-24.8772,228.161,0.422134
234.9000,-26.4983,228.133,0.421758
234.8000,-25.4674,229.108,0.434686
234.7000,-23.2833,229.001,0.433262
234.6000,-27.2154,229.027,0.433607
234.5000,-27.0193,229.741,0.44304
234.4000,-25.7286,229.07,0.434176
234.3000,-24.2895,230.032,0.446882
234.2000,-28.3362,230.097,0.447733
234.1000,-26.3347,230.325,0.450749
234.0000,-27.7615,230.551,0.453717
233.9000,-27.8756,231.1,0.460942
233.8000,-28.3929,231.219,0.462505
233.7000,-30.282,230.762,0.45649
233.6000,-28.497,231.061,0.460422
233.5000,-31.6263,232.249,0.476002
233.4000,-32.2943,232.367,0.477543
233.3000,-31.48,231.814,0.470306
233.2000,-31.3928,231.311,0.463709
233.1000,-31.606,232.541,0.479809
233.0000,-32.4529,232.819,0.48345
232.9000,-32.5429,233.626,0.493966
232.8000,-33.2647,234.095,0.500067
232.7000,-32.7543,233.652,0.494305
232.6000,-34.0334,234.755,0.508627
232.5000,-36.2259,233.268,0.489303
232.4000,-35.949,234.548,0.505953
232.3000,-35.7315,234.796,0.509171
232.2000,-33.1878,235.33,0.516083
232.1000,-36.5022,235.477,0.517988
232.0000,-36.924,236.005,0.52481
231.9000,-38.4089,236.088,0.525878
231.8000,-36.9168,235.7,0.520859
231.7000,-37.5507,236.296,0.528553
231.6000,-41.1066,237.116,0.539116
231.5000,-40.6588,236.421,0.530174
231.4000,-41.8144,237.424,0.543077
231.3000,-39.155,236.8,0.535049
231.2000,-41.7937,236.965,0.537178
231.1000,-41.1183,237.699,0.546612
231.0000,-41.199,237.869,0.548792
230.9000,-39.9878,237.391,0.542655
230.8000,-41.914,237.732,0.547034
230.7000,-44.9776,238.444,0.556152
230.6000,-44.2417,238.461,0.55637
230.5000,-44.5611,238.47,0.556486
230.4000,-46.3197,238.473,0.556529
230.3000,-44.5391,238.456,0.556312
230.2000,-43.4153,239.261,0.566594
230.1000,-46.4863,238.846,0.561297
230.0000,-46.8333,239.086,0.564366
229.9000,-45.6726,240.76,0.585677
229.8000,-46.7843,240.479,0.582107
229.7000,-47.6952,240.194,0.578491
229.6000,-47.7788,240.788,0.586037
229.5000,-50.332,240.535,0.582827
229.4000,-50.1318,241.816,0.599061
229.3000,-49.8308,241.529,0.595433
229.2000,-48.6107,241.559,0.595806
229.1000,-52.6204,241.137,0.590465
229.0000,-51.8365,241.951,0.600767
228.9000,-52.3979,242.625,0.609283
228.8000,-51.7547,242.066,0.602228
228.7000,-52.7487,242.066,0.602228
228.6000,-53.9425,244.077,0.627564
228.5000,-51.9361,243.377,0.618763
228.4000,-51.9691,244.397,0.631574
228.3000,-55.1636,243.824,0.624377
228.2000,-54.6483,244.381,0.631375
228.1000,-58.2916,245.369,0.643746
228.0000,-54.759,245.275,0.64257
227.9000,-57.778,245.221,0.64189
227.8000,-55.691,246.371,0.656245
227.7000,-56.0117,246.6,0.659095
227.6000,-56.1735,245.677,0.647596
227.5000,-58.5803,246.303,0.655398
227.4000,-56.9734,246.267,0.654946
227.3000,-58.2409,247.062,0.664845
227.2000,-59.4473,247.073,0.664986
227.1000,-56.1115,247.508,0.67039
227.0000,-57.5534,248.053,0.677147
226.9000,-59.0517,248.136,0.678172
226.8000,-61.3366,248.72,0.685391
226.7000,-59.6741,248.747,0.685727
226.6000,-61.2077,247.842,0.674521
226.5000,-62.4447,249.653,0.696913
226.4000,-63.3153,248.814,0.686554
226.3000,-63.8836,249.585,0.696076
226.2000,-59.7316,249.319,0.692793
226.1000,-62.7844,249.84,0.699216
226.0000,-63.3082,250.247,0.704222
225.9000,-64.6789,251.019,0.713699
225.8000,-65.6227,250.502,0.707356
225.7000,-63.7678,249.265,0.692121
225.6000,-66.0229,250.922,0.712518
225.5000,-64.7917,253.321,0.741835
225.4000,-63.5243,251.911,0.724635
225.3000,-63.8769,252.701,0.734282
225.2000,-65.4894,252.126,0.727253
225.1000,-63.8078,252.373,0.730271
225.0000,-67.9613,253.95,0.749482
224.9000,-63.3682,252.59,0.732927
224.8000,-63.0161,253.789,0.747527
224.7000,-68.0309,254.274,0.753417
224.6000,-64.8438,254.3,0.753734
224.5000,-66.3464,254.54,0.756647
224.4000,-66.2445,254.452,0.755576
224.3000,-67.7903,254.608,0.757472
224.2000,-64.6934,254.908,0.76111
224.1000,-70.3023,255.691,0.77058
224.0000,-68.0984,255.094,0.76336
223.9000,-66.7803,255.904,0.773153
223.8000,-70.0781,256.34,0.778402
223.7000,-67.8395,256.707,0.782825
223.6000,-70.7746,256.836,0.78438
223.5000,-67.0461,256.976,0.78607
223.4000,-65.2583,257.095,0.787501
223.3000,-68.0139,257.588,0.793424
223.2000,-64.4893,258.581,0.805322
223.1000,-66.9951,257.47,0.792009
223.0000,-68.2082,258.046,0.798916
222.9000,-68.4683,259.27,0.813558
222.8000,-65.9731,258.574,0.805241
222.7000,-69.0125,258.539,0.80482
222.6000,-66.2131,258.999,0.810323
222.5000,-73.2469,259.895,0.82102
222.4000,-69.0646,260.646,0.829962
222.3000,-65.9773,260.737,0.83104
222.2000,-69.5261,260.639,0.829882
222.1000,-69.4661,260.851,0.8324
222.0000,-71.0568,260.711,0.83073
221.9000,-67.0051,261.388,0.838776
221.8000,-69.091,261.092,0.835253
221.7000,-69.6566,261.729,0.842819
221.6000,-69.9977,261.895,0.844779
221.5000,-65.2323,262.607,0.853196
221.4000,-67.6292,263.385,0.862383
221.3000,-72.319,262.415,0.850933
221.2000,-69.526,262.716,0.854495
221.1000,-65.6725,264.203,0.872013
221.0000,-70.0185,263.685,0.865921
220.9000,-72.9063,264.486,0.875342
220.8000,-68.952,264.8,0.879027
220.7000,-70.1956,264.036,0.870055
220.6000,-68.2469,264.775,0.878734
220.5000,-67.9225,265.149,0.88312
220.4000,-68.2227,266.476,0.898641
220.3000,-70.1252,265.982,0.892869
220.2000,-72.5568,266.456,0.898403
220.1000,-68.4564,265.048,0.881938
220.0000,-65.5443,269.1,0.92915
219.9000,-68.3104,267.229,0.907426
219.8000,-67.7634,266.731,0.901615
219.7000,-69.8318,268.255,0.919349
219.6000,-72.0568,268.815,0.925842
219.5000,-67.0466,267.414,0.909577
219.4000,-70.4971,269.633,0.935311
219.3000,-65.9491,269.157,0.929805
219.2000,-70.1953,269.047,0.928533
219.1000,-67.8838,270.794,0.948712
219.0000,-70.5793,271.793,0.960206
218.9000,-70.8004,269.519,0.934001
218.8000,-65.5627,270.456,0.944821
218.7000,-73.3474,272.956,0.973533
218.6000,-72.2501,270.086,0.940546
218.5000,-70.7674,271.074,0.951935
218.4000,-68.5119,272.564,0.969044
218.3000,-69.8278,272.411,0.967291
218.2000,-67.224,272.8,0.971743
218.1000,-67.3075,272.711,0.970731
218.0000,-65.9215,272.001,0.962587
217.9000,-68.7664,273.234,0.976708
217.8000,-71.7107,274.257,0.988388
217.7000,-66.9735,273.023,0.974298
217.6000,-74.3183,275.026,0.997146
217.5000,-67.0948,275.264,0.999851
217.4000,-67.7416,275.662,1.00437
217.3000,-71.7566,277.598,1.02628
217.2000,-70.0992,276.456,1.01337
217.1000,-67.6575,277.021,1.01977
217.0000,-70.0228,277.851,1.02913
216.9000,-67.8827,276.668,1.01577
216.8000,-73.2824,276.907,1.01847
216.7000,-70.2988,277.727,1.02774
216.6000,-71.4252,277.549,1.02573
216.5000,-67.8836,278.919,1.04116
216.4000,-66.4183,278.895,1.04089
216.3000,-68.2808,278.496,1.03639
216.2000,-71.3371,279.249,1.04486
216.1000,-68.9353,280.604,1.06005
216.0000,-71.8109,280.98,1.06425
215.9000,-68.1523,280.859,1.0629
215.8000,-71.354,281.234,1.06709
215.7000,-68.247,280.926,1.06365
215.6000,-68.0219,281.999,1.07561
215.5000,-70.5288,281.327,1.06812
215.4000,-65.9241,283.709,1.09461
215.3000,-66.7773,282.609,1.0824
215.2000,-67.8403,282.405,1.08013
215.1000,-69.2941,282.858,1.08517
215.0000,-64.5558,283.628,1.09372
214.9000,-65.8912,283.946,1.09723
214.8000,-64.6682,284.395,1.10221
214.7000,-67.6632,285.562,1.11509
214.6000,-71.5953,284.964,1.1085
214.5000,-68.7362,284.646,1.10498
214.4000,-68.2505,286.25,1.12267
214.3000,-74.702,285.974,1.11963
214.2000,-70.3126,286.94,1.13025
214.1000,-71.2985,286.395,1.12426
214.0000,-64.6886,287.773,1.13938
213.9000,-71.1182,288.027,1.14216
213.8000,-64.1597,288.517,1.14752
213.7000,-65.4185,288.796,1.15057
213.6000,-69.7184,289.655,1.15993
213.5000,-72.4093,289.532,1.15859
213.4000,-68.0759,291.657,1.18168
213.3000,-69.767,290.458,1.16867
213.2000,-67.9035,290.981,1.17435
213.1000,-70.0078,291.311,1.17792
213.0000,-72.7988,291.503,1.18001
212.9000,-73.1568,291.393,1.17882
212.8000,-69.5166,293.518,1.20177
212.7000,-70.8948,293.121,1.1975
212.6000,-70.8423,293.257,1.19896
212.5000,-70.196,293.188,1.19822
212.4000,-69.1496,293.744,1.20421
212.3000,-68.8254,294.034,1.20733
212.2000,-70.3541,296.58,1.23462
212.1000,-64.5588,297.374,1.24308
212.0000,-67.7765,297.371,1.24306
211.9000,-68.1695,297.202,1.24126
211.8000,-72.2907,298.158,1.25143
211.7000,-71.2175,299.048,1.26089
211.6000,-71.7053,298.811,1.25837
211.5000,-74.931,299.838,1.26925
211.4000,-67.7827,300.493,1.27618
211.3000,-71.3657,301.51,1.28691
211.2000,-67.9353,301.599,1.28784
211.1000,-72.4277,302.134,1.29347
211.0000,-75.7947,301.984,1.2919
210.9000,-70.8789,302.734,1.29978
210.8000,-73.8341,302.328,1.29552
210.7000,-72.6283,303.387,1.30662
210.6000,-67.2584,305.371,1.32736
210.5000,-76.1458,305.427,1.32795
210.4000,-73.7857,306.777,1.34199
210.3000,-69.6385,306.95,1.34379
210.2000,-71.7689,308.054,1.35522
210.1000,-71.0376,307.243,1.34682
210.0000,-71.8325,308.927,1.36425
209.9000,-71.9955,309.049,1.3655
209.8000,-76.3267,310.071,1.37603
209.7000,-69.56,310.779,1.38331
209.6000,-71.1824,311.855,1.39435
209.5000,-74.0183,312.263,1.39853
209.4000,-74.0409,314.56,1.42195
209.3000,-71.9717,315.235,1.42881
209.2000,-70.2732,315.81,1.43464
209.1000,-69.2976,315.434,1.43083
209.0000,-67.674,316.226,1.43885
208.9000,-75.6971,316.497,1.4416
208.8000,-70.691,317.835,1.45511
208.7000,-70.2209,319.031,1.46715
208.6000,-66.6767,318.67,1.46351
208.5000,-75.1421,319.97,1.47658
208.4000,-75.5354,320.889,1.48578
208.3000,-61.5559,321.082,1.4877
208.2000,-73.6647,323.178,1.5086
208.1000,-71.8463,323.844,1.51521
208.0000,-73.5274,324.702,1.52372
207.9000,-68.9827,325.851,1.53508
207.8000,-67.435,326.91,1.54552
207.7000,-67.404,327.921,1.55546
207.6000,-71.5955,328.631,1.56243
207.5000,-61.0759,329.669,1.57259
207.4000,-65.8033,330.512,1.58083
207.3000,-73.2322,331.303,1.58853
207.2000,-66.6571,332.324,1.59846
207.1000,-63.3138,333.412,1.60901
207.0000,-73.0624,334.627,1.62076
206.9000,-63.7278,335.832,1.63238
206.8000,-69.966,335.938,1.6334
206.7000,-60.065,337.591,1.64927
206.6000,-59.2637,338.675,1.65965
206.5000,-60.9073,339.332,1.66593
206.4000,-58.9823,340.947,1.68131
206.3000,-61.3688,342.064,1.69191
206.2000,-55.8824,342.883,1.69967
206.1000,-62.7763,344.927,1.71896
206.0000,-57.9828,345.644,1.72571
205.9000,-60.2894,347.755,1.7455
205.8000,-52.3655,347.294,1.74118
205.7000,-56.3214,349.26,1.75954
205.6000,-59.9264,350.442,1.77053
205.5000,-54.0833,352.017,1.78514
205.4000,-40.1684,352.854,1.79288
205.3000,-42.9818,355.085,1.81343
205.2000,-50.3539,357.265,1.83341
205.1000,-48.5675,357.495,1.83551
205.0000,-55.1079,359.305,1.85201
204.9000,-44.4825,360.935,1.86682
204.8000,-47.3073,362.033,1.87675
204.7000,-43.4827,363.593,1.89083
204.6000,-39.5079,364.376,1.89788
204.5000,-38.8284,365.858,1.91118
204.4000,-24.6035,367.942,1.92981
204.3000,-47.6834,369.889,1.94713
204.2000,-44.9923,370.944,1.95648
204.1000,-28.9862,372.886,1.97365
204.0000,-36.2486,374.368,1.9867
203.9000,-31.6582,376.695,2.0071
203.8000,-25.6288,378.237,2.02056
203.7000,-29.5634,380.064,2.03644
203.6000,-29.054,380.924,2.0439
203.5000,-26.9907,383.823,2.06894
203.4000,-20.4748,386.129,2.08873
203.3000,-14.088,386.639,2.0931
203.2000,-19.7318,388.576,2.10964
203.1000,-7.08407,390.133,2.12288
203.0000,-26.2599,392.263,2.14092
202.9000,-4.43125,393.043,2.14751
202.8000,-19.995,395.469,2.16792
202.7000,-15.0055,396.191,2.17397
202.6000,-9.04931,399.43,2.20103
202.5000,-12.942,399.981,2.20561
202.4000,-15.9841,402.782,2.22883
202.3000,-20.6005,404.358,2.24184
202.2000,-6.13256,406.862,2.26241
202.1000,-16.2221,408.444,2.27536
202.0000,13.5719,411.6,2.30106
201.9000,-1.89134,412.601,2.30917
201.8000,-8.85115,416.101,2.33742
201.7000,-2.87399,419.156,2.36191
201.6000,0.795218,418.227,2.35448
201.5000,-4.17288,422.601,2.38936
201.4000,9.38861,424.095,2.40119
201.3000,-9.23048,426.701,2.42176
201.2000,6.24094,428.669,2.43723
201.1000,21.7493,431.184,2.45691
201.0000,15.7205,433.938,2.47834
200.9000,7.76306,436.104,2.49512
200.8000,10.1557,437.792,2.50815
200.7000,14.5535,438.761,2.51561
200.6000,2.17549,443.531,2.55213
200.5000,3.49318,444.085,2.55635
200.4000,19.4365,446.381,2.57379
200.3000,4.11619,449.494,2.59731
200.2000,8.93431,452.29,2.61833
200.1000,10.98,455.853,2.64496
200.0000,9.50156,458.626,2.66555
199.9000,25.6983,460.014,2.67582
199.8000,8.53794,463.592,2.70218
199.7000,15.9222,465.729,2.71783
199.6000,19.6769,468.846,2.74057
199.5000,21.0884,470.719,2.75416
199.4000,25.3446,471.313,2.75846
199.3000,31.7744,474.455,2.78115
199.2000,20.1215,478.331,2.80896
199.1000,22.1418,480.046,2.8212
199.0000,27.4104,483.248,2.84396
198.9000,23.5328,485.357,2.85889
198.8000,24.5996,490.028,2.89174
198.7000,23.9434,491.649,2.90308
198.6000,20.6156,496.495,2.93679
198.5000,33.7225,497.315,2.94247
198.4000,36.3983,502.378,2.97735
198.3000,14.2804,503.74,2.98668
198.2000,38.9414,505.79,3.00068
198.1000,19.1991,508.956,3.02222
198.0000,34.3924,511.641,3.0404
197.9000,29.3074,515.224,3.06452
197.8000,25.7937,517.328,3.07863
197.7000,36.5276,520.809,3.10185
197.6000,46.0345,523.375,3.11889
197.5000,38.0768,526.806,3.14156
197.4000,24.026,528.481,3.15258
197.3000,29.9405,532.071,3.17611
197.2000,26.9293,535.998,3.20168
197.1000,25.1493,538.115,3.21541
197.0000,35.757,541.704,3.23856
196.9000,9.49327,545.062,3.26012
196.8000,36.1096,547.136,3.27337
196.7000,12.9179,550.987,3.29787
196.6000,21.2261,553.746,3.31533
196.5000,30.9255,557.19,3.33703
196.4000,18.7726,560.182,3.35578
196.3000,37.8612,563.838,3.37859
196.2000,21.0217,567.789,3.40309
196.1000,21.5229,570.507,3.41987
196.0000,22.65,573.706,3.43952
195.9000,31.4833,576.776,3.45829
195.8000,24.4353,580.597,3.48154
195.7000,37.2649,583.257,3.49764
195.6000,27.7593,586.401,3.5166
195.5000,27.042,588.494,3.52917
195.4000,26.3236,591.003,3.5442
195.3000,27.6695,593.98,3.56195
195.2000,34.2507,595.922,3.57349
195.1000,43.8766,598.505,3.58879
195.0000,25.781,601.713,3.60771
194.9000,34.6725,603.528,3.61838
194.8000,35.2938,605.835,3.6319
194.7000,27.5602,608.472,3.6473
194.6000,32.3497,610.566,3.65949
194.5000,19.9049,612.585,3.67121
194.4000,36.83,616.405,3.6933
194.3000,33.6803,618.835,3.70729
194.2000,26.9409,620.814,3.71865
194.1000,34.988,624.806,3.74146
194.0000,29.6493,626,3.74826
193.9000,29.3492,629.052,3.76559
193.8000,35.5653,633.125,3.78861
193.7000,35.9198,634.709,3.79753
193.6000,16.7941,637.738,3.81453
193.5000,31.872,639.501,3.82439
193.4000,26.35,641.872,3.83763
193.3000,17.9732,643.297,3.84555
193.2000,23.221,645.391,3.85718
193.1000,38.1056,647.595,3.86938
193.0000,18.3429,651,3.88817
192.9000,29.289,652.288,3.89525
192.8000,33.0777,655.63,3.91357
192.7000,32.9946,657.055,3.92136
192.6000,31.7061,658.711,3.93039
192.5000,32.3865,661.739,3.94686
192.4000,24.3764,663.959,3.95889
192.3000,21.0713,666.868,3.97461
192.2000,17.6932,669.807,3.99043
192.1000,11.3164,671.216,3.99799
192.0000,17.3239,673.408,4.00973
191.9000,14.5825,674.802,4.01717
191.8000,19.6571,677.972,4.03406
191.7000,16.7466,679.907,4.04434
191.6000,22.7888,682.549,4.05832
191.5000,27.1676,684.033,4.06616
191.4000,6.98532,684.398,4.06809
191.3000,31.9096,687.775,4.08586
191.2000,17.6959,689.689,4.0959
191.1000,16.4133,693.025,4.11334
191.0000,1.69593,695.299,4.12519
190.9000,3.50082,697.773,4.13805
190.8000,25.0416,700.559,4.15247
190.7000,0.866612,702.934,4.16473
190.6000,17.5455,705.738,4.17916
190.5000,5.5562,708.933,4.19555
190.4000,17.1816,711.135,4.2068
190.3000,9.91942,713.336,4.21802
190.2000,13.8199,715.844,4.23077
190.1000,17.2532,717.483,4.23908
190.0000,9.87199,720.128,4.25246

##### Extended Information
[Comments]
Sample name,PA_EH_JP
Comment
User,HurleyPonticos
Division
Company,Saint Mary's College

[Detailed Information]
Creation date,9/27/2022 4:44 PM

Data array type,Linear data array * 3
Horizontal axis,Wavelength [nm]
Vertical axis(1),CD [mdeg]
Vertical axis(2),HT [V]
Vertical axis(3),Abs
Start,320 nm
End,190 nm
Data interval,0.1 nm
Data points,1301    

[Measurement Information]
Instrument name,J-1500
Model name,J-1500
Serial No.,B051061638

Detector,PM-539
Detector S/N,B051061638
  Lock-in amp.,X mode
  HT volt,Auto

Accessory,PTC-517
Accessory S/N,B026561646
  Temperature,22.01 C
  Control sensor,Holder
  Monitor sensor,Holder

Measurement date,9/27/2022 4:44 PM

CD Overload detect,963
Photometric mode,CD, HT, Abs
Measure range,320 - 190 nm
Data pitch,0.1 nm
CD scale,20 mdeg/0.05 dOD
FL scale,20 mdeg/0.05 dOD
D.I.T.,8 msec
Bandwidth,2.00 nm
Start mode,Immediately
Scanning mode,Continuous
Scanning speed,100 nm/min
Baseline correction,None
Shutter control,Auto
No. of cycle,1/1
N2 Flowmeter,Manual

Solvent,NaPO4 buffer

