TITLE,PA_EH_JP
DATA TYPE,
ORIGIN,JASCO
OWNER,
DATE,22/09/27
TIME,17:46:14
SPECTROMETER/DATA SYSTEM,
LOCALE,1033
RESOLUTION,
DELTAX,-0.1
XUNITS,NANOMETERS
YUNITS,CD [mdeg]
Y2UNITS,HT [V]
Y3UNITS,ABSORBANCE
FIRSTX,  320.0000
LASTX,  190.0000
NPOINTS,    1301
FIRSTY,     1.72806
MAXY,    51.02800
MINY,   -76.82272
XYDATA
320.0000,1.72806,207.505,0.137114
319.9000,2.16938,207.292,0.134056
319.8000,3.11919,207.239,0.13329
319.7000,1.53922,206.378,0.120896
319.6000,0.568792,206.321,0.120079
319.5000,3.65847,206.868,0.127946
319.4000,1.20402,207.604,0.138529
319.3000,1.89814,207.169,0.132281
319.2000,-0.0245449,206.916,0.128647
319.1000,0.59424,207.093,0.131189
319.0000,0.183408,207.105,0.131369
318.9000,0.407794,207.278,0.133844
318.8000,1.19873,206.976,0.129511
318.7000,1.41953,206.671,0.125124
318.6000,0.9071,207.179,0.132427
318.5000,0.919097,206.838,0.127522
318.4000,1.84588,207.195,0.132655
318.3000,2.71426,206.804,0.127033
318.2000,1.34425,206.491,0.122529
318.1000,1.88072,206.624,0.124439
318.0000,1.12077,207.146,0.131955
317.9000,0.250723,207.545,0.137683
317.8000,1.06379,207.138,0.131841
317.7000,1.71921,206.703,0.125581
317.6000,0.399928,206.176,0.117987
317.5000,0.889087,207.484,0.136805
317.4000,-0.772125,206.398,0.12119
317.3000,1.39008,206.623,0.124423
317.2000,0.604091,207.295,0.134088
317.1000,1.16976,207.313,0.134348
317.0000,2.8544,206.957,0.129234
316.9000,1.18531,206.555,0.123443
316.8000,0.394407,206.796,0.126919
316.7000,1.04646,206.117,0.117136
316.6000,0.886197,206.657,0.124912
316.5000,2.29143,205.879,0.1137
316.4000,0.161242,207.113,0.131483
316.3000,3.25659,207.735,0.140414
316.2000,2.44249,207.059,0.130701
316.1000,0.108155,206.891,0.128289
316.0000,1.91328,207.315,0.134381
315.9000,2.41087,207.255,0.133518
315.8000,2.27074,206.581,0.123819
315.7000,1.6742,207.332,0.134625
315.6000,1.26497,206.703,0.125581
315.5000,0.790135,206.735,0.126038
315.4000,2.43992,206.846,0.127637
315.3000,0.0349414,205.927,0.114388
315.2000,2.27274,206.658,0.124929
315.1000,2.06115,206.615,0.124308
315.0000,1.05157,206.011,0.115599
314.9000,1.87557,206.163,0.11779
314.8000,0.913829,207.014,0.130049
314.7000,0.78131,207.041,0.13044
314.6000,2.32616,206.201,0.118346
314.5000,2.60261,206.887,0.128223
314.4000,0.741764,207.745,0.140544
314.3000,1.01805,206.09,0.116744
314.2000,0.049419,206.65,0.124814
314.1000,1.27926,206.205,0.118396
314.0000,1.07932,207.184,0.132492
313.9000,1.17839,206.814,0.12718
313.8000,0.968184,205.721,0.111408
313.7000,0.218344,206.429,0.121631
313.6000,2.37415,206.334,0.120258
313.5000,1.66911,206.579,0.123786
313.4000,1.03732,205.731,0.111556
313.3000,-0.0170358,205.996,0.115386
313.2000,0.230752,206.702,0.125565
313.1000,0.447798,206.521,0.122953
313.0000,2.30707,206.851,0.127702
312.9000,2.10754,206.252,0.119082
312.8000,0.736787,204.854,0.0988561
312.7000,0.919833,206.298,0.119736
312.6000,0.737492,206.67,0.125108
312.5000,1.40586,206.721,0.125842
312.4000,1.57706,206.401,0.121222
312.3000,1.59246,205.865,0.113488
312.2000,0.535605,206.451,0.121941
312.1000,1.12889,206.556,0.12346
312.0000,1.13651,206.1,0.116891
311.9000,0.781619,205.268,0.10485
311.8000,1.27967,207.175,0.132362
311.7000,-0.175788,206.194,0.118248
311.6000,0.18002,206.634,0.124586
311.5000,1.64705,206.789,0.126821
311.4000,1.57783,206.647,0.124766
311.3000,1.40683,207.209,0.132851
311.2000,1.31089,207.723,0.140236
311.1000,2.23689,206.514,0.122856
311.0000,0.77673,207.195,0.132655
310.9000,0.0384467,206.31,0.119915
310.8000,1.0705,207.587,0.138285
310.7000,0.451892,206.085,0.116662
310.6000,1.89793,206.517,0.122905
310.5000,1.28948,206.577,0.12377
310.4000,-0.404903,206.347,0.120455
310.3000,1.60794,206.055,0.116237
310.2000,1.05074,206.477,0.122317
310.1000,1.5977,206.132,0.117349
310.0000,1.095,206.56,0.123525
309.9000,0.425114,206.708,0.125646
309.8000,1.10859,206.319,0.120046
309.7000,0.390704,206.643,0.124716
309.6000,0.144271,206.042,0.116041
309.5000,-0.216108,206.63,0.124521
309.4000,1.43823,205.981,0.115173
309.3000,0.653094,206.827,0.127359
309.2000,0.72805,204.979,0.100664
309.1000,0.488419,206.713,0.125728
309.0000,2.23983,206.832,0.127441
308.9000,1.63215,206.206,0.118412
308.8000,1.04174,206.957,0.129234
308.7000,-0.391647,206.398,0.12119
308.6000,2.21329,205.975,0.115075
308.5000,1.83827,206.166,0.11784
308.4000,2.85901,206.38,0.120929
308.3000,-0.325876,206.315,0.119981
308.2000,1.73212,206.579,0.123786
308.1000,1.19719,206.413,0.121402
308.0000,0.895291,206.781,0.126707
307.9000,1.50608,207.103,0.131336
307.8000,1.19684,205.953,0.114764
307.7000,-0.0240334,206.417,0.121451
307.6000,0.872566,206.021,0.115746
307.5000,-0.0656955,205.358,0.106163
307.4000,0.378864,205.256,0.104686
307.3000,1.60116,205.941,0.114584
307.2000,0.826606,206.741,0.12612
307.1000,1.46195,206.129,0.1173
307.0000,2.83985,206.412,0.121386
306.9000,-0.618158,207.006,0.129935
306.8000,1.26696,205.534,0.108704
306.7000,2.22355,206.088,0.116711
306.6000,1.08616,205.733,0.111588
306.5000,0.868956,205.628,0.110065
306.4000,1.06085,206.35,0.120487
306.3000,1.00328,205.849,0.113259
306.2000,2.22006,206.111,0.117038
306.1000,2.49735,205.924,0.114339
306.0000,1.57508,207.025,0.130212
305.9000,2.82001,206.823,0.12731
305.8000,0.697111,206.236,0.118853
305.7000,-0.797558,206.815,0.127196
305.6000,1.01028,206.129,0.1173
305.5000,0.571583,205.399,0.106753
305.4000,1.14941,206.369,0.120765
305.3000,1.24958,206.011,0.115599
305.2000,-0.43495,206.549,0.123362
305.1000,0.844347,206.559,0.123509
305.0000,1.6237,206.31,0.119915
304.9000,1.1104,205.865,0.113488
304.8000,1.78626,205.934,0.114486
304.7000,1.18363,206.651,0.124831
304.6000,1.3675,206.412,0.121386
304.5000,0.857039,206.404,0.121272
304.4000,1.03033,205.971,0.115026
304.3000,1.83543,206.31,0.119915
304.2000,0.435366,206.553,0.123411
304.1000,0.620232,205.246,0.104539
304.0000,1.52332,207.908,0.142883
303.9000,1.65582,206.304,0.119834
303.8000,0.850211,206.509,0.12279
303.7000,0.533422,205.603,0.109704
303.6000,0.545106,205.007,0.101074
303.5000,1.1048,205.826,0.112931
303.4000,1.68312,208.021,0.144506
303.3000,0.628181,205.669,0.110655
303.2000,-0.261711,205.989,0.115288
303.1000,0.01261,206.82,0.127261
303.0000,2.00712,205.736,0.111621
302.9000,0.694843,205.826,0.112931
302.8000,0.218238,205.33,0.105753
302.7000,0.723591,206.046,0.116106
302.6000,1.86842,206.32,0.120063
302.5000,1.0549,206.389,0.121059
302.4000,-0.644495,205.602,0.109688
302.3000,1.80527,205.652,0.110409
302.2000,0.306005,206,0.115435
302.1000,1.49588,205.694,0.111015
302.0000,1.59595,205.08,0.102126
301.9000,1.53605,205.921,0.114306
301.8000,-0.0470022,205.473,0.107819
301.7000,1.16158,205.346,0.105983
301.6000,0.578214,205.827,0.112948
301.5000,1.26784,205.168,0.103406
301.4000,-0.547867,206.019,0.115713
301.3000,-0.0530032,206.857,0.1278
301.2000,0.621787,207.126,0.131662
301.1000,0.910429,206.048,0.116139
301.0000,1.27671,206.507,0.122758
300.9000,1.57756,206.515,0.122872
300.8000,1.30902,206.406,0.121304
300.7000,2.566,206.474,0.122284
300.6000,-0.545116,205.118,0.102684
300.5000,1.58034,206.616,0.124325
300.4000,0.699838,206.644,0.124733
300.3000,2.48732,205.998,0.115419
300.2000,0.840603,206.076,0.116531
300.1000,0.920166,206.515,0.122872
300.0000,0.425842,204.975,0.100615
299.9000,1.17473,206.532,0.123117
299.8000,2.46929,206.028,0.115844
299.7000,2.02155,205.925,0.114355
299.6000,-0.440111,206.326,0.120144
299.5000,1.71156,205.874,0.113619
299.4000,-0.501001,205.511,0.108377
299.3000,0.353889,205.319,0.105589
299.2000,0.478751,205.541,0.108803
299.1000,0.0461244,206.09,0.116744
299.0000,0.708823,205.392,0.106655
298.9000,-0.104117,205.492,0.108098
298.8000,0.452674,205.997,0.115403
298.7000,0.736184,206.027,0.115828
298.6000,0.152931,205.93,0.114437
298.5000,1.53731,206.098,0.116858
298.4000,0.154608,206.817,0.127213
298.3000,0.521241,205.877,0.113668
298.2000,0.496143,206.37,0.120781
298.1000,0.131193,205.991,0.115304
298.0000,0.933437,205.395,0.106688
297.9000,-0.276357,205.499,0.108196
297.8000,3.06822,206.521,0.122953
297.7000,2.21614,205.731,0.111556
297.6000,1.54384,205.243,0.10449
297.5000,1.47731,206.503,0.122692
297.4000,-1.57823,206.282,0.119507
297.3000,0.427944,205.544,0.108852
297.2000,0.599939,205.57,0.109229
297.1000,1.78073,206.694,0.125451
297.0000,1.31957,205.674,0.110737
296.9000,1.8918,206.371,0.120798
296.8000,0.159045,205.822,0.112866
296.7000,0.34522,205.808,0.112669
296.6000,1.26251,205.755,0.111899
296.5000,0.430034,206.435,0.121712
296.4000,0.76059,206.074,0.116515
296.3000,-0.96336,205.702,0.11113
296.2000,-0.254101,206.449,0.121925
296.1000,0.935096,206.207,0.118428
296.0000,1.63662,205.473,0.107819
295.9000,1.45045,205.856,0.113357
295.8000,-0.229391,205.402,0.106803
295.7000,0.732355,205.81,0.112702
295.6000,0.669785,205.817,0.1128
295.5000,0.681883,206.414,0.121419
295.4000,-0.189982,205.264,0.104801
295.3000,0.966807,205.788,0.112374
295.2000,1.93404,206.018,0.115697
295.1000,1.05756,205.806,0.112636
295.0000,1.08251,205.851,0.113291
294.9000,2.28846,206.329,0.120193
294.8000,1.68245,205.449,0.107475
294.7000,0.0240941,206.039,0.116008
294.6000,1.18162,204.603,0.0952055
294.5000,1.47256,206.199,0.118314
294.4000,0.734478,206.264,0.119245
294.3000,0.376634,205.576,0.109311
294.2000,2.2597,205.712,0.111277
294.1000,-0.209679,206.045,0.11609
294.0000,1.73435,206.032,0.11591
293.9000,1.46544,206.216,0.118559
293.8000,2.7757,205.878,0.113684
293.7000,-0.373252,205.121,0.102733
293.6000,1.19286,205.976,0.115092
293.5000,2.32563,205.932,0.114453
293.4000,0.894156,206.001,0.115452
293.3000,1.07127,206.499,0.122643
293.2000,-0.287249,205.719,0.111375
293.1000,0.671983,205.737,0.111637
293.0000,-0.415898,206.789,0.126821
292.9000,1.19877,205.857,0.113373
292.8000,-0.26515,205.729,0.111523
292.7000,2.05003,205.753,0.111867
292.6000,1.08264,205.722,0.111424
292.5000,-0.493604,207.066,0.130799
292.4000,-0.67137,205.5,0.108213
292.3000,1.24877,205.097,0.102372
292.2000,2.0046,205.707,0.111212
292.1000,1.16677,205.899,0.113979
292.0000,0.181286,206.025,0.115795
291.9000,0.612613,205.116,0.102651
291.8000,1.29096,206.638,0.124635
291.7000,0.99715,205.5,0.108213
291.6000,1.0803,205.485,0.108
291.5000,1.75262,205.639,0.110229
291.4000,1.45173,205.28,0.105031
291.3000,0.35809,205.474,0.107836
291.2000,-0.253177,206.2,0.11833
291.1000,0.0838476,205.849,0.113259
291.0000,1.16534,206.577,0.12377
290.9000,0.741386,206.315,0.119981
290.8000,1.33118,206.014,0.115648
290.7000,0.4729,205.491,0.108082
290.6000,0.0117619,206.308,0.119883
290.5000,0.757935,205.228,0.104276
290.4000,0.512296,205.98,0.115157
290.3000,1.01097,206.02,0.11573
290.2000,0.389737,206.065,0.116384
290.1000,1.46685,205.438,0.107311
290.0000,-0.554716,206.078,0.116564
289.9000,0.984961,205.355,0.106114
289.8000,1.41905,206.525,0.123019
289.7000,0.381437,206.364,0.1207
289.6000,1.8189,206.739,0.126103
289.5000,0.2943,206.44,0.121794
289.4000,2.06461,206.504,0.122709
289.3000,2.17769,206.529,0.123068
289.2000,2.29188,206.973,0.129462
289.1000,2.2622,206.525,0.123019
289.0000,1.13755,206.645,0.124749
288.9000,1.26157,205.928,0.114404
288.8000,1.1236,206.171,0.117905
288.7000,2.19432,206.367,0.120732
288.6000,1.75764,206.275,0.119409
288.5000,1.78569,206.443,0.121827
288.4000,0.181675,206.373,0.12083
288.3000,0.630746,205.917,0.114241
288.2000,1.1988,205.906,0.114077
288.1000,0.735176,205.787,0.112358
288.0000,-0.260291,206.866,0.12793
287.9000,0.896696,206.227,0.118722
287.8000,0.0300942,206.276,0.119425
287.7000,0.7098,206.84,0.127555
287.6000,0.85098,206.989,0.12969
287.5000,0.139358,206.398,0.12119
287.4000,0.845485,206.224,0.118673
287.3000,0.748802,207.092,0.131173
287.2000,1.2732,206.21,0.118477
287.1000,0.426297,205.994,0.115353
287.0000,0.291277,205.926,0.114371
286.9000,0.695501,206.199,0.118314
286.8000,0.892899,206.962,0.129299
286.7000,-0.484819,206.121,0.117186
286.6000,0.128202,206.383,0.120961
286.5000,-0.262262,206.371,0.120798
286.4000,1.25553,206.942,0.129022
286.3000,-0.36149,206.094,0.116793
286.2000,0.630943,206.848,0.127669
286.1000,0.407225,206.516,0.122888
286.0000,-1.19537,206.32,0.120063
285.9000,1.34163,206.379,0.120912
285.8000,1.63916,206.687,0.125353
285.7000,1.57588,206.683,0.125288
285.6000,0.350477,206.896,0.128354
285.5000,0.989381,206.745,0.126185
285.4000,1.06416,207.576,0.138123
285.3000,1.41026,207.309,0.1343
285.2000,-0.123457,207.127,0.131678
285.1000,1.44182,206.183,0.118085
285.0000,0.376218,206.59,0.12395
284.9000,0.207448,206.642,0.1247
284.8000,0.78507,207.025,0.130212
284.7000,-0.111565,207.374,0.135227
284.6000,0.908186,206.826,0.127343
284.5000,1.20895,207.474,0.136659
284.4000,-0.966598,206.545,0.123297
284.3000,-0.28709,206.317,0.120013
284.2000,0.996763,206.576,0.123753
284.1000,0.211897,206.555,0.123443
284.0000,-1.45163,206.698,0.1255
283.9000,-0.404123,206.63,0.124521
283.8000,0.167059,206.19,0.118183
283.7000,0.175459,207.132,0.131743
283.6000,-0.276657,207.45,0.136317
283.5000,-0.725479,206.238,0.118869
283.4000,1.73765,206.373,0.12083
283.3000,1.46778,206.903,0.128452
283.2000,0.490967,206.802,0.127
283.1000,0.225402,206.224,0.118673
283.0000,0.864801,207.38,0.135309
282.9000,2.07186,206.666,0.125043
282.8000,-1.06603,207.159,0.132134
282.7000,0.117585,206.444,0.121843
282.6000,0.895027,207.382,0.135341
282.5000,0.28693,206.154,0.11766
282.4000,1.8944,206.671,0.125124
282.3000,-0.660259,206.341,0.120357
282.2000,-0.403297,206.593,0.123998
282.1000,1.56489,207.018,0.130114
282.0000,-1.29393,207.109,0.131417
281.9000,0.630161,206.894,0.128321
281.8000,0.858002,207.147,0.131971
281.7000,3.37432,206.435,0.121712
281.6000,1.3661,206.616,0.124325
281.5000,-0.157003,206.947,0.129088
281.4000,0.160688,206.648,0.124782
281.3000,-0.466552,206.483,0.122415
281.2000,1.1655,206.579,0.123786
281.1000,1.19281,207.144,0.131922
281.0000,-0.733789,206.183,0.118085
280.9000,0.894019,207.47,0.13661
280.8000,0.553767,207.228,0.133127
280.7000,-0.53494,207.263,0.133632
280.6000,0.260679,207.585,0.138252
280.5000,-0.0216947,206.983,0.129609
280.4000,1.47592,206.63,0.124521
280.3000,2.54341,206.83,0.127408
280.2000,0.188009,207.318,0.13443
280.1000,1.93185,207.141,0.131874
280.0000,0.324571,206.919,0.12868
279.9000,0.470258,206.687,0.125353
279.8000,-1.06443,206.914,0.128615
279.7000,-0.202985,206.704,0.125598
279.6000,0.490995,207.458,0.136431
279.5000,0.0917809,206.78,0.126691
279.4000,0.282892,206.937,0.128941
279.3000,0.325064,206.856,0.127783
279.2000,0.999555,207.23,0.13316
279.1000,-0.361517,205.331,0.105769
279.0000,0.387395,207.009,0.129984
278.9000,0.754011,207.738,0.140447
278.8000,-0.263906,207.306,0.134251
278.7000,1.3997,207.006,0.129935
278.6000,0.334346,207.61,0.13861
278.5000,0.759301,207.037,0.130391
278.4000,0.512027,206.669,0.125092
278.3000,0.700832,206.618,0.124358
278.2000,0.464598,207.594,0.138383
278.1000,-0.417733,207.296,0.134104
278.0000,-0.381318,207.454,0.136382
277.9000,-0.263646,206.904,0.128468
277.8000,-0.154646,207.808,0.141454
277.7000,0.94576,206.897,0.12837
277.6000,0.54047,206.115,0.117104
277.5000,1.16939,205.98,0.115157
277.4000,0.652688,206.787,0.126788
277.3000,0.185788,206.487,0.122464
277.2000,-0.875822,206.953,0.129169
277.1000,-0.779957,207.043,0.130473
277.0000,-0.0681897,206.752,0.126283
276.9000,-0.719098,207.547,0.137716
276.8000,-0.708997,206.963,0.129315
276.7000,2.48763,206.497,0.122611
276.6000,0.0527343,207.89,0.142623
276.5000,-0.263633,206.666,0.125043
276.4000,0.519575,208.012,0.144377
276.3000,1.31462,205.758,0.111949
276.2000,-1.06157,206.655,0.12488
276.1000,0.0329443,207.396,0.135536
276.0000,0.571874,207.717,0.140154
275.9000,-0.009423,207.427,0.135992
275.8000,-0.801674,207.381,0.135325
275.7000,1.79609,207.572,0.138074
275.6000,0.897594,207.545,0.137683
275.5000,-0.721674,206.489,0.122496
275.4000,-0.209496,207.324,0.134511
275.3000,-0.548243,207.052,0.130603
275.2000,0.353385,207.24,0.133306
275.1000,0.0400675,206.357,0.120585
275.0000,0.706084,207.257,0.133551
274.9000,0.371373,207.193,0.132623
274.8000,-0.0372965,206.519,0.122921
274.7000,-0.193142,207.136,0.131808
274.6000,-0.523297,207.181,0.13246
274.5000,-0.898301,207.883,0.142526
274.4000,2.09543,207.596,0.138415
274.3000,1.17711,206.872,0.128011
274.2000,0.912928,207.187,0.132541
274.1000,0.929022,207.234,0.133209
274.0000,-1.04093,207.071,0.13088
273.9000,0.0593783,207.075,0.130929
273.8000,1.74231,207.079,0.130994
273.7000,-1.31403,207.725,0.140268
273.6000,-0.208792,207.69,0.139764
273.5000,-0.208752,207.295,0.134088
273.4000,0.524549,207.772,0.140934
273.3000,0.662916,207.526,0.137407
273.2000,0.187801,207.967,0.143728
273.1000,0.603346,206.187,0.118134
273.0000,-1.54537,207.299,0.134153
272.9000,0.300173,207.633,0.138952
272.8000,1.35462,206.784,0.12674
272.7000,-0.937363,206.794,0.126886
272.6000,0.491259,206.14,0.117463
272.5000,0.901765,207.329,0.134576
272.4000,0.981063,206.974,0.129478
272.3000,0.680629,206.574,0.123721
272.2000,0.341391,206.819,0.127245
272.1000,-0.92136,207.44,0.136171
272.0000,0.795831,206.678,0.125222
271.9000,-0.822249,206.409,0.121337
271.8000,1.38566,206.89,0.128272
271.7000,0.700574,207.751,0.140642
271.6000,1.22526,207.91,0.142916
271.5000,0.141017,207.324,0.134511
271.4000,0.533487,205.9,0.113995
271.3000,-0.220784,206.692,0.125418
271.2000,0.00167785,207.217,0.132965
271.1000,-2.27853,207.188,0.132557
271.0000,-0.759251,207.392,0.135487
270.9000,0.49111,207.374,0.135227
270.8000,1.18308,207.265,0.133665
270.7000,0.290114,207.051,0.130587
270.6000,-0.315423,207.439,0.136154
270.5000,0.49163,207.241,0.133323
270.4000,1.38976,207.34,0.134739
270.3000,0.152542,206.737,0.126071
270.2000,-0.795508,206.658,0.124929
270.1000,0.290371,207.494,0.136952
270.0000,0.488245,207.033,0.130326
269.9000,-1.34913,206.766,0.126479
269.8000,-0.445882,207.596,0.138415
269.7000,2.5799,206.99,0.129707
269.6000,0.0310468,207.466,0.136545
269.5000,0.499825,207.575,0.138106
269.4000,-1.11857,207.278,0.133844
269.3000,-1.02518,207.67,0.139472
269.2000,-1.61623,207.481,0.136756
269.1000,1.68465,207.355,0.134951
269.0000,0.584534,207.711,0.140057
268.9000,-0.52121,207.76,0.140772
268.8000,-0.0683633,207.502,0.137066
268.7000,-0.00977917,207.363,0.135064
268.6000,0.563636,207.105,0.131369
268.5000,1.44987,208.302,0.148529
268.4000,-0.781423,207.859,0.142185
268.3000,-0.735815,207.034,0.130342
268.2000,-0.218462,208.922,0.157387
268.1000,-1.1245,207.467,0.136561
268.0000,0.0865567,207.673,0.13952
267.9000,0.412109,208.336,0.149016
267.8000,2.33802,208.056,0.14501
267.7000,1.26439,208.517,0.151609
267.6000,1.43106,208.39,0.149794
267.5000,1.50082,208.241,0.147654
267.4000,0.66005,207.735,0.140414
267.3000,1.0226,207.428,0.136008
267.2000,-0.529385,207.971,0.143792
267.1000,0.77409,207.89,0.142623
267.0000,-0.473635,207.833,0.141811
266.9000,0.0255025,207.807,0.141438
266.8000,2.01555,207.75,0.140625
266.7000,-0.671297,208.1,0.145642
266.6000,0.0156217,208.267,0.148027
266.5000,-0.320317,208.813,0.155834
266.4000,-0.715205,207.72,0.140187
266.3000,-0.846014,208.516,0.151592
266.2000,0.0672798,208.575,0.152434
266.1000,-0.413382,208.192,0.146956
266.0000,-1.97086,208.325,0.148854
265.9000,2.53828,207.69,0.139764
265.8000,0.338173,207.7,0.139911
265.7000,-0.762943,208.803,0.155688
265.6000,-1.07419,208.635,0.153293
265.5000,-0.0692563,209.087,0.159747
265.4000,0.343069,208.336,0.149016
265.3000,-0.508943,208.309,0.148627
265.2000,-1.68271,207.632,0.138935
265.1000,-0.607933,207.833,0.141811
265.0000,1.06065,207.965,0.143711
264.9000,0.862291,208.491,0.151236
264.8000,0.357899,208.303,0.148546
264.7000,0.128225,208.065,0.145139
264.6000,-0.733796,209.272,0.162381
264.5000,0.778095,209.499,0.165609
264.4000,-0.813303,208.627,0.153179
264.3000,-0.0574319,209.135,0.160426
264.2000,0.135022,208.021,0.144506
264.1000,1.51738,208.505,0.15143
264.0000,0.994338,207.554,0.137814
263.9000,-0.0397392,207.91,0.142916
263.8000,0.333106,209.249,0.162058
263.7000,0.761558,208.195,0.147005
263.6000,1.20213,208.838,0.15619
263.5000,1.30704,208.859,0.156497
263.4000,-0.693257,208.692,0.154102
263.3000,-0.866413,209.142,0.160523
263.2000,-0.719144,208.256,0.147865
263.1000,-0.209801,208.667,0.153746
263.0000,2.04075,209.004,0.158567
262.9000,0.558765,208.737,0.15475
262.8000,-0.359755,208.602,0.152823
262.7000,-0.805318,209.402,0.164237
262.6000,0.518694,208.797,0.155607
262.5000,0.520292,209.741,0.169061
262.4000,0.89347,208.186,0.146875
262.3000,0.165674,208.729,0.154636
262.2000,0.630089,209.255,0.162138
262.1000,-0.493274,209.436,0.164722
262.0000,-1.33749,209.041,0.159084
261.9000,0.204732,209.724,0.168819
261.8000,0.153376,208.957,0.157888
261.7000,0.120561,209.198,0.161331
261.6000,-0.296432,208.829,0.15606
261.5000,0.400326,209.426,0.164576
261.4000,0.424599,209.594,0.166965
261.3000,-0.0919256,209.416,0.164431
261.2000,1.29959,210.158,0.174988
261.1000,0.934799,208.569,0.152354
261.0000,0.696328,209.085,0.159715
260.9000,-0.23277,209.428,0.164609
260.8000,1.2144,209.996,0.172686
260.7000,0.77605,209.34,0.16335
260.6000,0.330414,209.554,0.1664
260.5000,-0.380998,210.252,0.176324
260.4000,-1.19871,208.001,0.144215
260.3000,-0.201568,209.505,0.165706
260.2000,0.158498,209.429,0.164625
260.1000,2.97825,209.767,0.169431
260.0000,1.77337,209.571,0.166642
259.9000,0.248766,211.307,0.191271
259.8000,-0.243317,209.746,0.169125
259.7000,0.592835,209.495,0.165561
259.6000,-0.366423,209.412,0.164383
259.5000,-0.91616,209.69,0.168335
259.4000,1.36793,209.964,0.172235
259.3000,2.13547,209.316,0.163011
259.2000,1.34249,210.626,0.181629
259.1000,-0.525061,210.783,0.183862
259.0000,-0.34409,210.363,0.1779
258.9000,-0.819197,210.417,0.178672
258.8000,0.112156,210.373,0.178045
258.7000,0.477837,209.98,0.172461
258.6000,1.86026,210.39,0.178286
258.5000,0.584942,210.433,0.178897
258.4000,0.754302,210.412,0.178592
258.3000,-0.245591,210.17,0.175166
258.2000,-0.791625,209.112,0.160103
258.1000,-0.781773,210.531,0.18028
258.0000,-1.60324,210.066,0.173684
257.9000,-1.89223,210.198,0.175552
257.8000,0.398014,210.497,0.179797
257.7000,-1.02769,210.405,0.178495
257.6000,-0.546418,210.796,0.184038
257.5000,1.05751,210.642,0.181854
257.4000,-0.279944,210.841,0.18468
257.3000,1.65465,210.954,0.186285
257.2000,1.08715,210.585,0.181051
257.1000,0.390442,210.313,0.177193
257.0000,-0.581046,210.228,0.175986
256.9000,-0.555267,211.209,0.189893
256.8000,0.42595,210.745,0.183316
256.7000,-0.444376,210.49,0.179701
256.6000,-1.52655,210.721,0.182979
256.5000,0.944455,210.589,0.181099
256.4000,0.406767,210.173,0.175198
256.3000,-0.0280074,211.387,0.192409
256.2000,0.0387549,210.369,0.177981
256.1000,-1.15351,210.74,0.183251
256.0000,-0.533774,210.38,0.178142
255.9000,0.892087,210.108,0.17428
255.8000,1.17076,212.112,0.202646
255.7000,-0.0700925,210.816,0.184327
255.6000,1.78359,211.279,0.190871
255.5000,0.383543,211.163,0.189236
255.4000,-0.584199,210.42,0.178704
255.3000,-0.0985242,211.565,0.194923
255.2000,0.074172,211.02,0.187216
255.1000,-0.805189,210.883,0.185274
255.0000,-0.93826,210.787,0.18391
254.9000,0.65929,211.72,0.197115
254.8000,-0.243283,210.31,0.177144
254.7000,-0.836048,211.497,0.193962
254.6000,-1.91067,211.384,0.192361
254.5000,1.02051,211.807,0.19833
254.4000,-0.908353,211.73,0.197243
254.3000,-0.148672,211.842,0.198826
254.2000,-1.45797,212.085,0.202262
254.1000,-0.787535,212.039,0.201607
254.0000,0.121071,212.132,0.202917
253.9000,-1.07748,211.475,0.193642
253.8000,0.600629,211.461,0.19345
253.7000,0.675188,211.622,0.195723
253.6000,0.946128,211.92,0.199929
253.5000,-0.455848,210.846,0.184745
253.4000,1.27217,211.565,0.194923
253.3000,-2.08391,212.041,0.201639
253.2000,0.0418755,211.604,0.195467
253.1000,-1.75511,211.504,0.194058
253.0000,-2.32534,211.622,0.195723
252.9000,0.518064,210.787,0.18391
252.8000,-1.06559,212.051,0.201783
252.7000,-1.88619,211.57,0.194987
252.6000,0.378244,211.03,0.18736
252.5000,0.502912,212.381,0.206429
252.4000,1.11717,212.041,0.201639
252.3000,-0.139007,211.879,0.199354
252.2000,1.76718,211.848,0.198922
252.1000,0.630603,211.965,0.200569
252.0000,0.294082,212.061,0.201927
251.9000,0.205357,211.601,0.195435
251.8000,-0.365761,212.289,0.205137
251.7000,-0.590409,212.207,0.203971
251.6000,-0.250358,212.083,0.20223
251.5000,-0.886839,211.931,0.200089
251.4000,-0.21423,212.919,0.214
251.3000,0.828387,211.484,0.19377
251.2000,-0.115698,213.089,0.216388
251.1000,-1.73395,212.363,0.206174
251.0000,-1.87267,212.604,0.209571
250.9000,0.397567,212.395,0.20662
250.8000,0.522922,212.776,0.211993
250.7000,-1.47365,212.133,0.202933
250.6000,-1.71804,212.431,0.207131
250.5000,0.406553,213.035,0.215624
250.4000,-1.38697,213.144,0.217151
250.3000,0.262532,212.503,0.208152
250.2000,-0.815284,213.229,0.218344
250.1000,-1.37417,212.577,0.209188
250.0000,-0.617228,212.025,0.201416
249.9000,-0.537682,212.825,0.212678
249.8000,0.756435,213.438,0.221285
249.7000,-0.183256,213.25,0.218646
249.6000,1.67158,211.765,0.197739
249.5000,-0.387079,213.545,0.222779
249.4000,0.132817,212.735,0.211404
249.3000,0.663429,212.991,0.215003
249.2000,-0.379577,213.301,0.219362
249.1000,0.0957809,212.907,0.213825
249.0000,-0.334019,212.67,0.210496
248.9000,-1.05669,213.253,0.218694
248.8000,-0.384492,213.461,0.221603
248.7000,0.745989,212.974,0.214764
248.6000,-0.120507,213.264,0.218837
248.5000,-2.00114,213.111,0.21669
248.4000,0.498372,213.531,0.222588
248.3000,-0.656514,212.993,0.215035
248.2000,-0.472194,213.497,0.222112
248.1000,0.814568,213.368,0.2203
248.0000,-0.427615,213.498,0.222127
247.9000,-0.79238,214.542,0.23673
247.8000,-1.10724,213.783,0.226113
247.7000,-0.450649,213.146,0.217183
247.6000,-1.39844,213.942,0.22835
247.5000,-1.38809,212.949,0.214414
247.4000,-0.76644,214.279,0.233057
247.3000,0.428101,214.007,0.229254
247.2000,-2.97336,214.756,0.239719
247.1000,-1.68204,214.01,0.229301
247.0000,-2.28028,213.227,0.218328
246.9000,-1.68811,213.742,0.225542
246.8000,-2.42637,214.621,0.237837
246.7000,-0.0788864,214.085,0.230348
246.6000,-1.51573,213.434,0.221222
246.5000,-3.58971,213.682,0.2247
246.4000,-2.09391,214.625,0.237885
246.3000,-1.33357,214.495,0.236081
246.2000,-0.970945,213.886,0.227557
246.1000,-1.6817,214.76,0.239783
246.0000,0.363671,215.343,0.2479
245.9000,-3.1639,214.964,0.242627
245.8000,-1.98342,214.637,0.238059
245.7000,-0.716518,214.281,0.233089
245.6000,-3.30818,215.019,0.243385
245.5000,-1.48398,215.143,0.245122
245.4000,-0.016577,214.477,0.235828
245.3000,-2.40508,215.064,0.244017
245.2000,-1.73295,214.851,0.241047
245.1000,-1.24824,213.868,0.227303
245.0000,-2.46654,214.572,0.237157
244.9000,-3.88752,215.585,0.251274
244.8000,-3.0355,214.467,0.235685
244.7000,-0.265918,214.984,0.242896
244.6000,-2.59194,215.226,0.246275
244.5000,-2.99065,214.963,0.242611
244.4000,-3.68191,215.434,0.249162
244.3000,-1.43601,216.162,0.259287
244.2000,-3.30371,213.48,0.221873
244.1000,-4.42317,215.666,0.252393
244.0000,-3.09666,215.429,0.249098
243.9000,-3.50517,215.867,0.255196
243.8000,-4.89481,215.586,0.25129
243.7000,-3.01474,215.806,0.254346
243.6000,-2.53744,216.284,0.260985
243.5000,-2.8224,215.941,0.256219
243.4000,-2.72556,216.461,0.263436
243.3000,-4.27278,216.539,0.26452
243.2000,-3.69111,216.721,0.267032
243.1000,-5.69068,215.804,0.254314
243.0000,-2.94766,216.151,0.25913
242.9000,-2.7946,216.607,0.265462
242.8000,-6.13249,215.764,0.253763
242.7000,-4.50637,216.638,0.265886
242.6000,-5.74307,216.361,0.262054
242.5000,-6.20594,217.105,0.272347
242.4000,-4.92044,216.448,0.263248
242.3000,-5.03072,216.704,0.266796
242.2000,-4.70225,216.484,0.26375
242.1000,-5.64355,217.254,0.274415
242.0000,-3.45616,216.954,0.270263
241.9000,-5.50194,217.399,0.276419
241.8000,-5.049,217.053,0.271626
241.7000,-7.57777,217.879,0.283034
241.6000,-5.29328,217.302,0.275073
241.5000,-7.25778,218.033,0.285158
241.4000,-6.82528,216.783,0.267894
241.3000,-6.95395,217.888,0.283159
241.2000,-6.33726,217.992,0.284596
241.1000,-5.02188,218.404,0.290276
241.0000,-7.84076,218.532,0.292037
240.9000,-6.74175,217.632,0.279626
240.8000,-7.61232,218.775,0.295371
240.7000,-8.86373,218.484,0.291367
240.6000,-8.75872,218.782,0.295464
240.5000,-8.37604,218.991,0.298344
240.4000,-9.81108,218.798,0.295682
240.3000,-6.34757,219.305,0.302651
240.2000,-9.12892,218.828,0.296103
240.1000,-9.61022,219.03,0.298872
240.0000,-9.59798,219.83,0.309838
239.9000,-10.0235,219.372,0.303567
239.8000,-10.2853,219.839,0.309962
239.7000,-8.03032,219.505,0.305384
239.6000,-8.43883,219.108,0.299946
239.5000,-9.19041,221.254,0.329281
239.4000,-9.01257,220.629,0.320756
239.3000,-12.4341,220.692,0.321622
239.2000,-12.0661,222.775,0.349925
239.1000,-11.4227,221.441,0.331826
239.0000,-12.2619,220.69,0.32159
238.9000,-11.8944,221.081,0.32692
238.8000,-10.2891,221.359,0.330716
238.7000,-12.5641,220.928,0.324835
238.6000,-12.5921,221.626,0.334338
238.5000,-11.0103,221.809,0.336832
238.4000,-10.6586,221.727,0.335708
238.3000,-15.4881,222.636,0.348053
238.2000,-12.5834,222.389,0.344706
238.1000,-11.7572,222.981,0.352716
238.0000,-15.9983,222.98,0.352701
237.9000,-12.5821,222.916,0.351842
237.8000,-13.0843,223.15,0.354999
237.7000,-16.993,222.582,0.347316
237.6000,-15.3854,223.324,0.357357
237.5000,-15.3132,223.436,0.358873
237.4000,-17.4487,223.898,0.365096
237.3000,-16.7642,224.134,0.368287
237.2000,-17.6779,223.7,0.362436
237.1000,-18.6232,224.588,0.374387
237.0000,-17.3905,224.438,0.372375
236.9000,-17.3239,224.075,0.367493
236.8000,-17.1829,225.188,0.382454
236.7000,-17.7138,224.303,0.37056
236.6000,-18.7186,225.94,0.392535
236.5000,-18.6339,224.629,0.374951
236.4000,-19.6956,225.47,0.386238
236.3000,-19.9864,225.059,0.38072
236.2000,-19.7163,225.349,0.384612
236.1000,-19.7793,225.639,0.3885
236.0000,-20.5102,225.849,0.391307
235.9000,-20.5938,225.959,0.392778
235.8000,-20.3784,226.782,0.403784
235.7000,-22.2787,226.731,0.403104
235.6000,-21.4942,227.535,0.413807
235.5000,-22.2041,227.112,0.40818
235.4000,-20.1309,227.537,0.413837
235.3000,-22.2175,227.568,0.414244
235.2000,-22.2939,227.954,0.41938
235.1000,-22.7082,227.852,0.418025
235.0000,-25.8987,228.013,0.420163
234.9000,-24.3713,229.045,0.433846
234.8000,-22.9402,228.227,0.423006
234.7000,-25.5328,228.55,0.427289
234.6000,-24.5576,228.957,0.432677
234.5000,-26.7497,228.684,0.429061
234.4000,-27.3697,229.091,0.434461
234.3000,-27.8093,229.973,0.446105
234.2000,-25.343,230.46,0.452524
234.1000,-28.088,230.171,0.448719
234.0000,-24.8317,229.887,0.444969
233.9000,-26.7197,230.57,0.453971
233.8000,-31.1839,230.125,0.448107
233.7000,-26.9443,230.941,0.458844
233.6000,-29.6337,232.312,0.476817
233.5000,-30.0847,231.798,0.470098
233.4000,-29.7043,232.399,0.477958
233.3000,-32.1306,231.726,0.469148
233.2000,-33.126,232.275,0.476343
233.1000,-30.2067,232.517,0.479498
233.0000,-36.0591,232.551,0.479943
232.9000,-33.7228,233.389,0.490882
232.8000,-32.7269,233.54,0.492845
232.7000,-35.5996,234.079,0.499861
232.6000,-32.1974,233.869,0.497121
232.5000,-34.4268,234.639,0.507129
232.4000,-31.9682,234.234,0.501878
232.3000,-36.4237,234.615,0.50682
232.2000,-34.4121,234.685,0.507731
232.1000,-36.8094,234.854,0.50992
232.0000,-35.3337,235.355,0.516405
231.9000,-38.5076,235.2,0.514396
231.8000,-36.0546,235.954,0.524152
231.7000,-35.7243,236.28,0.528348
231.6000,-38.1932,236.479,0.530919
231.5000,-38.1814,237.352,0.542145
231.4000,-40.8639,237.631,0.545739
231.3000,-37.786,237.357,0.542218
231.2000,-41.8268,237.562,0.544852
231.1000,-39.8272,237.917,0.549402
231.0000,-42.67,237.722,0.546903
230.9000,-40.8272,238.162,0.552539
230.8000,-43.1371,237.746,0.547208
230.7000,-43.9741,238.27,0.553933
230.6000,-43.3649,238.159,0.55251
230.5000,-43.1321,239.26,0.566579
230.4000,-42.4507,238.21,0.553164
230.3000,-43.8153,239.538,0.570135
230.2000,-43.2627,239.015,0.563454
230.1000,-47.3544,239.723,0.572489
230.0000,-46.142,239.425,0.56869
229.9000,-46.4922,239.705,0.572258
229.8000,-46.2781,240.432,0.581517
229.7000,-45.2944,239.818,0.573702
229.6000,-46.3374,240.384,0.580898
229.5000,-46.1458,240.615,0.583835
229.4000,-46.8746,240.575,0.583331
229.3000,-49.9259,241.52,0.595318
229.2000,-48.893,241.869,0.599735
229.1000,-47.9207,241.664,0.59714
229.0000,-51.4374,242.305,0.605249
228.9000,-48.3499,243.019,0.614254
228.8000,-53.0033,242.279,0.60492
228.7000,-49.3448,243.246,0.617108
228.6000,-54.1823,243.052,0.614668
228.5000,-50.5819,242.908,0.612855
228.4000,-54.0608,243.779,0.623821
228.3000,-53.979,244.292,0.630252
228.2000,-53.5162,244.507,0.632952
228.1000,-52.0494,244.806,0.6367
228.0000,-56.1652,245.072,0.640033
227.9000,-55.3544,245.183,0.641422
227.8000,-57.4758,245.565,0.646195
227.7000,-54.7071,246.186,0.653943
227.6000,-58.1467,246.464,0.657402
227.5000,-57.2569,246.485,0.65767
227.4000,-56.7373,247.582,0.671303
227.3000,-57.7476,247.249,0.667168
227.2000,-57.583,247.567,0.671121
227.1000,-57.3843,247.639,0.672006
227.0000,-59.532,247.253,0.667224
226.9000,-58.6096,247.701,0.672779
226.8000,-59.0798,248.006,0.676558
226.7000,-56.8121,249.387,0.693631
226.6000,-61.2796,248.513,0.682842
226.5000,-58.9859,248.715,0.685335
226.4000,-62.1533,248.911,0.687757
226.3000,-61.6496,249.518,0.695252
226.2000,-64.0048,249.538,0.695489
226.1000,-61.3029,250.138,0.702884
226.0000,-62.5607,249.905,0.700012
225.9000,-60.0362,250.305,0.704933
225.8000,-63.2486,251.172,0.715575
225.7000,-63.3734,251.448,0.718963
225.6000,-65.3804,251.26,0.716658
225.5000,-66.0451,251.436,0.71881
225.4000,-65.2081,251.935,0.724926
225.3000,-67.325,252.17,0.727794
225.2000,-63.4711,252.854,0.736147
225.1000,-65.3396,252.556,0.732512
225.0000,-62.9959,252.701,0.734282
224.9000,-65.333,253.161,0.739889
224.8000,-64.9017,253.779,0.747403
224.7000,-64.523,253.543,0.744537
224.6000,-65.4261,253.311,0.74171
224.5000,-66.0165,253.685,0.74626
224.4000,-67.6949,254.442,0.755452
224.3000,-69.3931,254.805,0.759861
224.2000,-65.9435,254.675,0.758282
224.1000,-67.2634,255.009,0.762331
224.0000,-66.2803,255.566,0.769061
223.9000,-64.4279,255.767,0.771497
223.8000,-67.3879,255.623,0.769759
223.7000,-65.4833,256.252,0.77735
223.6000,-68.2331,256.726,0.783056
223.5000,-67.7888,257.426,0.791478
223.4000,-68.1524,257.09,0.787433
223.3000,-68.9353,256.685,0.782565
223.2000,-68.9947,258.054,0.799011
223.1000,-68.047,258.416,0.803355
223.0000,-69.5693,258.261,0.801496
222.9000,-69.1105,258.365,0.802745
222.8000,-67.2493,258.449,0.803749
222.7000,-66.8115,259.872,0.82075
222.6000,-67.5983,259.986,0.8221
222.5000,-66.3876,259.386,0.814952
222.4000,-64.2043,260.048,0.822843
222.3000,-67.1801,260.466,0.82782
222.2000,-70.1047,260.293,0.825757
222.1000,-69.0892,260.872,0.832642
222.0000,-69.3491,260.704,0.830649
221.9000,-68.6419,261.501,0.840106
221.8000,-72.0252,261.276,0.837445
221.7000,-68.0908,261.666,0.842067
221.6000,-70.8786,262.58,0.852889
221.5000,-70.0686,262.82,0.855713
221.4000,-68.8651,263.007,0.85792
221.3000,-69.2553,262.668,0.853919
221.2000,-66.7824,263.962,0.869175
221.1000,-67.2191,262.81,0.855605
221.0000,-68.4986,264.526,0.875808
220.9000,-70.7967,264.569,0.876314
220.8000,-68.8454,264.059,0.870321
220.7000,-69.8428,265.003,0.881406
220.6000,-69.4047,265.72,0.889808
220.5000,-70.9039,265.699,0.889556
220.4000,-70.5914,266.146,0.89479
220.3000,-73.8272,266.67,0.900902
220.2000,-70.4392,266.814,0.90258
220.1000,-68.2825,266.647,0.900637
220.0000,-73.6662,267.02,0.904984
219.9000,-69.5013,267.382,0.909207
219.8000,-67.9974,268.372,0.920704
219.7000,-70.4776,268.45,0.921611
219.6000,-69.6048,268.123,0.917823
219.5000,-69.8275,268.672,0.924187
219.4000,-68.4805,268.717,0.924713
219.3000,-72.3926,269.313,0.931615
219.2000,-69.0422,269.458,0.933293
219.1000,-69.3235,270.161,0.94141
219.0000,-68.5109,270.458,0.944834
218.9000,-63.8636,270.758,0.948295
218.8000,-69.0483,270.293,0.942939
218.7000,-68.8767,270.46,0.94486
218.6000,-68.2706,270.835,0.949182
218.5000,-70.617,271.042,0.95157
218.4000,-69.0347,271.554,0.95746
218.3000,-67.6988,272.25,0.965446
218.2000,-63.833,273.007,0.974116
218.1000,-66.5967,273.274,0.977174
218.0000,-70.3329,273.766,0.982792
217.9000,-69.0156,273.805,0.983231
217.8000,-73.7116,273.749,0.982598
217.7000,-70.3443,273.866,0.98393
217.6000,-68.8617,273.958,0.984977
217.5000,-66.0719,275.339,1.0007
217.4000,-68.9748,275.397,1.00136
217.3000,-66.1834,275.204,0.999169
217.2000,-73.2011,276.853,1.01786
217.1000,-70.5618,276.108,1.00943
217.0000,-68.7514,277.154,1.02127
216.9000,-67.1214,277.631,1.02665
216.8000,-68.3706,277.824,1.02882
216.7000,-68.0809,278.844,1.04032
216.6000,-71.3199,278.441,1.03578
216.5000,-70.1529,278.412,1.03545
216.4000,-69.4001,278.39,1.03521
216.3000,-65.6359,279.38,1.04634
216.2000,-67.5359,279.445,1.04706
216.1000,-70.9611,279.129,1.04351
216.0000,-68.8323,281.034,1.06485
215.9000,-69.1582,279.908,1.05226
215.8000,-70.0132,280.6,1.06
215.7000,-71.0546,281.274,1.06753
215.6000,-71.5765,281.98,1.0754
215.5000,-69.2939,281.911,1.07463
215.4000,-69.934,282.519,1.0814
215.3000,-67.2059,282.657,1.08294
215.2000,-70.5371,283.546,1.0928
215.1000,-67.1517,283.373,1.09089
215.0000,-66.1225,283.772,1.09531
214.9000,-68.2944,284.629,1.10479
214.8000,-64.3454,284.268,1.10081
214.7000,-68.4585,286.097,1.12098
214.6000,-67.5719,286.318,1.12341
214.5000,-72.5715,285.803,1.11774
214.4000,-69.5168,286.209,1.12222
214.3000,-68.2731,286.303,1.12325
214.2000,-70.9694,287.861,1.14035
214.1000,-69.7458,286.963,1.1305
214.0000,-66.6417,287.362,1.13487
213.9000,-72.6845,288.382,1.14604
213.8000,-67.6175,289.507,1.15832
213.7000,-69.0819,288.911,1.15182
213.6000,-70.6735,289.637,1.15974
213.5000,-74.5183,289.264,1.15567
213.4000,-68.7161,290.475,1.16886
213.3000,-69.6257,290.08,1.16456
213.2000,-73.9206,290.381,1.16784
213.1000,-72.3296,291.682,1.18195
213.0000,-67.9624,291.635,1.18143
212.9000,-69.8322,293.004,1.19624
212.8000,-65.9706,292.68,1.19274
212.7000,-74.9151,293.228,1.19865
212.6000,-66.215,293.598,1.20264
212.5000,-69.1275,293.615,1.20282
212.4000,-67.932,295.078,1.21854
212.3000,-70.0123,295.103,1.21881
212.2000,-73.4221,296.439,1.23311
212.1000,-71.3835,296.294,1.23156
212.0000,-73.9289,297.539,1.24485
211.9000,-70.6355,297.938,1.24909
211.8000,-70.2813,299.196,1.26245
211.7000,-70.0107,298.413,1.25414
211.6000,-73.3942,298.847,1.25875
211.5000,-69.2504,299.648,1.26724
211.4000,-67.1348,300.248,1.27359
211.3000,-70.0241,300.449,1.27571
211.2000,-70.4685,301.601,1.28787
211.1000,-73.9769,301.382,1.28556
211.0000,-68.9467,302.665,1.29905
210.9000,-74.8435,302.129,1.29342
210.8000,-72.7539,302.846,1.30096
210.7000,-74.802,303.766,1.3106
210.6000,-70.7025,305.193,1.3255
210.5000,-69.7694,304.997,1.32346
210.4000,-69.1288,305.63,1.33006
210.3000,-71.1838,306.71,1.34129
210.2000,-74.863,307.081,1.34514
210.1000,-71.6336,308.287,1.35764
210.0000,-71.5396,308.791,1.36285
209.9000,-73.2337,309.42,1.36933
209.8000,-73.8464,310.536,1.38082
209.7000,-73.11,311.294,1.38861
209.6000,-76.8227,311.446,1.39016
209.5000,-73.5843,312.02,1.39604
209.4000,-74.1594,313.086,1.40694
209.3000,-74.0692,314.407,1.4204
209.2000,-74.8263,314.818,1.42458
209.1000,-71.3611,315.444,1.43093
209.0000,-66.6297,316.757,1.44423
208.9000,-70.6199,317.246,1.44917
208.8000,-63.8595,318.132,1.45811
208.7000,-72.5643,317.739,1.45415
208.6000,-68.3311,319.335,1.4702
208.5000,-72.5427,321.152,1.4884
208.4000,-72.3168,320.373,1.48061
208.3000,-76.3396,321.591,1.49278
208.2000,-71.612,323.061,1.50744
208.1000,-70.0161,324.558,1.52229
208.0000,-69.0537,323.72,1.51398
207.9000,-74.6047,325.7,1.53359
207.8000,-65.1663,326.819,1.54462
207.7000,-64.139,327.708,1.55337
207.6000,-68.5994,328.496,1.5611
207.5000,-64.4044,329.997,1.57579
207.4000,-64.1105,331.077,1.58633
207.3000,-73.5976,331.247,1.58798
207.2000,-62.6981,333.043,1.60543
207.1000,-71.1253,333.833,1.61309
207.0000,-65.8802,335.008,1.62444
206.9000,-64.6259,335.926,1.63329
206.8000,-61.3431,337.094,1.64451
206.7000,-64.8785,336.323,1.6371
206.6000,-65.7661,338.354,1.65659
206.5000,-62.6379,340.224,1.67443
206.4000,-65.8904,341.223,1.68394
206.3000,-70.7918,342.212,1.69332
206.2000,-60.4792,343.572,1.70619
206.1000,-57.2392,344.924,1.71893
206.0000,-58.5643,345.426,1.72365
205.9000,-59.4597,347.525,1.74335
205.8000,-50.8381,348.779,1.75505
205.7000,-54.8575,350.539,1.77144
205.6000,-47.1242,351.101,1.77666
205.5000,-53.2508,351.47,1.78007
205.4000,-56.7261,352.986,1.79409
205.3000,-53.2032,354.64,1.80934
205.2000,-45.4179,357.654,1.83696
205.1000,-41.9854,358.888,1.84822
205.0000,-41.8841,359.029,1.8495
204.9000,-51.9324,359.38,1.85269
204.8000,-43.527,361.272,1.86986
204.7000,-44.1867,363.815,1.89283
204.6000,-39.5775,364.121,1.89559
204.5000,-41.2786,366.655,1.91831
204.4000,-34.4997,367.606,1.92681
204.3000,-41.6992,369.985,1.94799
204.2000,-35.3954,371.699,1.96317
204.1000,-32.2576,373.091,1.97546
204.0000,-27.4141,374.338,1.98644
203.9000,-28.4359,375.34,1.99523
203.8000,-35.7456,378.889,2.02623
203.7000,-34.1796,380.497,2.0402
203.6000,-31.7845,382.967,2.06156
203.5000,-17.0169,384.955,2.07867
203.4000,-15.1622,385.164,2.08046
203.3000,-22.162,386.101,2.08849
203.2000,-17.8819,388.298,2.10726
203.1000,-18.5315,389.671,2.11895
203.0000,-14.8267,392.114,2.13966
202.9000,-21.0816,394.22,2.15743
202.8000,-23.2544,395.47,2.16793
202.7000,-8.41227,396.397,2.1757
202.6000,-13.0152,399.567,2.20217
202.5000,-11.123,400.951,2.21367
202.4000,-15.6885,402.053,2.2228
202.3000,-7.91376,405.264,2.2493
202.2000,-16.0326,407.648,2.26885
202.1000,-10.4659,409.322,2.28252
202.0000,-6.36503,412.176,2.30573
201.9000,-4.08128,414.211,2.32219
201.8000,0.350483,416.247,2.33859
201.7000,-6.51426,419.033,2.36093
201.6000,-4.43658,420.719,2.37439
201.5000,6.31877,423.306,2.39495
201.4000,11.9992,425.015,2.40847
201.3000,0.651172,426.652,2.42138
201.2000,12.8259,429.975,2.44746
201.1000,-0.431847,430.35,2.4504
201.0000,13.4555,433.892,2.47799
200.9000,-1.74956,436.106,2.49514
200.8000,18.1266,437.159,2.50327
200.7000,16.9013,440.08,2.52574
200.6000,23.289,442.176,2.54179
200.5000,16.2666,445.126,2.56426
200.4000,5.00026,446.895,2.57769
200.3000,15.314,450.066,2.60162
200.2000,20.2997,452.498,2.61989
200.1000,23.8063,454.823,2.63728
200.0000,11.372,458.129,2.66186
199.9000,26.7615,461.916,2.68985
199.8000,27.6621,463.979,2.70501
199.7000,4.31321,466.099,2.72053
199.6000,27.6809,468.675,2.73932
199.5000,24.5331,471.273,2.75818
199.4000,28.2279,472.615,2.76788
199.3000,25.8033,475.001,2.78508
199.2000,29.6681,477.554,2.8034
199.1000,35.472,480.317,2.82314
199.0000,26.5004,482.11,2.83589
198.9000,19.0756,485.552,2.86026
198.8000,27.7411,489.019,2.88467
198.7000,30.6143,491.491,2.90197
198.6000,16.3545,494.042,2.91976
198.5000,39.9245,497.777,2.94566
198.4000,26.8357,501.466,2.97109
198.3000,27.4641,504.163,2.98957
198.2000,27.4582,507.257,3.01068
198.1000,15.8756,509.475,3.02574
198.0000,25.0014,511.981,3.04269
197.9000,29.2402,515.177,3.06421
197.8000,26.5002,518.231,3.08466
197.7000,16.7582,520.699,3.10112
197.6000,29.5605,522.716,3.11452
197.5000,28.1352,526.484,3.13944
197.4000,28.7765,529.221,3.15744
197.3000,28.4813,531.95,3.17531
197.2000,42.3214,535.113,3.19593
197.1000,22.7077,538.496,3.21787
197.0000,29.733,541.395,3.23658
196.9000,28.1048,544.372,3.2557
196.8000,36.4936,548.016,3.27898
196.7000,24.3415,550.576,3.29526
196.6000,39.2687,553.594,3.31437
196.5000,19.543,558.157,3.3431
196.4000,51.028,559.383,3.35078
196.3000,36.8332,565.057,3.38617
196.2000,35.4426,566.75,3.39666
196.1000,29.5107,569.697,3.41487
196.0000,24.1639,574.233,3.44274
195.9000,37.9736,577.015,3.45974
195.8000,37.293,578.655,3.46974
195.7000,24.9798,583.492,3.49907
195.6000,27.658,585.106,3.5088
195.5000,14.8006,588.244,3.52768
195.4000,32.7861,591.359,3.54632
195.3000,17.0776,593.651,3.55999
195.2000,18.868,596.49,3.57686
195.1000,27.8794,598.243,3.58724
195.0000,30.741,600.818,3.60244
194.9000,18.1801,601.965,3.60919
194.8000,25.3684,606.362,3.63499
194.7000,28.9045,608.1,3.64514
194.6000,13.0927,611.117,3.66269
194.5000,14.0269,614.018,3.67951
194.4000,24.63,615.623,3.68879
194.3000,26.4203,619.592,3.71163
194.2000,27.2509,622.877,3.73045
194.1000,23.5795,623.32,3.73298
194.0000,22.6435,626.453,3.75083
193.9000,20.6056,628.55,3.76275
193.8000,26.5522,634.539,3.79657
193.7000,9.70859,635.516,3.80207
193.6000,23.4004,637.536,3.8134
193.5000,18.9993,639.675,3.82537
193.4000,27.4164,641.407,3.83503
193.3000,14.9339,643.766,3.84816
193.2000,3.98421,644.669,3.85317
193.1000,24.4127,646.128,3.86127
193.0000,24.8226,649.171,3.87808
192.9000,10.0989,651.677,3.89189
192.8000,19.0806,653.592,3.90241
192.7000,37.7252,655.851,3.91478
192.6000,20.4669,657.867,3.92579
192.5000,22.2122,661.322,3.94459
192.4000,16.1313,664.042,3.95934
192.3000,23.3741,667.037,3.97552
192.2000,26.104,668.491,3.98335
192.1000,5.87913,670.126,3.99214
192.0000,11.0111,672.397,4.00432
191.9000,16.4174,674.037,4.01309
191.8000,20.0788,677.645,4.03232
191.7000,32.6739,677.211,4.03001
191.6000,28.1909,680.124,4.04549
191.5000,17.1933,682.46,4.05786
191.4000,8.50142,683.432,4.06299
191.3000,17.4665,686.024,4.07665
191.2000,17.743,689.721,4.09607
191.1000,24.0629,691.386,4.10478
191.0000,14.2519,694.702,4.12208
190.9000,17.7392,697.5,4.13663
190.8000,14.6492,700.12,4.1502
190.7000,25.1799,702.474,4.16236
190.6000,4.52471,705.337,4.1771
190.5000,16.2497,706.719,4.1842
190.4000,26.1726,709.255,4.1972
190.3000,-0.162257,711.792,4.21015
190.2000,21.6688,713.744,4.2201
190.1000,18.7878,715.464,4.22884
190.0000,13.396,718.419,4.24382

##### Extended Information
[Comments]
Sample name,PA_EH_JP
Comment
User,HurleyPonticos
Division
Company,Saint Mary's College

[Detailed Information]
Creation date,9/27/2022 4:46 PM

Data array type,Linear data array * 3
Horizontal axis,Wavelength [nm]
Vertical axis(1),CD [mdeg]
Vertical axis(2),HT [V]
Vertical axis(3),Abs
Start,320 nm
End,190 nm
Data interval,0.1 nm
Data points,1301    

[Measurement Information]
Instrument name,J-1500
Model name,J-1500
Serial No.,B051061638

Detector,PM-539
Detector S/N,B051061638
  Lock-in amp.,X mode
  HT volt,Auto

Accessory,PTC-517
Accessory S/N,B026561646
  Temperature,21.97 C
  Control sensor,Holder
  Monitor sensor,Holder

Measurement date,9/27/2022 4:46 PM

CD Overload detect,945
Photometric mode,CD, HT, Abs
Measure range,320 - 190 nm
Data pitch,0.1 nm
CD scale,20 mdeg/0.05 dOD
FL scale,20 mdeg/0.05 dOD
D.I.T.,8 msec
Bandwidth,2.00 nm
Start mode,Immediately
Scanning mode,Continuous
Scanning speed,100 nm/min
Baseline correction,None
Shutter control,Auto
No. of cycle,1/1
N2 Flowmeter,Manual

Solvent,NaPO4 buffer

