TITLE,class
DATA TYPE,
ORIGIN,JASCO
OWNER,
DATE,21/09/30
TIME,16:44:54
SPECTROMETER/DATA SYSTEM,
LOCALE,1033
RESOLUTION,
DELTAX,-0.1
XUNITS,NANOMETERS
YUNITS,CD [mdeg]
Y2UNITS,HT [V]
Y3UNITS,ABSORBANCE
FIRSTX,  290.0000
LASTX,  190.0000
NPOINTS,    1001
FIRSTY,     1.42818
MAXY,    11.70290
MINY,    -3.78650
XYDATA
290.0000,1.42818,254.227,0.752851
289.9000,1.95725,254.047,0.750662
289.8000,1.09747,253.76,0.74717
289.7000,1.37031,254.027,0.750418
289.6000,0.631324,254.08,0.751063
289.5000,1.1367,254.169,0.752148
289.4000,1.10357,254.004,0.750135
289.3000,1.77734,254.061,0.750831
289.2000,1.15455,254.041,0.750588
289.1000,1.90081,253.888,0.748726
289.0000,1.15393,253.986,0.749917
288.9000,1.24958,254.04,0.750578
288.8000,1.63073,253.799,0.747651
288.7000,1.8989,254.03,0.750455
288.6000,0.403513,253.744,0.746985
288.5000,2.19405,253.795,0.747599
288.4000,2.0604,253.933,0.749272
288.3000,1.10798,254.125,0.751606
288.2000,1.24116,253.922,0.749146
288.1000,1.15525,253.86,0.748387
288.0000,1.8015,253.812,0.747812
287.9000,0.59015,253.872,0.748541
287.8000,0.825932,253.785,0.747473
287.7000,1.08461,253.809,0.74777
287.6000,0.968665,253.717,0.746653
287.5000,1.89662,253.787,0.747508
287.4000,1.24118,253.731,0.746821
287.3000,0.602635,253.826,0.747979
287.2000,1.01221,253.769,0.747288
287.1000,1.24596,253.647,0.745801
287.0000,0.595186,254.028,0.75043
286.9000,1.69718,253.713,0.746604
286.8000,2.38684,253.712,0.746594
286.7000,1.46666,253.638,0.745686
286.6000,1.12717,253.754,0.747096
286.5000,2.10839,253.609,0.745342
286.4000,1.45126,253.745,0.746996
286.3000,1.1219,253.534,0.744432
286.2000,1.17561,253.615,0.745417
286.1000,1.80756,253.707,0.746526
286.0000,1.27596,253.783,0.747459
285.9000,1.95235,253.716,0.746643
285.8000,1.86071,253.513,0.744172
285.7000,1.76116,253.752,0.747083
285.6000,1.0943,253.791,0.747555
285.5000,2.23637,253.67,0.746085
285.4000,1.78539,253.609,0.745342
285.3000,0.980541,253.677,0.746164
285.2000,1.77501,253.48,0.74377
285.1000,1.55295,253.528,0.744355
285.0000,1.72969,253.72,0.746689
284.9000,1.42998,253.56,0.74474
284.8000,1.16612,253.497,0.743979
284.7000,1.37025,253.734,0.746856
284.6000,1.20824,253.535,0.744435
284.5000,1.93973,253.637,0.745681
284.4000,0.443692,253.697,0.746407
284.3000,1.37968,253.608,0.745326
284.2000,1.47216,253.461,0.743538
284.1000,1.22805,253.347,0.742153
284.0000,1.97272,253.44,0.743284
283.9000,1.38992,253.561,0.744751
283.8000,1.3323,253.274,0.741256
283.7000,0.840029,253.492,0.743918
283.6000,1.42847,253.35,0.742184
283.5000,0.923767,253.297,0.741543
283.4000,1.09271,253.521,0.744263
283.3000,1.77102,253.336,0.742018
283.2000,1.53141,253.368,0.742401
283.1000,1.10038,253.392,0.742693
283.0000,1.4975,253.236,0.740799
282.9000,0.618819,253.363,0.742349
282.8000,1.54923,253.466,0.743594
282.7000,1.18079,253.358,0.742285
282.6000,1.46187,253.488,0.743865
282.5000,1.40577,253.303,0.741619
282.4000,1.10678,253.269,0.741204
282.3000,1.12434,253.311,0.741712
282.2000,1.29001,253.236,0.740802
282.1000,1.41955,253.2,0.740357
282.0000,1.45358,253.294,0.741501
281.9000,1.35214,253.397,0.742757
281.8000,0.809428,253.286,0.74141
281.7000,1.56414,253.213,0.740519
281.6000,1.76908,253.203,0.740403
281.5000,1.393,253.351,0.742204
281.4000,1.48619,253.25,0.740965
281.3000,1.87952,253.201,0.740372
281.2000,1.62107,253.149,0.739737
281.1000,0.894439,252.964,0.737489
281.0000,1.19835,252.969,0.737553
280.9000,1.16059,253.001,0.737931
280.8000,1.37863,253.284,0.74139
280.7000,1.12145,253.016,0.738119
280.6000,1.12125,253.155,0.739814
280.5000,1.24471,252.944,0.737241
280.4000,1.78571,253.189,0.740232
280.3000,1.35145,253.274,0.741261
280.2000,1.0634,253.132,0.739528
280.1000,0.927688,253.092,0.739047
280.0000,1.57042,252.89,0.736586
279.9000,1.05296,252.916,0.736896
279.8000,1.32886,252.983,0.737712
279.7000,2.37702,253.04,0.738407
279.6000,0.795431,252.869,0.736328
279.5000,1.76192,252.869,0.736323
279.4000,1.66177,252.938,0.737171
279.3000,1.75258,252.842,0.735999
279.2000,1.19922,252.954,0.737358
279.1000,1.22299,252.903,0.736739
279.0000,0.993136,252.845,0.736032
278.9000,1.02477,252.956,0.737394
278.8000,1.33509,253.08,0.738904
278.7000,1.21887,252.969,0.737545
278.6000,0.86417,253.078,0.73888
278.5000,1.51089,253.329,0.741933
278.4000,1.03779,253.065,0.738721
278.3000,1.22963,252.971,0.737573
278.2000,1.58553,252.931,0.737079
278.1000,0.91779,252.969,0.737553
278.0000,1.35772,253.174,0.740047
277.9000,1.53122,252.807,0.735577
277.8000,0.574901,252.795,0.735425
277.7000,0.754159,252.94,0.737198
277.6000,1.31551,253.032,0.738317
277.5000,1.67701,252.928,0.737053
277.4000,0.899104,252.944,0.737242
277.3000,0.829773,253.006,0.738003
277.2000,0.948616,252.869,0.736329
277.1000,0.952095,252.982,0.737711
277.0000,2.16469,252.955,0.737375
276.9000,1.16368,252.796,0.73544
276.8000,1.40107,252.803,0.735526
276.7000,1.29393,252.916,0.736899
276.6000,0.863942,253.093,0.739052
276.5000,1.39846,252.809,0.735592
276.4000,0.782615,252.69,0.73415
276.3000,1.14762,252.892,0.736612
276.2000,1.8947,252.845,0.736038
276.1000,1.3419,252.823,0.735761
276.0000,1.60664,252.663,0.73382
275.9000,0.944917,252.844,0.736021
275.8000,0.662066,252.784,0.735295
275.7000,1.22636,252.72,0.734511
275.6000,1.31479,252.791,0.735381
275.5000,1.14441,252.596,0.733001
275.4000,0.974413,252.718,0.734488
275.3000,1.24687,252.822,0.73575
275.2000,1.20433,252.768,0.7351
275.1000,1.30849,252.614,0.733217
275.0000,1.58892,252.939,0.737184
274.9000,1.18717,252.597,0.733005
274.8000,0.73901,252.885,0.736523
274.7000,0.920143,252.658,0.733752
274.6000,1.26576,252.628,0.733389
274.5000,0.582952,252.816,0.735678
274.4000,1.90372,252.471,0.731475
274.3000,2.03182,252.812,0.735632
274.2000,0.945367,252.821,0.735738
274.1000,1.45554,252.663,0.733817
274.0000,1.23856,252.316,0.729574
273.9000,1.33544,252.536,0.732266
273.8000,0.724264,252.591,0.732935
273.7000,1.28856,252.701,0.734283
273.6000,1.33753,252.43,0.730966
273.5000,1.04633,252.613,0.73321
273.4000,1.01521,252.399,0.730598
273.3000,0.934415,252.605,0.733108
273.2000,1.14698,252.347,0.729953
273.1000,1.06691,252.732,0.734654
273.0000,0.862154,252.951,0.737324
272.9000,0.976289,252.681,0.73404
272.8000,1.71033,252.579,0.732787
272.7000,1.07374,252.468,0.731433
272.6000,1.4916,252.632,0.733432
272.5000,1.42913,252.424,0.730897
272.4000,1.12431,252.419,0.730832
272.3000,0.827058,252.443,0.731133
272.2000,1.42867,252.358,0.730089
272.1000,1.63897,252.664,0.733826
272.0000,0.416092,252.624,0.733344
271.9000,1.18584,252.714,0.734443
271.8000,0.985403,252.334,0.729796
271.7000,0.857548,252.539,0.732305
271.6000,1.51871,252.622,0.733319
271.5000,-0.215748,252.643,0.733569
271.4000,0.556581,252.459,0.73132
271.3000,1.42729,252.332,0.729769
271.2000,0.498324,252.653,0.733692
271.1000,0.990209,252.591,0.732939
271.0000,1.67333,252.39,0.730486
270.9000,0.37868,252.396,0.730561
270.8000,1.10288,252.471,0.731477
270.7000,1.39035,252.471,0.731476
270.6000,0.149484,252.561,0.732572
270.5000,0.376898,252.673,0.733943
270.4000,1.78383,252.416,0.730797
270.3000,1.13348,252.52,0.732073
270.2000,0.90344,252.657,0.733741
270.1000,1.2253,252.569,0.732671
270.0000,1.08095,252.626,0.73336
269.9000,0.586678,252.482,0.731608
269.8000,1.39054,252.448,0.731194
269.7000,1.23527,252.334,0.729805
269.6000,0.709476,252.671,0.733914
269.5000,0.061251,252.666,0.733856
269.4000,1.85112,252.607,0.733138
269.3000,0.991186,252.667,0.73386
269.2000,0.517292,252.611,0.733182
269.1000,0.637031,252.537,0.732284
269.0000,0.83709,252.373,0.730278
268.9000,0.795512,252.632,0.733435
268.8000,0.125061,252.498,0.731804
268.7000,1.34682,252.466,0.731408
268.6000,1.15213,252.514,0.731999
268.5000,0.612202,252.541,0.732332
268.4000,0.796185,252.538,0.732291
268.3000,0.93743,252.716,0.734466
268.2000,0.0689666,252.678,0.734004
268.1000,0.306629,252.593,0.732957
268.0000,1.31395,252.566,0.732634
267.9000,1.05562,252.546,0.732389
267.8000,1.0006,252.682,0.734049
267.7000,1.37879,252.655,0.733718
267.6000,0.765718,252.774,0.735173
267.5000,0.691426,252.758,0.734972
267.4000,1.00276,252.629,0.733404
267.3000,0.355845,252.72,0.734508
267.2000,0.806571,252.777,0.735202
267.1000,1.10843,252.712,0.734411
267.0000,0.337328,252.54,0.732315
266.9000,0.0986963,252.646,0.733603
266.8000,0.481034,252.69,0.734146
266.7000,0.484264,252.573,0.732714
266.6000,0.207024,252.922,0.736971
266.5000,1.59124,252.851,0.736106
266.4000,0.764208,252.847,0.736058
266.3000,0.616512,253.079,0.738883
266.2000,0.918945,253.048,0.738504
266.1000,0.608485,252.682,0.73405
266.0000,-0.146743,252.779,0.735236
265.9000,1.03484,253.029,0.738273
265.8000,0.674429,252.819,0.735713
265.7000,0.857847,252.865,0.736278
265.6000,1.19523,252.732,0.734663
265.5000,1.19184,252.688,0.734119
265.4000,0.150396,252.925,0.737013
265.3000,0.864021,252.931,0.737081
265.2000,0.913959,252.964,0.73749
265.1000,1.01177,252.848,0.736076
265.0000,0.866776,253.003,0.73796
264.9000,1.21586,253.002,0.737953
264.8000,0.383329,253.064,0.738709
264.7000,0.623065,253.178,0.740094
264.6000,0.0939528,253.084,0.738947
264.5000,1.18183,253.24,0.740851
264.4000,1.10277,253.205,0.740417
264.3000,0.385571,253.309,0.741692
264.2000,-0.0444952,253.225,0.740662
264.1000,0.655991,253.06,0.738654
264.0000,1.66994,253,0.737921
263.9000,0.987959,253.094,0.739066
263.8000,1.02817,253.139,0.739623
263.7000,0.152321,253.058,0.73863
263.6000,1.1864,252.965,0.737498
263.5000,1.28419,253.137,0.739596
263.4000,1.31695,253.159,0.739865
263.3000,1.078,253.094,0.739068
263.2000,1.35068,253.169,0.739979
263.1000,1.31349,253.428,0.743143
263.0000,1.53569,253.309,0.741685
262.9000,0.706281,253.27,0.741215
262.8000,0.900183,253.227,0.74069
262.7000,0.642045,253.33,0.741944
262.6000,0.794543,253.481,0.743784
262.5000,1.2612,253.529,0.744361
262.4000,0.473406,253.282,0.741356
262.3000,-0.30054,253.248,0.740941
262.2000,1.38695,253.233,0.740759
262.1000,1.09085,253.762,0.747202
262.0000,0.596481,253.576,0.744942
261.9000,0.22503,253.355,0.742251
261.8000,0.842564,253.383,0.74259
261.7000,0.686998,253.555,0.74468
261.6000,1.56951,253.766,0.74725
261.5000,0.566836,253.757,0.747133
261.4000,0.303281,253.512,0.744153
261.3000,1.54197,253.654,0.745888
261.2000,-0.41196,253.685,0.746265
261.1000,1.34848,253.784,0.747473
261.0000,0.59278,253.82,0.747904
260.9000,0.905118,253.643,0.745747
260.8000,0.409591,253.696,0.746399
260.7000,0.949408,253.878,0.748606
260.6000,0.47463,253.717,0.746653
260.5000,0.140615,253.759,0.747167
260.4000,0.278935,253.943,0.749394
260.3000,1.2385,253.778,0.747395
260.2000,0.365815,253.854,0.74832
260.1000,0.12337,253.91,0.748995
260.0000,0.444699,253.975,0.749784
259.9000,0.778857,253.973,0.749766
259.8000,0.974391,254.09,0.751184
259.7000,-0.317948,253.955,0.749546
259.6000,0.748112,254.045,0.750638
259.5000,0.16316,254.248,0.753105
259.4000,0.756374,254.006,0.750159
259.3000,1.03413,253.951,0.749498
259.2000,1.00361,254.114,0.751472
259.1000,1.52088,254.034,0.750499
259.0000,1.41827,254.231,0.752894
258.9000,0.782863,254.218,0.752737
258.8000,0.532202,254.113,0.75146
258.7000,0.737577,254.327,0.754064
258.6000,1.23619,254.326,0.754046
258.5000,0.935749,254.281,0.753501
258.4000,0.579223,254.379,0.754696
258.3000,0.66538,254.286,0.75356
258.2000,0.196346,254.25,0.753125
258.1000,1.15767,254.413,0.7551
258.0000,-0.173931,254.303,0.753773
257.9000,0.0619015,254.688,0.758445
257.8000,0.667996,254.271,0.753386
257.7000,1.05556,254.617,0.757581
257.6000,0.835588,254.668,0.758199
257.5000,0.82667,254.403,0.754981
257.4000,0.498572,254.663,0.758138
257.3000,0.972216,254.595,0.757318
257.2000,0.773664,254.667,0.758182
257.1000,0.390505,254.701,0.758593
257.0000,1.21696,254.807,0.759883
256.9000,0.0832972,254.507,0.756243
256.8000,1.01605,254.687,0.758429
256.7000,0.732337,254.869,0.760632
256.6000,2.09193,254.859,0.760517
256.5000,1.25567,254.747,0.759156
256.4000,0.549278,254.803,0.759831
256.3000,1.38405,254.903,0.761042
256.2000,1.06294,254.954,0.761661
256.1000,0.881906,255.002,0.762238
256.0000,0.428718,254.832,0.760182
255.9000,0.874023,254.921,0.761262
255.8000,0.76213,255.072,0.763088
255.7000,0.13446,255.018,0.762433
255.6000,0.990865,254.94,0.761498
255.5000,0.914876,255.187,0.764484
255.4000,0.932136,255.215,0.764824
255.3000,-0.0519336,255.085,0.763242
255.2000,0.1033,255.226,0.764955
255.1000,0.116458,255.066,0.763019
255.0000,0.681332,255.089,0.763292
254.9000,0.729609,255.669,0.770316
254.8000,0.934703,255.207,0.76472
254.7000,0.313775,255.194,0.764562
254.6000,0.554756,255.328,0.766183
254.5000,0.263294,255.423,0.767333
254.4000,0.317117,255.194,0.764564
254.3000,0.550968,255.429,0.767411
254.2000,1.23306,255.13,0.763793
254.1000,1.02677,255.543,0.768793
254.0000,0.650757,255.541,0.768758
253.9000,1.07248,255.449,0.767657
253.8000,1.07324,255.454,0.767716
253.7000,0.699872,255.512,0.768416
253.6000,0.148618,255.357,0.766536
253.5000,0.488862,255.566,0.769064
253.4000,0.725965,255.462,0.767806
253.3000,0.939004,255.502,0.768286
253.2000,1.85816,255.563,0.769034
253.1000,2.11557,255.614,0.769643
253.0000,1.28144,255.482,0.768055
252.9000,0.656072,255.694,0.770617
252.8000,1.52663,255.791,0.771777
252.7000,0.380511,255.856,0.772566
252.6000,0.905701,255.602,0.769498
252.5000,0.388373,255.697,0.770649
252.4000,0.453675,255.844,0.772426
252.3000,0.62294,255.66,0.770198
252.2000,1.11288,255.743,0.7712
252.1000,0.86779,255.985,0.774121
252.0000,0.504801,256.055,0.774976
251.9000,1.37299,255.792,0.771795
251.8000,-0.000124277,256.007,0.774389
251.7000,0.94103,255.862,0.772644
251.6000,0.982581,256.007,0.774392
251.5000,0.883277,255.877,0.772819
251.4000,0.0840972,256.004,0.774351
251.3000,0.754438,255.998,0.774281
251.2000,1.15647,256.06,0.775036
251.1000,0.814743,255.959,0.773812
251.0000,1.46481,256.271,0.777573
250.9000,0.518266,255.977,0.774029
250.8000,0.334832,256.042,0.774816
250.7000,1.43522,256.105,0.775569
250.6000,1.02871,256.089,0.775382
250.5000,0.749729,255.957,0.773782
250.4000,1.13442,256.161,0.77625
250.3000,1.01143,256.046,0.774858
250.2000,0.549026,256.285,0.777748
250.1000,1.0489,256.179,0.776471
250.0000,0.949623,256.346,0.778485
249.9000,0.93998,256.164,0.776283
249.8000,0.85785,255.867,0.772705
249.7000,1.65182,255.981,0.774077
249.6000,1.2276,256.053,0.774942
249.5000,1.75534,255.963,0.773857
249.4000,0.930937,256.004,0.774356
249.3000,0.905223,256.051,0.774916
249.2000,0.486623,255.928,0.773442
249.1000,1.37236,255.96,0.773824
249.0000,0.163728,256.255,0.777381
248.9000,0.530595,256.483,0.780125
248.8000,0.78754,256.139,0.77598
248.7000,1.30792,256.028,0.774639
248.6000,0.644648,255.958,0.773795
248.5000,1.81239,256.045,0.774845
248.4000,1.35844,256.165,0.776299
248.3000,1.05864,255.873,0.772779
248.2000,1.0016,256.221,0.776967
248.1000,1.05488,256.069,0.775141
248.0000,0.802871,255.815,0.772068
247.9000,0.495468,255.809,0.772002
247.8000,0.332673,256.003,0.774342
247.7000,1.19134,256.161,0.776252
247.6000,-0.127429,255.944,0.773632
247.5000,0.42875,256.019,0.774539
247.4000,1.07744,256.002,0.774327
247.3000,1.24826,256.311,0.778054
247.2000,0.182237,256.474,0.780019
247.1000,1.16754,256.423,0.77941
247.0000,0.598856,256.508,0.780431
246.9000,1.18076,256.336,0.778359
246.8000,0.160713,256.251,0.777331
246.7000,0.991046,256.418,0.779348
246.6000,0.973608,256.444,0.779665
246.5000,1.12347,256.474,0.780021
246.4000,0.676499,256.597,0.781502
246.3000,1.05569,256.467,0.779935
246.2000,0.830869,256.428,0.779465
246.1000,0.665318,256.484,0.780145
246.0000,0.925254,256.559,0.781041
245.9000,0.86575,256.544,0.780872
245.8000,0.719505,256.57,0.781181
245.7000,0.459066,256.392,0.779029
245.6000,0.468689,256.501,0.780344
245.5000,1.46375,256.563,0.781093
245.4000,0.728397,256.629,0.781886
245.3000,0.99543,256.607,0.781624
245.2000,0.263527,256.798,0.78393
245.1000,0.572957,256.524,0.780629
245.0000,0.122156,256.418,0.779347
244.9000,1.06888,256.73,0.783101
244.8000,1.17342,256.591,0.781428
244.7000,1.50196,256.824,0.784239
244.6000,0.561531,256.521,0.780585
244.5000,0.980721,256.73,0.783104
244.4000,1.1333,256.568,0.781156
244.3000,1.74133,256.795,0.783891
244.2000,0.0610021,256.601,0.781557
244.1000,0.763615,256.954,0.785807
244.0000,0.751543,256.924,0.785445
243.9000,1.3796,256.933,0.78555
243.8000,0.606122,256.848,0.784529
243.7000,0.573709,256.698,0.782719
243.6000,1.04726,256.93,0.785518
243.5000,0.741596,257.111,0.787694
243.4000,1.27766,256.794,0.783878
243.3000,0.718759,256.856,0.784625
243.2000,0.913083,256.781,0.783724
243.1000,0.384507,256.98,0.786115
243.0000,0.643364,256.848,0.784528
242.9000,0.00369526,257.02,0.786599
242.8000,1.15349,257.061,0.787085
242.7000,1.07529,256.88,0.784914
242.6000,1.41551,256.94,0.785639
242.5000,0.505792,257.014,0.786524
242.4000,0.483417,257.021,0.786613
242.3000,0.978638,257.038,0.78681
242.2000,0.639867,257.142,0.788061
242.1000,0.43872,257.115,0.787734
242.0000,0.314282,257.298,0.789941
241.9000,-0.111917,257.313,0.790122
241.8000,0.668807,257.358,0.790658
241.7000,0.845095,257.407,0.791249
241.6000,0.876027,257.384,0.790974
241.5000,-0.155673,257.414,0.791327
241.4000,0.0825609,257.422,0.791425
241.3000,-0.0926054,257.399,0.791148
241.2000,0.185926,257.664,0.794337
241.1000,1.54687,257.359,0.790668
241.0000,0.669433,257.587,0.793405
240.9000,0.918026,257.827,0.796289
240.8000,0.129242,257.618,0.793781
240.7000,0.0509662,257.698,0.794743
240.6000,1.21959,257.798,0.795942
240.5000,0.672497,257.898,0.797143
240.4000,0.350505,257.644,0.794094
240.3000,-0.223621,257.744,0.795297
240.2000,-0.137392,257.809,0.796075
240.1000,0.490937,258.055,0.799022
240.0000,0.736891,258.053,0.799003
239.9000,0.223381,257.847,0.796525
239.8000,0.710376,258.058,0.799066
239.7000,0.120632,258.178,0.800493
239.6000,0.296475,258.233,0.801163
239.5000,0.762647,258.177,0.800488
239.4000,-0.254229,258.379,0.802913
239.3000,0.486893,258.333,0.802354
239.2000,0.646424,258.131,0.799931
239.1000,0.535918,258.232,0.801142
239.0000,0.740779,258.537,0.804804
238.9000,0.118354,258.552,0.804975
238.8000,-0.119907,258.832,0.808327
238.7000,-0.599273,258.727,0.807072
238.6000,-0.323794,258.599,0.805536
238.5000,-0.234872,258.752,0.807367
238.4000,-0.0292655,258.752,0.807369
238.3000,-0.00834075,259.048,0.810915
238.2000,-0.730926,259.123,0.81181
238.1000,0.406723,259,0.810334
238.0000,0.624368,259.053,0.810965
237.9000,0.112102,259.298,0.813892
237.8000,-0.474928,259.488,0.816164
237.7000,-0.211253,259.106,0.811602
237.6000,-0.0365793,259.199,0.812713
237.5000,0.00271428,259.621,0.817752
237.4000,0.043811,259.343,0.814436
237.3000,0.85518,259.534,0.81671
237.2000,-0.365622,259.651,0.818107
237.1000,0.685944,259.714,0.818859
237.0000,0.0220459,259.718,0.818909
236.9000,-0.472373,259.898,0.82106
236.8000,-0.21367,259.783,0.819683
236.7000,0.73062,259.773,0.819563
236.6000,-0.250823,259.792,0.81979
236.5000,-0.11115,259.758,0.81938
236.4000,-0.223683,259.89,0.820957
236.3000,0.388645,260.152,0.824085
236.2000,0.514883,260.188,0.82451
236.1000,0.0281935,260.125,0.823763
236.0000,0.0145541,260.325,0.826139
235.9000,-0.329901,260.421,0.827288
235.8000,-0.633669,260.436,0.827456
235.7000,-0.278871,260.443,0.827541
235.6000,-0.881119,260.623,0.829686
235.5000,-0.401418,260.585,0.829237
235.4000,-0.61513,260.454,0.827674
235.3000,-0.0181633,260.779,0.831543
235.2000,-0.36623,260.764,0.831364
235.1000,0.171686,260.872,0.83264
235.0000,0.423679,261.145,0.835889
234.9000,0.41754,261.1,0.835355
234.8000,-0.163464,260.942,0.833471
234.7000,-0.423259,261.175,0.836247
234.6000,0.336765,261.175,0.836248
234.5000,-0.412123,261.326,0.838037
234.4000,-0.2343,261.238,0.836997
234.3000,-0.770622,261.249,0.837124
234.2000,-0.342064,261.265,0.837316
234.1000,-0.627918,261.299,0.837714
234.0000,-1.02302,261.795,0.843594
233.9000,-0.878501,261.8,0.843652
233.8000,-0.615141,261.843,0.844166
233.7000,-0.637691,261.974,0.845718
233.6000,-0.33467,262.465,0.851523
233.5000,-0.216562,261.928,0.84517
233.4000,0.211862,262.059,0.846718
233.3000,-0.817256,262.335,0.849987
233.2000,0.161627,262.59,0.853
233.1000,-0.817633,262.692,0.854211
233.0000,-0.463239,262.437,0.851196
232.9000,-0.47741,262.523,0.852209
232.8000,-1.02257,262.648,0.853688
232.7000,0.789699,262.764,0.855058
232.6000,-1.21814,262.657,0.853795
232.5000,0.146563,262.808,0.855575
232.4000,-1.29108,262.984,0.857659
232.3000,-1.10941,263.009,0.857954
232.2000,-1.68695,263.096,0.858979
232.1000,-0.837111,263.013,0.857992
232.0000,-0.726205,263.432,0.862932
231.9000,-0.897691,263.586,0.864751
231.8000,-0.723815,263.314,0.861542
231.7000,-0.556608,263.67,0.865747
231.6000,-1.80287,263.613,0.865067
231.5000,-0.817728,263.717,0.866296
231.4000,-0.780511,263.766,0.866877
231.3000,-0.975967,263.817,0.867474
231.2000,-0.915505,263.924,0.868731
231.1000,-0.982339,263.814,0.867434
231.0000,-0.933867,263.978,0.869371
230.9000,-1.01104,263.773,0.866951
230.8000,-2.00691,263.994,0.869557
230.7000,-1.05634,264.044,0.870138
230.6000,-1.25022,264.05,0.870208
230.5000,-1.28203,264.108,0.870892
230.4000,-1.2673,264.268,0.872781
230.3000,-1.67308,264.038,0.870069
230.2000,-0.94456,264.102,0.870829
230.1000,-1.35374,264.081,0.87058
230.0000,-0.848502,264.151,0.871401
229.9000,-0.773582,264.067,0.870414
229.8000,-1.81273,263.907,0.868535
229.7000,-1.3173,263.845,0.867806
229.6000,-2.12848,263.867,0.86806
229.5000,-1.35801,263.896,0.868401
229.4000,-0.891953,264.228,0.872303
229.3000,-1.27324,264.13,0.871149
229.2000,-2.42934,264.31,0.873273
229.1000,-1.2663,264.545,0.876037
229.0000,-2.00055,264.842,0.879516
228.9000,-1.77293,265.368,0.88569
228.8000,-1.59205,265.181,0.883498
228.7000,-2.14297,265.027,0.881685
228.6000,-1.68697,265.119,0.882763
228.5000,-1.09208,265.531,0.887593
228.4000,-1.38546,265.783,0.890544
228.3000,-1.43894,265.879,0.891671
228.2000,-0.79953,265.988,0.892937
228.1000,-1.98663,266.151,0.894842
228.0000,-2.02606,266.267,0.896203
227.9000,-1.01443,265.83,0.891095
227.8000,-1.81385,266.4,0.897751
227.7000,-1.86859,266.431,0.898114
227.6000,-2.03501,266.598,0.900063
227.5000,-2.18399,266.259,0.896104
227.4000,-1.70151,266.579,0.899846
227.3000,-0.637876,266.63,0.900438
227.2000,-1.55439,266.835,0.902834
227.1000,-2.19078,267.022,0.905009
227.0000,-1.63346,267.03,0.905097
226.9000,-1.74365,267.126,0.906227
226.8000,-1.36588,267.066,0.905527
226.7000,-1.64321,267.072,0.905587
226.6000,-2.97161,267.579,0.911499
226.5000,-1.41203,267.37,0.909058
226.4000,-3.00536,267.437,0.909845
226.3000,-2.89753,267.593,0.911653
226.2000,-2.00253,267.665,0.912494
226.1000,-2.36509,267.832,0.914439
226.0000,-2.12628,267.675,0.912615
225.9000,-2.20295,267.7,0.912903
225.8000,-2.16389,267.83,0.91441
225.7000,-2.29546,268.143,0.918049
225.6000,-1.6857,268.056,0.91704
225.5000,-2.23518,268.339,0.92033
225.4000,-2.31,268.246,0.919252
225.3000,-2.85894,268.353,0.920493
225.2000,-2.47191,268.473,0.92188
225.1000,-1.57401,268.847,0.926218
225.0000,-2.06208,268.724,0.92479
224.9000,-3.08466,268.885,0.92666
224.8000,-1.41227,269.147,0.929697
224.7000,-1.6994,268.898,0.926811
224.6000,-2.00641,268.947,0.927379
224.5000,-1.67983,269.023,0.928259
224.4000,-2.31416,269.042,0.928475
224.3000,-2.18481,269.186,0.930149
224.2000,-2.7844,269.411,0.932745
224.1000,-2.95662,269.392,0.932526
224.0000,-2.56057,269.346,0.931995
223.9000,-2.46919,269.493,0.933695
223.8000,-3.20558,269.766,0.936852
223.7000,-1.8523,269.703,0.936129
223.6000,-2.19802,269.845,0.937769
223.5000,-1.92044,270.033,0.939931
223.4000,-1.95281,269.945,0.938917
223.3000,-2.54208,269.997,0.939523
223.2000,-2.33851,269.92,0.938631
223.1000,-2.52989,270.396,0.944125
223.0000,-2.23038,270.536,0.945741
222.9000,-2.89182,270.141,0.941181
222.8000,-2.59939,270.545,0.945839
222.7000,-2.13582,270.557,0.945987
222.6000,-2.15675,270.684,0.947448
222.5000,-2.92159,270.573,0.946171
222.4000,-2.56611,270.515,0.945501
222.3000,-3.32214,270.768,0.948414
222.2000,-2.54849,270.964,0.950667
222.1000,-2.95254,270.915,0.950109
222.0000,-3.01261,271.22,0.953619
221.9000,-2.999,271.109,0.952337
221.8000,-2.65751,271.36,0.955226
221.7000,-2.04312,271.557,0.957495
221.6000,-1.65036,271.583,0.957788
221.5000,-3.33639,271.314,0.954699
221.4000,-3.01715,271.516,0.95702
221.3000,-2.84029,271.246,0.953917
221.2000,-2.91168,271.543,0.957325
221.1000,-2.63406,271.64,0.958445
221.0000,-2.35148,271.755,0.95977
220.9000,-2.7223,271.638,0.958426
220.8000,-1.39076,272.005,0.962639
220.7000,-2.76342,272.41,0.967277
220.6000,-2.32733,271.887,0.961276
220.5000,-2.8146,272.4,0.96717
220.4000,-1.90379,272.798,0.971729
220.3000,-2.89302,272.53,0.968651
220.2000,-2.03409,272.438,0.967597
220.1000,-3.02157,271.897,0.961393
220.0000,-2.71817,272.45,0.967742
219.9000,-1.96634,272.548,0.968867
219.8000,-1.29773,272.654,0.970077
219.7000,-2.62844,272.713,0.970755
219.6000,-1.86063,272.526,0.968611
219.5000,-1.37798,272.929,0.973229
219.4000,-3.37755,273.253,0.976934
219.3000,-2.95713,272.786,0.971589
219.2000,-2.6857,272.647,0.969998
219.1000,-2.06608,272.878,0.972639
219.0000,-2.83297,273.005,0.974095
218.9000,-3.57421,273.073,0.97487
218.8000,-1.83561,273.247,0.976861
218.7000,-1.42443,273.324,0.97774
218.6000,-2.27871,272.991,0.97393
218.5000,-2.80078,273.568,0.980532
218.4000,-2.54172,273.641,0.98136
218.3000,-1.96259,273.306,0.97754
218.2000,-2.67931,273.561,0.980455
218.1000,-1.13298,273.76,0.98272
218.0000,-2.90166,273.698,0.982016
217.9000,-2.55287,273.699,0.982029
217.8000,-2.6079,273.931,0.984672
217.7000,-2.17882,273.991,0.985359
217.6000,-2.42846,273.954,0.984941
217.5000,-1.89946,274.289,0.988758
217.4000,-1.30295,274.143,0.98709
217.3000,-1.79239,274.418,0.990224
217.2000,-2.83724,274.502,0.991186
217.1000,-2.75817,274.473,0.990854
217.0000,-1.64462,274.545,0.99167
216.9000,-1.38446,274.77,0.994229
216.8000,-2.20258,274.955,0.996335
216.7000,-2.60907,275.232,0.999493
216.6000,-1.86123,274.845,0.99509
216.5000,-2.4511,274.891,0.99561
216.4000,-2.30681,274.988,0.99671
216.3000,-2.4414,275.256,0.999756
216.2000,-2.44203,275.069,0.997635
216.1000,-2.80879,275.173,0.998819
216.0000,-2.20548,275.704,1.00485
215.9000,-2.08661,275.472,1.00221
215.8000,-2.27909,275.406,1.00147
215.7000,-2.54847,275.562,1.00324
215.6000,-3.16732,275.414,1.00156
215.5000,-2.38405,275.554,1.00314
215.4000,-1.96304,275.73,1.00514
215.3000,-1.35784,276.194,1.01041
215.2000,-2.20259,275.956,1.0077
215.1000,-1.93546,275.799,1.00592
215.0000,-1.85779,275.944,1.00757
214.9000,-2.62575,276.217,1.01067
214.8000,-1.6143,276.196,1.01043
214.7000,-2.19159,276.204,1.01051
214.6000,-1.75062,276.252,1.01107
214.5000,-2.2703,276.455,1.01336
214.4000,-1.91593,276.466,1.01349
214.3000,-2.44248,276.603,1.01503
214.2000,-1.42291,276.625,1.01528
214.1000,-2.34082,276.648,1.01554
214.0000,-3.45352,276.839,1.0177
213.9000,-1.87979,276.579,1.01476
213.8000,-2.01618,276.77,1.01692
213.7000,-2.33105,276.839,1.0177
213.6000,-1.87966,276.974,1.01923
213.5000,-1.09191,276.93,1.01874
213.4000,-1.72283,276.955,1.01902
213.3000,-1.97213,277.311,1.02304
213.2000,-1.87995,277.401,1.02406
213.1000,-1.93117,277.201,1.0218
213.0000,-1.82604,277.245,1.02229
212.9000,-3.31853,277.312,1.02305
212.8000,-1.79974,277.465,1.02478
212.7000,-2.36085,277.52,1.02539
212.6000,-2.70215,277.498,1.02515
212.5000,-2.19292,277.715,1.0276
212.4000,-2.64563,277.738,1.02786
212.3000,-2.22975,277.94,1.03014
212.2000,-2.02739,278.26,1.03374
212.1000,-2.24965,278.109,1.03204
212.0000,-1.74227,278.092,1.03185
211.9000,-2.63398,278.618,1.03777
211.8000,-1.5233,278.55,1.03701
211.7000,-0.886333,278.856,1.04045
211.6000,-2.04768,278.664,1.03828
211.5000,-2.21977,278.87,1.04061
211.4000,-2.51693,278.877,1.04068
211.3000,-2.81053,279.042,1.04254
211.2000,-1.21826,278.955,1.04156
211.1000,-2.73029,279.064,1.04279
211.0000,-1.85375,279.264,1.04503
210.9000,-1.17909,279.412,1.04669
210.8000,-2.38772,279.538,1.04811
210.7000,-1.85443,279.546,1.0482
210.6000,-2.17978,279.421,1.04679
210.5000,-1.69206,279.595,1.04875
210.4000,-2.38406,279.78,1.05082
210.3000,-2.52703,279.882,1.05197
210.2000,-2.81678,279.863,1.05176
210.1000,-2.97409,280.284,1.05647
210.0000,-1.73902,280.184,1.05535
209.9000,-2.11753,280.276,1.05638
209.8000,-2.63655,280.434,1.05814
209.7000,-2.44009,280.494,1.05882
209.6000,-1.93292,280.563,1.05958
209.5000,-2.13533,280.884,1.06317
209.4000,-2.14136,281.058,1.06512
209.3000,-1.3759,280.969,1.06412
209.2000,-3.68425,281.176,1.06644
209.1000,-2.46625,281.552,1.07064
209.0000,-2.61099,281.238,1.06713
208.9000,-2.16843,281.443,1.06942
208.8000,-1.9528,281.598,1.07115
208.7000,-2.45307,281.52,1.07028
208.6000,-3.37897,281.701,1.0723
208.5000,-3.52279,281.818,1.07359
208.4000,-1.87895,281.948,1.07505
208.3000,-2.05473,281.993,1.07555
208.2000,-2.5971,282.188,1.07772
208.1000,-2.57571,282.557,1.08183
208.0000,-3.16461,282.534,1.08157
207.9000,-2.30647,282.893,1.08556
207.8000,-2.1545,282.971,1.08643
207.7000,-1.21513,282.996,1.0867
207.6000,-2.48979,283.215,1.08913
207.5000,-2.15137,283.389,1.09107
207.4000,-1.69422,283.584,1.09323
207.3000,-1.02537,283.517,1.09249
207.2000,-2.74023,283.656,1.09402
207.1000,-2.84243,283.761,1.09519
207.0000,-1.47572,283.842,1.09608
206.9000,-0.96322,284.386,1.10211
206.8000,-1.55764,284.29,1.10104
206.7000,-1.50124,284.321,1.10139
206.6000,-2.08946,284.371,1.10195
206.5000,-1.7935,284.575,1.10419
206.4000,-3.7865,284.82,1.1069
206.3000,-0.973912,285.012,1.10902
206.2000,-1.71455,285.379,1.11307
206.1000,-1.91479,285.654,1.11611
206.0000,-2.42655,285.485,1.11424
205.9000,-1.61404,285.732,1.11697
205.8000,-1.25832,285.707,1.11669
205.7000,-0.248967,286.14,1.12146
205.6000,-2.12968,286.434,1.12469
205.5000,-2.02776,286.444,1.12479
205.4000,-0.670667,286.413,1.12446
205.3000,-1.05013,286.729,1.12793
205.2000,-0.448507,287.11,1.13211
205.1000,-0.58105,287.127,1.1323
205.0000,-1.33203,287.25,1.13365
204.9000,-2.06428,287.395,1.13524
204.8000,-0.947664,287.614,1.13764
204.7000,-0.443626,287.733,1.13894
204.6000,-0.129387,287.984,1.14169
204.5000,-1.41977,288.194,1.14399
204.4000,0.995396,288.509,1.14743
204.3000,-0.223402,288.686,1.14936
204.2000,0.204603,288.943,1.15217
204.1000,-0.98167,289.034,1.15316
204.0000,-0.249087,289.271,1.15575
203.9000,0.150563,289.519,1.15845
203.8000,-0.385909,289.915,1.16276
203.7000,0.208927,290.207,1.16594
203.6000,-0.367383,290.491,1.16903
203.5000,1.23235,290.47,1.1688
203.4000,1.38327,290.599,1.1702
203.3000,2.09611,290.882,1.17328
203.2000,0.269209,291.036,1.17494
203.1000,0.859726,291.391,1.1788
203.0000,1.20768,291.47,1.17965
202.9000,0.631169,291.618,1.18125
202.8000,1.19819,291.879,1.18408
202.7000,1.00611,292.078,1.18623
202.6000,0.10298,292.165,1.18717
202.5000,2.14246,292.495,1.19074
202.4000,2.0332,292.798,1.19402
202.3000,0.731612,292.886,1.19496
202.2000,1.62688,293.01,1.1963
202.1000,1.21605,293.419,1.20071
202.0000,2.53393,293.738,1.20414
201.9000,1.86891,294.159,1.20868
201.8000,1.3486,294.31,1.2103
201.7000,2.52113,294.879,1.21641
201.6000,2.57363,295.231,1.22019
201.5000,2.80394,295.216,1.22002
201.4000,2.42183,295.573,1.22385
201.3000,3.14337,295.77,1.22596
201.2000,3.62042,296.096,1.22944
201.1000,3.86557,296.43,1.23301
201.0000,3.05631,296.561,1.23442
200.9000,2.77105,296.87,1.23771
200.8000,2.17558,296.871,1.23772
200.7000,2.65666,297.291,1.2422
200.6000,2.2105,297.619,1.2457
200.5000,3.87473,297.899,1.24867
200.4000,5.46113,298.006,1.24981
200.3000,3.558,298.488,1.25494
200.2000,5.39319,298.735,1.25756
200.1000,3.76984,299.056,1.26096
200.0000,3.32059,299.34,1.26398
199.9000,3.70319,299.603,1.26677
199.8000,4.96888,300.124,1.27228
199.7000,5.28596,300.122,1.27226
199.6000,5.26787,300.385,1.27504
199.5000,5.61104,300.701,1.27838
199.4000,5.31259,300.941,1.2809
199.3000,4.49462,300.876,1.28023
199.2000,5.69848,301.178,1.28341
199.1000,5.13274,301.704,1.28895
199.0000,5.26924,301.678,1.28868
198.9000,7.13401,301.957,1.29161
198.8000,5.91497,302.377,1.29603
198.7000,7.51601,302.638,1.29877
198.6000,6.73555,302.931,1.30184
198.5000,6.23255,302.902,1.30154
198.4000,4.83011,303.241,1.30509
198.3000,6.56199,303.579,1.30864
198.2000,6.79147,303.852,1.3115
198.1000,5.32185,304.035,1.31341
198.0000,6.19935,304.198,1.31512
197.9000,6.77385,304.29,1.31608
197.8000,6.5091,304.811,1.32152
197.7000,7.16236,304.807,1.32148
197.6000,7.64744,305.109,1.32463
197.5000,7.14334,305.386,1.32752
197.4000,6.53444,305.732,1.33112
197.3000,7.63361,305.831,1.33216
197.2000,6.19026,306.293,1.33696
197.1000,9.3901,306.489,1.339
197.0000,8.03139,307.043,1.34475
196.9000,7.63977,307.065,1.34497
196.8000,7.00729,307.58,1.35031
196.7000,7.7446,307.613,1.35065
196.6000,7.26998,307.998,1.35465
196.5000,8.74951,308.385,1.35864
196.4000,8.03708,308.707,1.36197
196.3000,8.47543,309.277,1.36785
196.2000,9.13698,309.681,1.37202
196.1000,8.64983,310.066,1.37598
196.0000,9.04189,310.15,1.37685
195.9000,6.9832,310.48,1.38024
195.8000,8.74887,310.973,1.3853
195.7000,10.1307,311.16,1.38722
195.6000,8.11723,311.674,1.3925
195.5000,9.40696,312.087,1.39672
195.4000,8.42961,312.354,1.39946
195.3000,9.62382,312.769,1.4037
195.2000,7.60523,313.077,1.40684
195.1000,8.72257,313.463,1.41078
195.0000,8.6514,313.66,1.4128
194.9000,8.44562,313.994,1.4162
194.8000,8.62526,314.368,1.42
194.7000,9.81147,314.55,1.42185
194.6000,10.1244,315.099,1.42743
194.5000,9.08123,315.418,1.43067
194.4000,8.61288,315.807,1.43461
194.3000,9.10665,316.402,1.44063
194.2000,9.24736,316.883,1.44551
194.1000,8.31807,317.561,1.45234
194.0000,10.7166,318.058,1.45736
193.9000,10.4707,318.997,1.4668
193.8000,10.3311,319.457,1.47143
193.7000,9.34033,320.231,1.47918
193.6000,8.8799,320.944,1.48632
193.5000,8.80295,321.365,1.49053
193.4000,9.91577,322.045,1.49731
193.3000,9.42267,322.545,1.5023
193.2000,9.11044,322.867,1.50551
193.1000,9.35021,323.771,1.51448
193.0000,8.88058,324.468,1.5214
192.9000,9.60469,325.184,1.52849
192.8000,9.40446,325.699,1.53358
192.7000,10.009,326.69,1.54335
192.6000,9.74452,327.743,1.55371
192.5000,9.89837,328.297,1.55916
192.4000,11.2163,329.396,1.56992
192.3000,8.47038,329.936,1.5752
192.2000,9.53653,330.89,1.58451
192.1000,10.2065,331.403,1.5895
192.0000,10.115,331.884,1.59418
191.9000,8.40123,333.054,1.60554
191.8000,9.50553,333.757,1.61235
191.7000,9.92603,334.609,1.62058
191.6000,9.28806,335.458,1.62878
191.5000,8.68939,336.824,1.64192
191.4000,11.7029,337.804,1.65131
191.3000,8.4916,339.03,1.66305
191.2000,7.72914,340.367,1.67579
191.1000,9.72138,342.094,1.6922
191.0000,8.83304,343.717,1.70755
190.9000,7.85144,345.27,1.72219
190.8000,9.27488,347.19,1.74021
190.7000,9.73887,348.63,1.75367
190.6000,9.58269,349.92,1.76569
190.5000,9.45842,351.337,1.77884
190.4000,11.3177,352.663,1.79111
190.3000,8.58529,353.753,1.80117
190.2000,9.79772,354.867,1.81143
190.1000,10.5246,355.748,1.81952
190.0000,8.44627,357.305,1.83378

##### Extended Information
[Comments]
Sample name,class
Comment
User
Division
Company,Saint Mary's College

[Detailed Information]
Creation date,9/30/2021 3:44 PM

Data array type,Linear data array * 3
Horizontal axis,Wavelength [nm]
Vertical axis(1),CD [mdeg]
Vertical axis(2),HT [V]
Vertical axis(3),Abs
Start,290 nm
End,190 nm
Data interval,0.1 nm
Data points,1001    

[Measurement Information]
Instrument name,J-1500
Model name,J-1500
Serial No.,B051061638

Detector,PM-539
Detector S/N,B051061638
  Lock-in amp.,X mode
  HT volt,Auto

Accessory,PTC-517
Accessory S/N,B026561646
  Temperature,22.43 C
  Control sensor,Holder
  Monitor sensor,Holder

Measurement date,9/30/2021 3:43 PM

CD Overload detect,737
Photometric mode,CD, HT, Abs
Measure range,290 - 190 nm
Data pitch,0.1 nm
CD scale,20 mdeg/0.05 dOD
FL scale,20 mdeg/0.05 dOD
D.I.T.,0.125 sec
Bandwidth,1.00 nm
Start mode,Immediately
Scanning mode,Continuous
Scanning speed,50 nm/min
Baseline correction,None
Shutter control,Auto
No. of cycle,1/1
N2 Flowmeter,Manual


