TITLE,class
DATA TYPE,
ORIGIN,JASCO
OWNER,
DATE,21/09/30
TIME,17:04:38
SPECTROMETER/DATA SYSTEM,
LOCALE,1033
RESOLUTION,
DELTAX,-0.1
XUNITS,NANOMETERS
YUNITS,CD [mdeg]
Y2UNITS,HT [V]
Y3UNITS,ABSORBANCE
FIRSTX,  290.0000
LASTX,  190.0000
NPOINTS,    1001
FIRSTY,     1.75534
MAXY,    11.68046
MINY,    -3.96321
XYDATA
290.0000,1.75534,253.949,0.749473
289.9000,0.914051,253.956,0.749557
289.8000,0.672746,253.724,0.746739
289.7000,1.19701,254.055,0.750761
289.6000,1.65475,253.78,0.747414
289.5000,1.40155,254.15,0.751918
289.4000,1.51749,253.87,0.748513
289.3000,1.0891,254.107,0.751392
289.2000,1.53621,253.906,0.748955
289.1000,0.241796,253.832,0.748044
289.0000,1.28902,253.801,0.747669
288.9000,1.31035,254.109,0.75142
288.8000,2.30509,253.824,0.747948
288.7000,0.651144,253.704,0.746495
288.6000,1.26446,253.766,0.747242
288.5000,0.975695,253.966,0.74968
288.4000,1.0936,253.825,0.747961
288.3000,1.3004,253.8,0.747666
288.2000,1.3829,253.756,0.747125
288.1000,1.27553,253.698,0.746423
288.0000,1.31075,253.735,0.746865
287.9000,1.31108,253.832,0.748046
287.8000,0.931376,253.974,0.749773
287.7000,1.49481,254.014,0.750263
287.6000,2.33755,253.828,0.747999
287.5000,1.01561,253.83,0.74802
287.4000,1.33027,253.71,0.746568
287.3000,0.939796,253.424,0.743089
287.2000,1.45578,253.767,0.747264
287.1000,0.671426,253.75,0.747051
287.0000,1.36381,253.758,0.747153
286.9000,1.39774,253.808,0.747764
286.8000,1.52933,253.795,0.747605
286.7000,0.640258,253.703,0.74648
286.6000,1.31067,253.459,0.743512
286.5000,0.803055,253.593,0.745142
286.4000,0.348652,253.689,0.746308
286.3000,1.6087,253.957,0.749571
286.2000,1.45494,253.755,0.747112
286.1000,1.32274,253.471,0.743665
286.0000,1.77202,254.046,0.750645
285.9000,1.15132,253.88,0.748632
285.8000,1.27345,253.745,0.746996
285.7000,1.65254,253.333,0.741981
285.6000,1.55959,253.582,0.745008
285.5000,1.79956,253.77,0.747301
285.4000,2.08728,253.553,0.744663
285.3000,2.06402,253.261,0.741104
285.2000,1.1052,253.575,0.744931
285.1000,1.5479,253.837,0.748117
285.0000,0.905722,253.51,0.744135
284.9000,1.7068,253.555,0.744681
284.8000,1.60135,253.522,0.74428
284.7000,1.12758,253.649,0.74583
284.6000,1.87406,253.386,0.742627
284.5000,0.674231,253.617,0.745442
284.4000,0.813317,253.924,0.749173
284.3000,0.982444,253.44,0.743285
284.2000,1.18464,253.376,0.742501
284.1000,1.27674,253.564,0.744797
284.0000,1.28457,253.513,0.744168
283.9000,1.52661,253.364,0.742357
283.8000,1.98525,253.074,0.738825
283.7000,1.15453,253.345,0.74213
283.6000,1.23811,253.282,0.741361
283.5000,0.925682,253.353,0.742227
283.4000,0.532518,253.283,0.741372
283.3000,1.57844,253.728,0.746786
283.2000,1.02967,253.103,0.739179
283.1000,1.07672,253.681,0.746213
283.0000,1.42171,253.347,0.742154
282.9000,1.99428,253.589,0.745098
282.8000,0.987415,253.354,0.742237
282.7000,1.36639,253.281,0.741349
282.6000,1.38225,253.297,0.741539
282.5000,2.14114,253.069,0.738771
282.4000,1.35103,253.392,0.742695
282.3000,1.19087,253.496,0.743961
282.2000,0.891229,253.337,0.742025
282.1000,1.10624,253.132,0.739529
282.0000,1.83315,253.168,0.739973
281.9000,1.14963,253.208,0.740462
281.8000,0.871019,252.945,0.737248
281.7000,1.01749,253.196,0.740308
281.6000,1.38636,253.359,0.742303
281.5000,1.62512,253.366,0.742387
281.4000,1.54262,253.296,0.74153
281.3000,0.592287,253.042,0.73844
281.2000,0.783399,253.2,0.740359
281.1000,0.923165,252.962,0.737461
281.0000,0.929485,253.054,0.738582
280.9000,1.23371,253.23,0.740728
280.8000,0.900722,253.165,0.739932
280.7000,0.709278,253.484,0.743818
280.6000,0.956634,252.773,0.735162
280.5000,1.12555,252.886,0.736531
280.4000,1.26109,252.965,0.737496
280.3000,0.988853,252.802,0.735505
280.2000,0.598929,253.218,0.740581
280.1000,0.505913,252.944,0.737239
280.0000,1.33398,253.186,0.74019
279.9000,1.41231,252.854,0.736142
279.8000,0.63218,252.647,0.733617
279.7000,0.838578,252.725,0.734574
279.6000,0.754219,253.145,0.739687
279.5000,1.32341,252.726,0.734579
279.4000,1.34995,252.889,0.736566
279.3000,1.4506,253.176,0.740072
279.2000,0.842541,252.882,0.736487
279.1000,0.609958,252.926,0.73702
279.0000,1.27616,253.161,0.739889
278.9000,1.4824,252.93,0.737071
278.8000,0.876486,253.035,0.738348
278.7000,0.756628,253.023,0.738204
278.6000,0.470361,252.917,0.736912
278.5000,1.60916,252.68,0.734023
278.4000,0.991277,252.821,0.73574
278.3000,0.931604,252.813,0.735646
278.2000,1.4116,252.798,0.735458
278.1000,0.397116,252.534,0.732246
278.0000,1.10719,253.291,0.741467
277.9000,0.570211,252.93,0.737066
277.8000,0.732056,252.93,0.737069
277.7000,0.489735,252.851,0.736107
277.6000,0.494657,252.749,0.734867
277.5000,0.848644,252.783,0.735275
277.4000,0.77839,252.767,0.735089
277.3000,0.444775,252.974,0.737605
277.2000,1.26655,253.237,0.740811
277.1000,0.223522,252.933,0.737114
277.0000,0.601166,252.839,0.735959
276.9000,0.808465,252.717,0.734474
276.8000,0.883391,252.781,0.73526
276.7000,1.2455,252.627,0.73338
276.6000,1.22639,252.535,0.732258
276.5000,1.14381,252.658,0.733754
276.4000,0.696354,252.711,0.734398
276.3000,1.21608,252.676,0.733976
276.2000,1.07929,252.837,0.735937
276.1000,0.835619,252.676,0.733969
276.0000,0.042551,252.661,0.733787
275.9000,0.680589,252.661,0.733793
275.8000,0.453707,252.486,0.731654
275.7000,1.08569,252.448,0.731189
275.6000,1.23472,252.357,0.730078
275.5000,0.969665,252.774,0.735171
275.4000,1.00354,252.691,0.734161
275.3000,0.699263,252.583,0.732837
275.2000,0.83886,252.533,0.732224
275.1000,0.0319074,252.582,0.732824
275.0000,0.471033,252.656,0.73373
274.9000,1.19794,252.716,0.734457
274.8000,0.369998,252.67,0.733898
274.7000,1.07709,252.72,0.734514
274.6000,0.543264,252.813,0.735647
274.5000,1.22705,252.736,0.734704
274.4000,1.11542,252.552,0.732459
274.3000,0.914496,252.623,0.733329
274.2000,1.05809,252.482,0.731607
274.1000,1.17193,252.739,0.734743
274.0000,0.191555,252.321,0.729638
273.9000,0.614414,252.479,0.731569
273.8000,0.946145,252.541,0.732332
273.7000,0.747981,252.484,0.731631
273.6000,1.35747,252.483,0.731618
273.5000,0.96253,252.444,0.731148
273.4000,1.50851,252.268,0.728993
273.3000,0.315217,252.616,0.73324
273.2000,0.894263,252.376,0.730308
273.1000,0.179962,252.582,0.732822
273.0000,1.7217,252.523,0.732106
272.9000,0.91299,252.606,0.733121
272.8000,0.809023,252.342,0.729895
272.7000,0.797941,252.404,0.730657
272.6000,0.802136,252.586,0.732876
272.5000,0.294299,252.371,0.730256
272.4000,0.822936,252.359,0.730107
272.3000,0.637213,252.617,0.733257
272.2000,0.465188,252.541,0.732331
272.1000,0.794196,252.429,0.730962
272.0000,1.33362,252.524,0.732123
271.9000,0.911292,252.787,0.735328
271.8000,0.572532,252.361,0.730133
271.7000,0.812465,252.491,0.731721
271.6000,1.46624,252.408,0.730705
271.5000,0.43991,252.2,0.728168
271.4000,1.15961,252.455,0.731277
271.3000,0.648155,252.581,0.73282
271.2000,0.626467,252.468,0.731432
271.1000,0.293112,252.497,0.731792
271.0000,0.125501,252.389,0.730468
270.9000,0.510718,252.408,0.730702
270.8000,0.729572,252.39,0.730487
270.7000,0.552289,252.544,0.732361
270.6000,0.500806,252.424,0.7309
270.5000,0.0810188,252.624,0.733339
270.4000,-0.218645,252.448,0.731193
270.3000,1.05177,252.294,0.729314
270.2000,1.04398,252.48,0.731582
270.1000,0.881058,252.412,0.730749
270.0000,0.545062,252.456,0.731283
269.9000,0.915435,252.464,0.731391
269.8000,0.0991169,252.6,0.733048
269.7000,0.711562,252.721,0.73452
269.6000,0.762811,252.679,0.734013
269.5000,1.34578,252.528,0.732168
269.4000,0.775701,252.734,0.734678
269.3000,1.00599,252.285,0.729201
269.2000,0.590064,252.443,0.731129
269.1000,0.391006,252.593,0.732958
269.0000,1.56558,252.498,0.731804
268.9000,1.06583,252.523,0.732102
268.8000,1.02942,252.529,0.732178
268.7000,1.21715,252.89,0.736585
268.6000,0.810537,252.293,0.729302
268.5000,0.692751,252.602,0.733069
268.4000,1.08995,252.469,0.731453
268.3000,1.44928,252.376,0.730317
268.2000,0.189579,252.394,0.730529
268.1000,0.700353,252.648,0.733627
268.0000,-0.115532,252.72,0.734515
267.9000,1.01191,252.814,0.735659
267.8000,0.498713,252.415,0.730791
267.7000,0.680803,252.409,0.730711
267.6000,1.48252,252.661,0.733794
267.5000,0.376263,252.476,0.73153
267.4000,0.77565,252.698,0.734247
267.3000,-0.222515,252.346,0.729952
267.2000,0.811101,252.334,0.729804
267.1000,0.28599,252.943,0.737235
267.0000,0.490133,252.866,0.736286
266.9000,0.523344,252.613,0.733202
266.8000,0.680031,252.943,0.73723
266.7000,0.348628,252.783,0.735273
266.6000,-0.309518,252.753,0.734919
266.5000,1.29573,252.711,0.734402
266.4000,1.03725,252.72,0.734513
266.3000,1.06527,252.729,0.73462
266.2000,0.740086,252.649,0.733646
266.1000,0.926519,252.789,0.735351
266.0000,0.113456,252.902,0.73673
265.9000,0.508721,252.88,0.736467
265.8000,0.04823,252.914,0.736871
265.7000,0.948294,252.994,0.737855
265.6000,0.951339,252.871,0.736354
265.5000,0.764266,252.792,0.735392
265.4000,-0.0825192,253.293,0.741489
265.3000,0.263479,253.18,0.740113
265.2000,0.266724,252.82,0.735731
265.1000,0.578352,253.018,0.738139
265.0000,0.880316,252.767,0.735081
264.9000,0.593447,253.001,0.737938
264.8000,0.297282,253.074,0.738821
264.7000,0.352034,252.943,0.737231
264.6000,0.354156,253.052,0.738562
264.5000,0.849687,253.073,0.738818
264.4000,0.41678,253.103,0.739183
264.3000,0.73128,253.153,0.739785
264.2000,0.527997,253.033,0.738333
264.1000,0.829253,252.985,0.737745
264.0000,0.164333,252.928,0.73705
263.9000,0.738247,253.723,0.746731
263.8000,0.583043,253.169,0.739989
263.7000,1.21178,253.168,0.739972
263.6000,0.877619,252.889,0.73657
263.5000,0.956731,253.355,0.742246
263.4000,0.511715,253.267,0.741173
263.3000,1.13138,253.13,0.739503
263.2000,1.18475,253.054,0.738579
263.1000,0.757305,253.179,0.740103
263.0000,0.038622,253.104,0.739195
262.9000,1.02394,253.267,0.741175
262.8000,0.708172,253.328,0.741926
262.7000,0.747902,253.627,0.745554
262.6000,1.22128,253.516,0.744208
262.5000,1.06646,253.319,0.741812
262.4000,1.0586,253.469,0.743637
262.3000,0.500018,253.206,0.74043
262.2000,0.564416,253.346,0.742141
262.1000,0.128607,253.547,0.744588
262.0000,0.413454,253.71,0.746565
261.9000,0.724479,253.919,0.749103
261.8000,0.300495,253.652,0.745858
261.7000,1.2965,253.512,0.744156
261.6000,-0.0914705,253.446,0.743358
261.5000,0.516873,253.636,0.745669
261.4000,0.696829,253.414,0.742968
261.3000,0.645295,253.695,0.746389
261.2000,0.946735,253.664,0.746007
261.1000,0.3843,253.23,0.740729
261.0000,-0.0391873,253.378,0.742524
260.9000,-0.0247391,253.861,0.748403
260.8000,0.803366,253.845,0.748206
260.7000,0.377709,253.687,0.746282
260.6000,1.1028,253.794,0.747589
260.5000,1.60781,253.978,0.749828
260.4000,0.610297,253.699,0.746439
260.3000,0.346328,254.353,0.754372
260.2000,0.759438,253.61,0.745355
260.1000,0.466124,253.905,0.748935
260.0000,1.58801,253.693,0.746359
259.9000,0.307476,254.046,0.750651
259.8000,-0.0764747,253.955,0.749541
259.7000,0.31855,253.954,0.749536
259.6000,1.41696,254.056,0.750772
259.5000,0.488561,254.053,0.750731
259.4000,0.61242,253.999,0.75008
259.3000,0.588671,254.331,0.754111
259.2000,1.00702,253.905,0.748935
259.1000,1.04006,253.855,0.748325
259.0000,1.13252,254.311,0.753871
258.9000,0.852233,253.889,0.748743
258.8000,0.0681372,253.893,0.748795
258.7000,0.70299,254.254,0.75317
258.6000,0.197161,254.249,0.753117
258.5000,1.07699,254.095,0.751249
258.4000,0.473071,254.551,0.756784
258.3000,0.604862,254.258,0.753229
258.2000,0.224035,254.248,0.753105
258.1000,0.422566,254.359,0.754455
258.0000,-0.0926415,254.534,0.756577
257.9000,0.819605,254.707,0.758664
257.8000,0.64089,254.488,0.756009
257.7000,1.05457,254.688,0.758443
257.6000,0.245483,254.467,0.755754
257.5000,1.36482,254.41,0.755065
257.4000,0.275128,254.532,0.756547
257.3000,0.652399,254.564,0.756932
257.2000,0.578532,254.848,0.76038
257.1000,0.273285,254.559,0.756878
257.0000,0.928198,254.615,0.75756
256.9000,0.557004,254.668,0.758193
256.8000,0.204609,254.708,0.758677
256.7000,0.251643,254.778,0.759529
256.6000,0.0944673,255.127,0.763756
256.5000,0.669468,254.631,0.75775
256.4000,0.117289,254.686,0.758409
256.3000,0.706253,254.958,0.761706
256.2000,0.0611554,254.728,0.758928
256.1000,0.514642,254.862,0.760545
256.0000,0.433526,255.092,0.763338
255.9000,0.907869,254.599,0.757363
255.8000,0.527697,254.891,0.760901
255.7000,0.758678,254.945,0.761555
255.6000,0.870811,255.26,0.765362
255.5000,0.416212,254.95,0.761615
255.4000,0.341017,255.479,0.768018
255.3000,-0.188994,255.579,0.769221
255.2000,1.07044,255.087,0.763274
255.1000,0.894721,255.233,0.765038
255.0000,1.02696,255.2,0.764637
254.9000,0.277784,255.735,0.771106
254.8000,0.623252,255.064,0.762997
254.7000,0.261615,255.249,0.765237
254.6000,0.183799,255.312,0.765991
254.5000,1.32746,255.309,0.765954
254.4000,0.910428,255.345,0.766388
254.3000,1.18583,255.493,0.768179
254.2000,1.0736,255.44,0.767539
254.1000,-0.00505711,255.479,0.768009
254.0000,1.07821,255.404,0.767102
253.9000,0.218208,255.76,0.771411
253.8000,0.0877619,255.669,0.770305
253.7000,0.958466,255.569,0.769104
253.6000,0.181802,255.513,0.768423
253.5000,0.376694,255.56,0.768992
253.4000,0.761917,255.672,0.77035
253.3000,0.984531,255.414,0.767231
253.2000,0.872159,255.582,0.769253
253.1000,0.628372,255.551,0.768889
253.0000,0.63902,255.67,0.770326
252.9000,1.12746,255.615,0.769651
252.8000,0.83624,255.636,0.769908
252.7000,0.917795,255.396,0.767008
252.6000,1.13929,255.68,0.770446
252.5000,0.346311,255.839,0.772361
252.4000,0.814888,255.621,0.769724
252.3000,0.559893,255.833,0.772294
252.2000,0.907039,255.844,0.772423
252.1000,0.122658,255.867,0.772696
252.0000,0.64438,255.753,0.771329
251.9000,0.569854,255.672,0.770342
251.8000,0.0937495,255.639,0.769952
251.7000,0.113255,255.735,0.771104
251.6000,0.761609,256.038,0.774761
251.5000,0.553853,255.8,0.771887
251.4000,0.752793,255.773,0.771562
251.3000,1.24634,255.881,0.772871
251.2000,-0.487916,255.825,0.772193
251.1000,0.555587,255.695,0.770626
251.0000,0.428276,255.679,0.770428
250.9000,0.386834,255.907,0.773184
250.8000,0.891639,256.108,0.775615
250.7000,-0.322467,256.098,0.77549
250.6000,0.178286,256.128,0.775856
250.5000,0.794669,255.976,0.774019
250.4000,0.498184,255.988,0.774162
250.3000,0.853698,256.257,0.777408
250.2000,-0.155127,256.087,0.775358
250.1000,0.75025,256.002,0.774334
250.0000,0.683252,255.828,0.77223
249.9000,0.513505,256.345,0.778467
249.8000,0.99541,255.734,0.771098
249.7000,1.60788,255.805,0.771954
249.6000,0.253295,256.086,0.775343
249.5000,0.89749,256.235,0.77714
249.4000,0.0687724,256.304,0.777973
249.3000,0.00767993,256.202,0.77674
249.2000,0.856245,256.018,0.774518
249.1000,0.946191,256.199,0.776702
249.0000,0.762046,256.075,0.775215
248.9000,1.36201,255.854,0.772546
248.8000,0.311329,256.086,0.775344
248.7000,0.68365,256.124,0.775797
248.6000,1.2968,256.088,0.775373
248.5000,1.65868,256.305,0.777985
248.4000,1.08634,256.107,0.775602
248.3000,0.306187,256.068,0.775125
248.2000,0.585756,256.141,0.776012
248.1000,0.559869,255.899,0.773089
248.0000,0.887353,255.939,0.773574
247.9000,0.455152,256.024,0.774599
247.8000,0.373524,256.061,0.775042
247.7000,0.694091,255.862,0.772645
247.6000,0.6151,256.214,0.776883
247.5000,0.0945249,256.06,0.775025
247.4000,0.471664,256.256,0.777395
247.3000,0.819541,256.306,0.778002
247.2000,0.593743,256.316,0.778119
247.1000,0.397439,256.195,0.776663
247.0000,0.410292,256.421,0.77938
246.9000,0.39531,256.558,0.781033
246.8000,0.647262,256.349,0.77852
246.7000,0.826332,256.44,0.779612
246.6000,1.05583,256.369,0.778761
246.5000,0.180898,256.427,0.779462
246.4000,0.1389,256.435,0.779549
246.3000,0.706616,256.691,0.782639
246.2000,0.526596,256.744,0.783274
246.1000,0.663752,256.654,0.782196
246.0000,-0.140213,256.558,0.781031
245.9000,0.28126,256.613,0.781697
245.8000,-0.0992766,256.611,0.781667
245.7000,0.602256,256.54,0.780814
245.6000,0.274983,256.342,0.778435
245.5000,0.917522,256.476,0.780043
245.4000,0.34019,256.555,0.781001
245.3000,0.806147,256.388,0.778986
245.2000,0.663747,256.466,0.779931
245.1000,0.665765,256.654,0.782185
245.0000,0.48802,256.63,0.781906
244.9000,0.674995,256.568,0.781161
244.8000,0.174598,256.406,0.779209
244.7000,1.18136,256.724,0.783032
244.6000,0.833228,256.727,0.783071
244.5000,0.0320595,256.577,0.781268
244.4000,-0.0409863,256.867,0.78476
244.3000,0.305515,257.137,0.788004
244.2000,0.44054,256.722,0.783015
244.1000,0.336586,256.714,0.782909
244.0000,0.237862,256.8,0.783946
243.9000,0.638771,256.406,0.779202
243.8000,0.321904,256.885,0.784976
243.7000,0.478677,256.781,0.783719
243.6000,0.158042,256.867,0.784757
243.5000,0.736423,256.901,0.785165
243.4000,0.276659,256.91,0.785268
243.3000,0.0397832,256.758,0.783439
243.2000,-0.306655,256.596,0.781491
243.1000,0.319684,256.819,0.78418
243.0000,0.771842,256.975,0.786059
242.9000,-0.19153,256.704,0.782798
242.8000,1.66141,257.036,0.786789
242.7000,0.788153,257.102,0.787586
242.6000,0.84264,256.962,0.785892
242.5000,1.01851,256.992,0.786254
242.4000,0.54185,257.33,0.790322
242.3000,0.38547,257.027,0.786683
242.2000,-0.0347516,257.233,0.789158
242.1000,0.312853,256.958,0.785853
242.0000,0.42933,257.318,0.790174
241.9000,0.873255,257.135,0.787973
241.8000,0.211173,257.319,0.790194
241.7000,0.255898,257.381,0.79094
241.6000,0.124915,257.349,0.790552
241.5000,-0.0878764,257.478,0.792107
241.4000,-0.165794,257.488,0.792226
241.3000,0.494733,257.482,0.792153
241.2000,-0.791837,257.554,0.793011
241.1000,0.204755,257.82,0.796202
241.0000,0.64527,257.577,0.79329
240.9000,-0.00194094,257.637,0.794007
240.8000,0.361445,257.668,0.794384
240.7000,0.522051,257.658,0.794263
240.6000,-0.273279,257.709,0.794877
240.5000,0.202361,257.685,0.79459
240.4000,0.926847,257.724,0.79506
240.3000,0.400581,257.781,0.795739
240.2000,0.243048,257.943,0.79768
240.1000,-0.0519578,257.858,0.79666
240.0000,0.364604,257.755,0.795427
239.9000,-0.0952499,257.913,0.797327
239.8000,0.634143,258.08,0.799322
239.7000,-0.120658,258.06,0.799089
239.6000,0.889617,258.354,0.80261
239.5000,0.439325,258.076,0.799279
239.4000,0.579112,258.166,0.800353
239.3000,0.502129,258.15,0.800165
239.2000,0.399976,258.298,0.801932
239.1000,0.0695343,258.505,0.804415
239.0000,0.327124,258.654,0.8062
238.9000,0.409007,258.393,0.80308
238.8000,0.3757,258.856,0.808615
238.7000,-0.982692,258.761,0.807484
238.6000,0.293462,258.545,0.804899
238.5000,1.05339,258.708,0.806848
238.4000,-0.0435656,258.761,0.807477
238.3000,0.389942,258.823,0.808223
238.2000,0.0679293,258.918,0.809363
238.1000,-0.467447,259.168,0.812347
238.0000,0.24285,259.161,0.812266
237.9000,0.102022,259.154,0.812178
237.8000,0.97763,259.385,0.814932
237.7000,-0.0113264,259.352,0.814543
237.6000,-0.258362,259.25,0.813326
237.5000,-0.404345,259.353,0.81455
237.4000,-0.406111,259.654,0.818145
237.3000,-0.0577189,259.606,0.817573
237.2000,0.370562,259.698,0.818668
237.1000,0.0126945,259.684,0.818508
237.0000,-0.126293,259.762,0.819432
236.9000,-0.202838,260.049,0.822851
236.8000,-0.239314,259.645,0.818044
236.7000,-0.0660014,259.773,0.819559
236.6000,-0.32014,260.121,0.823709
236.5000,-0.406986,259.882,0.820858
236.4000,-0.274301,260.246,0.825206
236.3000,-0.966909,259.923,0.821348
236.2000,-0.0821504,260.232,0.82503
236.1000,0.290192,260.402,0.827055
236.0000,-0.230595,260.001,0.822277
235.9000,0.185601,260.227,0.824972
235.8000,0.00971605,260.428,0.827368
235.7000,-1.16307,260.438,0.827489
235.6000,-0.231932,260.304,0.825894
235.5000,-0.384725,260.412,0.827179
235.4000,-0.104637,260.686,0.830438
235.3000,-0.673638,260.775,0.831492
235.2000,-1.14046,260.788,0.831648
235.1000,0.0856218,260.67,0.830249
235.0000,-0.978834,260.802,0.831815
234.9000,0.0480801,260.927,0.833302
234.8000,-0.839603,261,0.834163
234.7000,-0.287642,260.962,0.833716
234.6000,-0.572479,261.06,0.834879
234.5000,-0.57979,261.299,0.837719
234.4000,-0.303136,261.247,0.837099
234.3000,-0.464589,261.48,0.839862
234.2000,-0.28819,261.307,0.837804
234.1000,-0.283022,261.516,0.840288
234.0000,0.279385,261.745,0.843006
233.9000,-0.164113,261.78,0.843423
233.8000,-0.7507,261.784,0.843469
233.7000,-0.227262,262.153,0.847839
233.6000,-0.580182,261.745,0.843008
233.5000,-0.216354,261.99,0.845902
233.4000,-0.291589,262.414,0.850923
233.3000,-0.52462,262.43,0.851107
233.2000,-0.326753,262.29,0.849453
233.1000,0.0709527,262.351,0.850175
233.0000,-2.02839,262.756,0.854963
232.9000,-0.529861,262.415,0.850931
232.8000,-1.16372,262.552,0.85255
232.7000,-1.37697,262.566,0.852722
232.6000,-0.818309,262.646,0.853664
232.5000,-1.18436,262.768,0.855105
232.4000,-2.57443,262.786,0.855319
232.3000,-1.01427,262.793,0.855397
232.2000,-1.48139,263.021,0.858096
232.1000,-0.0949867,263.129,0.85936
232.0000,-0.93652,262.899,0.856657
231.9000,-0.8691,263.293,0.861301
231.8000,-1.25457,263.473,0.863419
231.7000,-2.11823,263.535,0.864154
231.6000,-1.21722,263.708,0.866194
231.5000,-1.05888,263.661,0.865638
231.4000,-1.1145,263.665,0.86568
231.3000,-0.778147,263.603,0.864958
231.2000,-1.69165,263.634,0.865319
231.1000,-1.5148,263.832,0.867644
231.0000,-1.72585,264.132,0.871175
230.9000,-1.85599,264.104,0.870846
230.8000,-1.53213,263.886,0.868284
230.7000,-0.557555,264.081,0.870578
230.6000,-0.929578,264.167,0.871588
230.5000,-1.73819,264.064,0.870384
230.4000,-2.39451,264.175,0.871679
230.3000,-1.08934,264.049,0.870203
230.2000,-1.34345,264.012,0.869767
230.1000,-1.28338,263.811,0.867397
230.0000,-1.47869,264.02,0.869864
229.9000,-1.54566,263.886,0.868289
229.8000,-1.01857,264.049,0.870208
229.7000,-1.2196,263.795,0.867208
229.6000,-1.7786,264.012,0.869768
229.5000,-1.14476,264.031,0.869985
229.4000,-1.90196,263.971,0.869289
229.3000,-1.87141,264.15,0.871388
229.2000,-2.23081,264.289,0.873022
229.1000,-2.48859,264.702,0.877878
229.0000,-0.806004,264.551,0.876103
228.9000,-1.37437,265.087,0.882393
228.8000,-1.09215,265.205,0.883771
228.7000,-1.5414,265.39,0.885942
228.6000,-1.58374,265.596,0.888352
228.5000,-1.54214,265.465,0.886825
228.4000,-1.04898,265.599,0.888385
228.3000,-1.45933,265.652,0.889013
228.2000,-2.32891,265.874,0.891612
228.1000,-2.20264,266.043,0.893588
228.0000,-2.31089,266.029,0.893422
227.9000,-1.96139,266.19,0.895307
227.8000,-2.04618,266.374,0.897453
227.7000,-2.67943,266.368,0.897376
227.6000,-2.17539,266.405,0.897813
227.5000,-2.37613,266.481,0.898696
227.4000,-2.0743,266.835,0.902829
227.3000,-2.90743,266.872,0.903266
227.2000,-2.17055,267.079,0.905669
227.1000,-2.01878,267.016,0.904941
227.0000,-2.61501,266.915,0.903758
226.9000,-2.23851,267.026,0.905059
226.8000,-2.1833,267.269,0.907882
226.7000,-2.20216,267.182,0.906869
226.6000,-2.2718,267.289,0.908119
226.5000,-3.13462,267.302,0.908272
226.4000,-2.12006,267.535,0.910978
226.3000,-2.23243,267.514,0.910736
226.2000,-2.4591,267.506,0.910641
226.1000,-2.55919,267.552,0.911186
226.0000,-1.6702,267.729,0.913238
225.9000,-1.64517,267.471,0.910233
225.8000,-2.34963,267.818,0.914279
225.7000,-2.18964,267.969,0.916033
225.6000,-2.4969,267.852,0.914674
225.5000,-2.68511,268.02,0.916617
225.4000,-2.3539,267.911,0.915355
225.3000,-2.7395,268.449,0.9216
225.2000,-1.53201,268.34,0.920342
225.1000,-2.2717,268.322,0.920125
225.0000,-2.31446,268.787,0.92552
224.9000,-2.44279,268.538,0.922633
224.8000,-1.82713,268.989,0.927862
224.7000,-2.1486,269.111,0.929277
224.6000,-2.62831,269.072,0.92882
224.5000,-3.13917,269.17,0.929958
224.4000,-1.77293,269.137,0.929577
224.3000,-1.44054,269.368,0.932255
224.2000,-2.24497,269.218,0.930519
224.1000,-1.44369,269.473,0.933461
224.0000,-2.36923,269.292,0.93137
223.9000,-3.04806,269.266,0.931071
223.8000,-2.7329,269.494,0.933711
223.7000,-2.39806,269.663,0.935661
223.6000,-3.19045,269.507,0.933855
223.5000,-2.01852,269.666,0.935701
223.4000,-3.31866,270.014,0.939716
223.3000,-2.59848,269.814,0.937405
223.2000,-2.58627,270.085,0.94054
223.1000,-2.81153,270.183,0.941664
223.0000,-3.16293,270.192,0.941771
222.9000,-2.83375,270.197,0.94183
222.8000,-2.87779,270.417,0.944363
222.7000,-2.25865,270.587,0.94633
222.6000,-2.28594,270.626,0.946779
222.5000,-2.23778,270.843,0.949272
222.4000,-2.28169,270.974,0.950783
222.3000,-2.55352,270.689,0.947505
222.2000,-2.81813,270.71,0.947743
222.1000,-2.66415,270.898,0.949907
222.0000,-3.26151,271.032,0.951452
221.9000,-2.92704,271.252,0.953987
221.8000,-2.64765,271.191,0.953277
221.7000,-1.97667,271.251,0.953971
221.6000,-2.17617,271.124,0.952509
221.5000,-2.45812,271.33,0.954884
221.4000,-1.72221,271.64,0.958449
221.3000,-2.94881,271.58,0.95776
221.2000,-2.42174,271.612,0.958127
221.1000,-1.68439,271.404,0.955727
221.0000,-2.24085,271.641,0.958454
220.9000,-2.26432,271.785,0.960115
220.8000,-2.46816,271.939,0.961879
220.7000,-3.37616,271.746,0.959657
220.6000,-1.56985,272.218,0.965076
220.5000,-2.02916,272.21,0.964987
220.4000,-2.28305,272.145,0.964244
220.3000,-1.88073,272.193,0.964788
220.2000,-2.28359,272.206,0.964936
220.1000,-1.86062,272.69,0.970491
220.0000,-2.16842,272.682,0.9704
219.9000,-1.3915,272.36,0.966703
219.8000,-2.78741,272.562,0.969024
219.7000,-2.79133,272.602,0.969481
219.6000,-1.84645,272.621,0.9697
219.5000,-1.25201,272.492,0.968214
219.4000,-2.99968,272.742,0.971083
219.3000,-2.53255,272.862,0.972457
219.2000,-3.27576,273.064,0.974774
219.1000,-2.71604,273.149,0.975738
219.0000,-3.07621,272.885,0.972725
218.9000,-2.3502,273.428,0.978929
218.8000,-2.52337,272.979,0.973798
218.7000,-2.15348,273.05,0.974604
218.6000,-2.97713,273.224,0.976601
218.5000,-2.69601,273.498,0.97973
218.4000,-2.3328,273.34,0.977921
218.3000,-2.34569,273.437,0.979028
218.2000,-2.28846,273.722,0.982292
218.1000,-2.3546,273.744,0.982544
218.0000,-3.23687,273.8,0.983182
217.9000,-2.57482,273.879,0.984083
217.8000,-2.16612,273.941,0.984783
217.7000,-2.81805,274.12,0.986828
217.6000,-2.69193,274.285,0.988712
217.5000,-2.75162,274.452,0.990618
217.4000,-1.94527,274.059,0.986129
217.3000,-3.34244,274.313,0.989032
217.2000,-2.85596,274.556,0.991799
217.1000,-2.8446,274.763,0.994155
217.0000,-3.14684,274.671,0.993106
216.9000,-2.52513,274.849,0.995129
216.8000,-2.5741,274.803,0.994612
216.7000,-2.33201,274.759,0.994105
216.6000,-2.01682,274.893,0.995628
216.5000,-2.96951,275.018,0.997058
216.4000,-3.27511,274.982,0.996643
216.3000,-2.62043,274.856,0.995214
216.2000,-2.72991,275.35,1.00083
216.1000,-3.4662,275.422,1.00164
216.0000,-2.08208,275.463,1.00211
215.9000,-2.09052,275.588,1.00353
215.8000,-2.35149,275.751,1.00538
215.7000,-1.44315,275.544,1.00303
215.6000,-2.90523,275.525,1.00282
215.5000,-2.98697,275.678,1.00455
215.4000,-2.06431,275.683,1.00461
215.3000,-2.81447,275.831,1.00629
215.2000,-2.46133,275.903,1.0071
215.1000,-2.6621,276.283,1.01142
215.0000,-2.57389,276.301,1.01161
214.9000,-3.06594,276.261,1.01116
214.8000,-1.83421,276.188,1.01034
214.7000,-3.0816,276.307,1.01168
214.6000,-2.11004,276.225,1.01076
214.5000,-2.45229,276.378,1.01249
214.4000,-2.76578,276.43,1.01308
214.3000,-2.93856,276.576,1.01472
214.2000,-2.36487,276.546,1.0144
214.1000,-2.02773,276.96,1.01907
214.0000,-2.33095,276.851,1.01784
213.9000,-2.53595,276.686,1.01597
213.8000,-1.81276,276.862,1.01797
213.7000,-2.82399,277.036,1.01993
213.6000,-2.09059,276.854,1.01788
213.5000,-2.59891,276.933,1.01877
213.4000,-2.46537,277.122,1.0209
213.3000,-1.99749,277.134,1.02104
213.2000,-2.5863,277.42,1.02427
213.1000,-2.27575,277.207,1.02187
213.0000,-1.90145,277.459,1.02472
212.9000,-2.44669,277.473,1.02486
212.8000,-2.65971,277.528,1.02549
212.7000,-1.82856,277.454,1.02465
212.6000,-2.20979,277.653,1.0269
212.5000,-1.45641,277.954,1.0303
212.4000,-2.81022,277.502,1.0252
212.3000,-1.99787,277.976,1.03054
212.2000,-2.62387,278.132,1.0323
212.1000,-1.64865,277.929,1.03001
212.0000,-2.38056,278.52,1.03667
211.9000,-2.61828,278.402,1.03534
211.8000,-2.33349,278.265,1.0338
211.7000,-2.41756,278.67,1.03836
211.6000,-1.51993,278.763,1.0394
211.5000,-3.88779,278.847,1.04034
211.4000,-2.88874,278.952,1.04153
211.3000,-3.42483,278.985,1.04189
211.2000,-2.70663,279.183,1.04412
211.1000,-3.38689,278.963,1.04165
211.0000,-3.07371,279.208,1.04441
210.9000,-2.4338,279.332,1.04579
210.8000,-2.48023,279.379,1.04633
210.7000,-3.17326,279.34,1.04588
210.6000,-1.83551,279.597,1.04877
210.5000,-1.986,279.59,1.04869
210.4000,-1.8707,279.7,1.04992
210.3000,-2.21027,280.045,1.05379
210.2000,-2.69984,280.04,1.05374
210.1000,-2.30415,280.122,1.05465
210.0000,-1.90098,280.112,1.05455
209.9000,-1.52451,280.217,1.05572
209.8000,-2.65364,280.249,1.05608
209.7000,-2.52256,280.481,1.05867
209.6000,-1.07577,280.585,1.05983
209.5000,-1.80143,280.897,1.06333
209.4000,-1.86642,281.002,1.0645
209.3000,-2.12502,281.029,1.0648
209.2000,-1.36689,281.189,1.06658
209.1000,-1.79293,281.271,1.0675
209.0000,-2.1463,281.185,1.06654
208.9000,-3.96321,281.325,1.0681
208.8000,-2.73719,281.265,1.06743
208.7000,-2.44239,281.632,1.07153
208.6000,-2.48616,281.734,1.07266
208.5000,-2.4758,281.741,1.07274
208.4000,-2.73415,281.942,1.07498
208.3000,-2.72434,282.045,1.07613
208.2000,-2.04942,282.061,1.07631
208.1000,-1.78069,282.143,1.07722
208.0000,-1.89244,282.364,1.07968
207.9000,-3.25618,282.613,1.08245
207.8000,-1.38832,283.066,1.08748
207.7000,-2.35871,283.094,1.0878
207.6000,-2.34613,283.306,1.09014
207.5000,-2.20551,283.424,1.09145
207.4000,-1.71309,283.487,1.09215
207.3000,-1.52476,283.673,1.09422
207.2000,-1.29119,283.671,1.09418
207.1000,-0.691229,283.799,1.09561
207.0000,-3.39267,283.918,1.09693
206.9000,-1.62972,284.077,1.09869
206.8000,-2.98762,284.164,1.09965
206.7000,-2.11088,284.172,1.09973
206.6000,-1.54193,284.362,1.10185
206.5000,-1.49026,284.788,1.10655
206.4000,-1.59281,285.113,1.11013
206.3000,-0.395957,284.96,1.10845
206.2000,-0.44787,285.187,1.11096
206.1000,-1.20695,285.34,1.11265
206.0000,-0.950375,285.375,1.11303
205.9000,-2.38306,285.68,1.11639
205.8000,-1.97204,285.766,1.11734
205.7000,-0.876278,286.066,1.12064
205.6000,-1.21253,286.099,1.12101
205.5000,-1.59994,286.335,1.1236
205.4000,-1.53702,286.556,1.12603
205.3000,-0.639661,286.581,1.1263
205.2000,-0.364717,286.709,1.12771
205.1000,-1.48738,287.212,1.13324
205.0000,-0.495178,287.382,1.1351
204.9000,-0.833795,287.519,1.1366
204.8000,-0.400928,287.881,1.14056
204.7000,-0.710056,287.929,1.14109
204.6000,-1.06871,287.903,1.1408
204.5000,-0.6328,288.076,1.1427
204.4000,-0.760954,288.432,1.14659
204.3000,-0.41144,288.573,1.14813
204.2000,-0.187094,288.774,1.15033
204.1000,-0.437574,289.312,1.15619
204.0000,-0.841487,289.1,1.15388
203.9000,0.108078,289.271,1.15575
203.8000,-0.0357655,290.236,1.16625
203.7000,-0.258502,289.983,1.1635
203.6000,0.423359,290.077,1.16453
203.5000,0.0106119,290.096,1.16473
203.4000,-0.201962,290.784,1.17221
203.3000,0.940142,290.997,1.17452
203.2000,-0.0404446,291.049,1.17509
203.1000,1.57911,291.14,1.17607
203.0000,0.721193,291.487,1.17983
202.9000,0.572103,291.718,1.18234
202.8000,0.598713,291.803,1.18326
202.7000,0.995103,291.987,1.18524
202.6000,1.4594,292.164,1.18716
202.5000,2.07531,292.284,1.18846
202.4000,1.13085,292.559,1.19143
202.3000,0.280894,293.167,1.198
202.2000,2.29256,293.23,1.19867
202.1000,2.10787,293.523,1.20183
202.0000,1.96153,293.627,1.20295
201.9000,0.730277,294.218,1.20931
201.8000,2.83514,294.556,1.21294
201.7000,1.63557,294.622,1.21365
201.6000,2.63037,294.937,1.21703
201.5000,2.09068,295.313,1.22107
201.4000,1.27933,295.452,1.22256
201.3000,1.82234,295.7,1.22521
201.2000,2.30752,296.004,1.22847
201.1000,1.87444,296.135,1.22987
201.0000,2.08767,296.371,1.23239
200.9000,3.45292,296.692,1.23581
200.8000,3.18857,296.897,1.238
200.7000,2.24906,297.236,1.24162
200.6000,2.32071,297.469,1.2441
200.5000,4.08463,297.664,1.24618
200.4000,2.22047,298.095,1.25077
200.3000,3.60928,298.293,1.25287
200.2000,4.48849,298.777,1.258
200.1000,2.87067,298.831,1.25858
200.0000,3.77034,299.213,1.26263
199.9000,5.34377,299.386,1.26446
199.8000,4.89846,299.757,1.26839
199.7000,4.74083,300.14,1.27245
199.6000,4.32051,300.189,1.27296
199.5000,5.46194,300.393,1.27513
199.4000,4.90709,300.968,1.28119
199.3000,3.82144,300.891,1.28038
199.2000,4.78317,300.868,1.28013
199.1000,5.74492,301.057,1.28213
199.0000,5.75624,301.454,1.28632
198.9000,4.88866,301.634,1.28821
198.8000,5.963,302.007,1.29214
198.7000,6.24832,302.202,1.29419
198.6000,5.37547,302.445,1.29675
198.5000,5.98198,302.599,1.29836
198.4000,3.27351,302.877,1.30128
198.3000,6.07719,303.234,1.30502
198.2000,6.42899,303.38,1.30655
198.1000,6.87456,303.671,1.3096
198.0000,6.87685,303.695,1.30985
197.9000,5.81162,304.114,1.31424
197.8000,6.06144,304.008,1.31313
197.7000,5.99918,304.516,1.31844
197.6000,5.68441,304.811,1.32152
197.5000,5.48159,304.767,1.32106
197.4000,6.18287,305.223,1.32581
197.3000,6.56337,305.322,1.32685
197.2000,6.4804,305.815,1.33198
197.1000,7.24085,305.958,1.33347
197.0000,7.72744,306.277,1.33679
196.9000,7.4231,306.442,1.33851
196.8000,5.92565,306.778,1.34199
196.7000,6.83687,307.325,1.34767
196.6000,9.18554,307.783,1.35242
196.5000,6.69645,307.883,1.35346
196.4000,8.20321,308.315,1.35792
196.3000,8.70848,308.405,1.35886
196.2000,6.36305,308.921,1.36419
196.1000,8.48659,309.203,1.36709
196.0000,8.00034,309.612,1.37131
195.9000,8.83167,310.115,1.37649
195.8000,8.15141,310.197,1.37733
195.7000,8.93708,310.547,1.38093
195.6000,7.64779,310.955,1.38513
195.5000,8.20037,311.26,1.38825
195.4000,7.4427,311.678,1.39253
195.3000,8.50801,312.154,1.39741
195.2000,9.26727,312.142,1.39729
195.1000,8.44748,312.226,1.39814
195.0000,8.2103,312.864,1.40467
194.9000,8.7233,313.142,1.40751
194.8000,9.07311,313.407,1.41022
194.7000,10.1843,313.75,1.41371
194.6000,8.52879,314.125,1.41753
194.5000,8.25957,314.356,1.41988
194.4000,8.38405,314.995,1.42638
194.3000,7.84739,315.583,1.43235
194.2000,8.48977,315.841,1.43496
194.1000,8.88044,316.599,1.44263
194.0000,7.84387,317.113,1.44783
193.9000,8.48503,317.796,1.45472
193.8000,7.26594,318.451,1.46132
193.7000,8.79006,319.441,1.47127
193.6000,7.448,319.781,1.47468
193.5000,7.63522,320.14,1.47828
193.4000,9.16473,320.432,1.4812
193.3000,9.60252,321.074,1.48762
193.2000,10.5997,321.33,1.49018
193.1000,11.6805,322.162,1.49848
193.0000,7.68152,322.8,1.50483
192.9000,8.10675,323.296,1.50977
192.8000,10.9035,324.338,1.52011
192.7000,10.304,324.859,1.52527
192.6000,8.7416,325.884,1.5354
192.5000,10.2331,326.5,1.54148
192.4000,7.82879,327.379,1.55013
192.3000,7.54167,328.087,1.55709
192.2000,7.53044,328.907,1.56513
192.1000,8.25662,329.479,1.57073
192.0000,9.17192,330.107,1.57687
191.9000,8.00842,331.14,1.58695
191.8000,7.52299,331.945,1.59477
191.7000,8.83044,332.851,1.60358
191.6000,9.24877,333.836,1.61312
191.5000,9.40013,334.661,1.6211
191.4000,10.2559,335.665,1.63078
191.3000,10.9008,336.854,1.64221
191.2000,6.78722,337.906,1.6523
191.1000,6.61829,339.458,1.66713
191.0000,9.11351,340.834,1.68023
190.9000,10.3307,342.381,1.69492
190.8000,7.68811,343.886,1.70915
190.7000,7.405,345.045,1.72007
190.6000,9.08585,346.535,1.73407
190.5000,8.45753,347.808,1.74598
190.4000,9.67416,349.221,1.75918
190.3000,9.67292,350.333,1.76952
190.2000,8.99337,351.481,1.78018
190.1000,8.16775,352.76,1.79201
190.0000,7.88708,354.305,1.80625

##### Extended Information
[Comments]
Sample name,class
Comment
User
Division
Company,Saint Mary's College

[Detailed Information]
Creation date,9/30/2021 4:04 PM

Data array type,Linear data array * 3
Horizontal axis,Wavelength [nm]
Vertical axis(1),CD [mdeg]
Vertical axis(2),HT [V]
Vertical axis(3),Abs
Start,290 nm
End,190 nm
Data interval,0.1 nm
Data points,1001    

[Measurement Information]
Instrument name,J-1500
Model name,J-1500
Serial No.,B051061638

Detector,PM-539
Detector S/N,B051061638
  Lock-in amp.,X mode
  HT volt,Auto

Accessory,PTC-517
Accessory S/N,B026561646
  Temperature,22.41 C
  Control sensor,Holder
  Monitor sensor,Holder

Measurement date,9/30/2021 4:03 PM

CD Overload detect,765
Photometric mode,CD, HT, Abs
Measure range,290 - 190 nm
Data pitch,0.1 nm
CD scale,20 mdeg/0.05 dOD
FL scale,20 mdeg/0.05 dOD
D.I.T.,0.125 sec
Bandwidth,1.00 nm
Start mode,Immediately
Scanning mode,Continuous
Scanning speed,50 nm/min
Baseline correction,None
Shutter control,Auto
No. of cycle,1/1
N2 Flowmeter,Manual


