TITLE,class
DATA TYPE,
ORIGIN,JASCO
OWNER,
DATE,21/09/30
TIME,16:35:28
SPECTROMETER/DATA SYSTEM,
LOCALE,1033
RESOLUTION,
DELTAX,-0.1
XUNITS,NANOMETERS
YUNITS,CD [mdeg]
Y2UNITS,HT [V]
Y3UNITS,ABSORBANCE
FIRSTX,  290.0000
LASTX,  190.0000
NPOINTS,    1001
FIRSTY,     1.40500
MAXY,     3.82781
MINY,    -0.21078
XYDATA
290.0000,1.405,254.133,0.751701
289.9000,1.31039,253.822,0.747929
289.8000,1.53896,254.107,0.751388
289.7000,1.12695,253.964,0.749652
289.6000,1.89209,254.276,0.753445
289.5000,1.14374,254.036,0.750524
289.4000,1.45281,253.756,0.74713
289.3000,1.24364,253.985,0.749906
289.2000,1.07857,254.151,0.751929
289.1000,1.32199,254.066,0.750893
289.0000,1.39633,253.958,0.749578
288.9000,1.0326,254.088,0.751154
288.8000,1.90829,254.02,0.750335
288.7000,1.66504,253.841,0.748162
288.6000,2.33176,254.049,0.750689
288.5000,1.59915,254.229,0.752867
288.4000,1.81439,253.405,0.742853
288.3000,0.871799,253.727,0.746771
288.2000,1.79103,253.696,0.746396
288.1000,1.8515,253.625,0.745528
288.0000,0.973571,253.621,0.745483
287.9000,1.6497,253.298,0.74156
287.8000,2.30149,253.849,0.74826
287.7000,1.72356,253.529,0.744367
287.6000,1.48355,253.688,0.746295
287.5000,1.66155,253.96,0.74961
287.4000,1.45092,253.818,0.747882
287.3000,1.53623,253.879,0.748616
287.2000,1.61554,253.742,0.74696
287.1000,1.77314,253.826,0.747976
287.0000,1.74163,253.867,0.748469
286.9000,1.5509,253.782,0.747444
286.8000,1.85762,253.599,0.745218
286.7000,0.734306,253.837,0.748113
286.6000,1.77836,253.839,0.748131
286.5000,1.67762,253.69,0.746322
286.4000,1.57826,253.627,0.745553
286.3000,2.21992,253.606,0.745302
286.2000,1.26572,253.926,0.749197
286.1000,1.2496,253.526,0.744332
286.0000,1.26473,253.527,0.744341
285.9000,1.47858,253.648,0.745807
285.8000,1.69327,253.836,0.748105
285.7000,1.51921,253.745,0.746996
285.6000,1.51016,253.569,0.744848
285.5000,1.58628,253.735,0.746872
285.4000,1.70869,253.805,0.747723
285.3000,1.32857,253.646,0.745785
285.2000,1.892,253.742,0.746954
285.1000,1.08831,253.606,0.745299
285.0000,1.59015,253.504,0.744059
284.9000,1.44365,253.434,0.743206
284.8000,1.45732,253.436,0.743236
284.7000,1.60446,253.59,0.745109
284.6000,1.54386,253.54,0.744494
284.5000,1.49745,253.338,0.742037
284.4000,1.11645,253.32,0.741823
284.3000,1.31149,253.433,0.743198
284.2000,1.65333,253.497,0.743977
284.1000,0.788615,253.635,0.74565
284.0000,2.25061,253.576,0.744933
283.9000,1.90399,253.326,0.741891
283.8000,1.00988,253.454,0.743458
283.7000,2.21799,253.4,0.742794
283.6000,1.33482,253.916,0.749067
283.5000,1.24479,253.207,0.740444
283.4000,1.73347,253.196,0.740313
283.3000,1.78072,253.625,0.745531
283.2000,0.749452,253.38,0.742554
283.1000,1.37397,253.301,0.741585
283.0000,1.53529,253.453,0.74344
282.9000,1.11503,253.389,0.74266
282.8000,0.187192,253.42,0.743038
282.7000,1.49709,253.147,0.739715
282.6000,1.43446,253.32,0.741821
282.5000,0.891383,253.62,0.745473
282.4000,1.75335,253.036,0.738368
282.3000,1.59065,253.015,0.738109
282.2000,1.17954,252.978,0.737657
282.1000,2.15774,252.759,0.734982
282.0000,1.44474,253.38,0.742553
281.9000,0.488883,253.162,0.739902
281.8000,1.27792,252.995,0.737863
281.7000,1.12115,253.025,0.738231
281.6000,1.72128,253.338,0.742042
281.5000,1.5117,253.342,0.742094
281.4000,1.48798,253.203,0.740394
281.3000,1.46946,253.149,0.739737
281.2000,1.80238,253.365,0.742368
281.1000,1.58179,253.306,0.741654
281.0000,1.37802,252.879,0.736446
280.9000,1.19922,253.041,0.738422
280.8000,1.66763,253.004,0.737971
280.7000,1.32855,253.117,0.739355
280.6000,1.54255,253.143,0.739661
280.5000,1.38098,253.127,0.739471
280.4000,0.775628,253.158,0.739851
280.3000,1.40888,253.223,0.740644
280.2000,1.51054,252.719,0.734502
280.1000,0.891727,252.783,0.735277
280.0000,1.07354,253.096,0.739096
279.9000,1.86478,252.867,0.736309
279.8000,1.39163,252.344,0.729921
279.7000,1.17117,253.477,0.74373
279.6000,0.779502,252.666,0.733847
279.5000,0.910219,252.704,0.734313
279.4000,1.63975,253.172,0.740017
279.3000,1.53914,253.076,0.738854
279.2000,0.965957,252.701,0.734277
279.1000,1.21246,252.88,0.736457
279.0000,1.58697,252.894,0.736628
278.9000,1.02591,252.759,0.734989
278.8000,1.6116,253.242,0.74087
278.7000,0.993619,252.771,0.735133
278.6000,0.893287,252.661,0.73379
278.5000,1.46443,252.741,0.734768
278.4000,1.40387,252.489,0.731687
278.3000,1.33528,252.816,0.73568
278.2000,0.547655,252.872,0.73637
278.1000,1.77644,252.78,0.735247
278.0000,1.16241,252.821,0.735737
277.9000,1.62805,253.031,0.738306
277.8000,0.770984,252.843,0.736009
277.7000,1.81152,253.042,0.738441
277.6000,1.10822,252.668,0.733876
277.5000,1.66342,252.755,0.734941
277.4000,0.858367,252.577,0.73277
277.3000,1.47613,252.667,0.733869
277.2000,0.86819,252.97,0.737559
277.1000,0.989054,253.09,0.739017
277.0000,1.35969,253.013,0.738086
276.9000,0.905093,252.755,0.734934
276.8000,1.05609,252.666,0.733851
276.7000,1.84462,252.878,0.736433
276.6000,1.25961,252.942,0.737213
276.5000,0.702031,252.439,0.731082
276.4000,1.41307,252.603,0.733078
276.3000,1.8916,253.171,0.740009
276.2000,1.64422,252.759,0.734983
276.1000,1.16981,252.743,0.73479
276.0000,0.638893,252.747,0.734836
275.9000,1.12244,252.626,0.733368
275.8000,1.92212,252.794,0.735411
275.7000,1.16651,252.49,0.731698
275.6000,1.44668,252.549,0.732424
275.5000,1.79267,252.558,0.732539
275.4000,0.952734,252.213,0.728316
275.3000,0.769049,252.588,0.732901
275.2000,1.56484,252.659,0.733761
275.1000,0.997344,252.604,0.7331
275.0000,1.18226,252.498,0.731799
274.9000,1.28623,252.617,0.73326
274.8000,0.434578,252.647,0.73362
274.7000,1.59297,252.762,0.735026
274.6000,0.831348,252.544,0.73236
274.5000,1.53631,252.64,0.73353
274.4000,1.07916,252.488,0.731678
274.3000,0.913351,252.728,0.734612
274.2000,0.788904,252.368,0.73021
274.1000,1.01023,252.744,0.734801
274.0000,0.300241,252.525,0.732134
273.9000,1.61384,252.27,0.729017
273.8000,1.08102,252.551,0.732444
273.7000,1.50707,252.328,0.72972
273.6000,2.02968,252.46,0.731338
273.5000,0.911036,252.425,0.73091
273.4000,1.01563,252.403,0.730638
273.3000,1.14488,252.428,0.730951
273.2000,0.680083,252.374,0.730286
273.1000,0.920678,252.272,0.729047
273.0000,0.541446,252.564,0.732607
272.9000,1.16147,252.5,0.731824
272.8000,0.374412,252.416,0.730806
272.7000,0.995304,252.351,0.730007
272.6000,0.721343,252.442,0.731119
272.5000,0.855111,252.564,0.732601
272.4000,1.13204,252.391,0.730494
272.3000,0.280317,252.235,0.728586
272.2000,1.22593,252.152,0.727581
272.1000,0.544041,252.505,0.731885
272.0000,1.20133,252.434,0.731018
271.9000,1.4723,252.516,0.732023
271.8000,1.39734,252.354,0.730039
271.7000,0.90469,252.253,0.728813
271.6000,1.27816,252.283,0.729174
271.5000,0.926898,252.293,0.729296
271.4000,0.431438,252.245,0.72871
271.3000,0.804055,252,0.72572
271.2000,0.926325,252.339,0.729857
271.1000,0.780123,252.435,0.731035
271.0000,0.77188,252.212,0.728305
270.9000,1.15922,252.524,0.732122
270.8000,1.00417,252.492,0.73173
270.7000,0.880189,252.522,0.732092
270.6000,1.21262,252.542,0.732335
270.5000,0.997803,252.631,0.733425
270.4000,1.08311,252.571,0.732687
270.3000,0.895755,252.257,0.728853
270.2000,1.58109,252.68,0.734025
270.1000,0.684787,252.434,0.731022
270.0000,1.04944,252.235,0.728589
269.9000,1.05508,252.43,0.730971
269.8000,0.520739,252.595,0.73298
269.7000,0.912397,252.385,0.73042
269.6000,1.21398,252.589,0.732908
269.5000,1.0205,252.342,0.729892
269.4000,0.296086,252.44,0.731097
269.3000,1.34029,252.41,0.730727
269.2000,1.17729,252.193,0.728083
269.1000,0.614496,252.397,0.73057
269.0000,0.837267,252.673,0.733939
268.9000,1.41584,252.62,0.733295
268.8000,0.97602,252.391,0.730496
268.7000,1.3248,252.626,0.733369
268.6000,0.270887,252.368,0.730216
268.5000,0.580178,252.335,0.729807
268.4000,1.00483,252.689,0.734128
268.3000,0.582434,252.751,0.734893
268.2000,0.928119,252.324,0.729676
268.1000,0.560964,252.365,0.730174
268.0000,0.907853,252.344,0.72992
267.9000,1.28625,252.659,0.73377
267.8000,1.02681,252.418,0.730827
267.7000,1.16487,252.632,0.733432
267.6000,1.34681,252.303,0.729416
267.5000,1.05151,252.296,0.729331
267.4000,1.02808,252.554,0.732488
267.3000,1.3205,252.376,0.730318
267.2000,0.883235,252.339,0.729865
267.1000,0.439678,252.276,0.729088
267.0000,0.36931,252.576,0.732747
266.9000,1.20112,252.304,0.72943
266.8000,1.9823,252.535,0.732251
266.7000,0.819165,252.912,0.73685
266.6000,1.26503,252.7,0.734265
266.5000,0.462504,252.98,0.737682
266.4000,0.588228,252.659,0.73377
266.3000,0.276035,252.543,0.732347
266.2000,1.28911,252.791,0.735382
266.1000,0.822021,252.754,0.734925
266.0000,0.421224,252.95,0.737316
265.9000,0.914868,252.773,0.735153
265.8000,1.46965,252.72,0.734512
265.7000,1.06375,252.744,0.734809
265.6000,0.657325,252.737,0.734714
265.5000,0.939642,252.991,0.737812
265.4000,0.869215,252.968,0.73753
265.3000,0.340929,252.897,0.736674
265.2000,0.650902,252.801,0.735499
265.1000,0.526912,253.051,0.738552
265.0000,0.450448,252.894,0.736634
264.9000,1.2035,252.548,0.732413
264.8000,0.606741,252.832,0.735871
264.7000,0.465275,253.098,0.739113
264.6000,0.677632,252.979,0.737664
264.5000,1.13442,253.08,0.738897
264.4000,0.201202,253.552,0.744645
264.3000,0.851223,253.357,0.742277
264.2000,0.561911,253.256,0.741038
264.1000,0.435438,252.934,0.737121
264.0000,1.17702,253.049,0.738524
263.9000,1.00764,253.035,0.738348
263.8000,1.36653,253.135,0.739572
263.7000,0.774937,253.091,0.739032
263.6000,1.09391,253.018,0.738141
263.5000,2.41306,253.123,0.739418
263.4000,0.867798,253.184,0.740161
263.3000,0.109549,253.443,0.743318
263.2000,0.626964,253.249,0.740956
263.1000,0.593952,253.253,0.741001
263.0000,0.618568,253.057,0.738623
262.9000,1.93307,253.326,0.741892
262.8000,0.77681,253.175,0.740055
262.7000,0.990066,253.445,0.743344
262.6000,1.17492,253.588,0.745078
262.5000,1.28107,253.339,0.742049
262.4000,0.956052,253.381,0.742561
262.3000,0.873735,253.387,0.74264
262.2000,0.839841,253.414,0.742966
262.1000,0.86092,253.53,0.744377
262.0000,1.14664,253.849,0.748256
261.9000,1.27961,253.493,0.743925
261.8000,0.216682,253.821,0.747912
261.7000,0.348638,253.762,0.747197
261.6000,1.02911,253.56,0.744746
261.5000,1.24855,253.799,0.747654
261.4000,1.29645,253.618,0.745445
261.3000,1.2925,253.54,0.744496
261.2000,0.285889,253.643,0.745746
261.1000,0.123132,253.629,0.745588
261.0000,0.552285,253.713,0.746608
260.9000,0.366679,253.65,0.745834
260.8000,1.2685,253.557,0.744712
260.7000,0.670066,253.594,0.745158
260.6000,0.778418,253.889,0.748742
260.5000,1.46571,253.819,0.747887
260.4000,1.45412,253.967,0.749695
260.3000,0.210289,253.711,0.746581
260.2000,1.35646,253.838,0.748124
260.1000,0.427714,253.857,0.748352
260.0000,1.2431,253.925,0.749181
259.9000,0.684417,254.152,0.751937
259.8000,0.868437,254.086,0.751132
259.7000,1.22251,254.087,0.751146
259.6000,0.977099,254.083,0.751094
259.5000,1.15286,254.197,0.752482
259.4000,1.174,253.874,0.748558
259.3000,0.643836,253.873,0.748545
259.2000,0.779107,254.003,0.750133
259.1000,-0.0830607,253.964,0.749648
259.0000,0.579652,254.14,0.751787
258.9000,0.393642,254.107,0.751393
258.8000,0.704732,254.211,0.752657
258.7000,0.411534,254.294,0.753657
258.6000,1.1369,254.16,0.752031
258.5000,1.4372,254.504,0.756208
258.4000,1.25935,254.32,0.753979
258.3000,1.08355,254.153,0.751949
258.2000,0.681588,254.471,0.755805
258.1000,1.68186,254.515,0.756347
258.0000,0.865619,254.751,0.759208
257.9000,0.796784,254.694,0.758517
257.8000,1.22584,254.634,0.757787
257.7000,0.84685,254.627,0.757696
257.6000,0.917852,254.431,0.755327
257.5000,0.937805,254.78,0.759558
257.4000,0.607576,254.702,0.758612
257.3000,0.859554,254.536,0.756601
257.2000,0.414208,254.684,0.758389
257.1000,0.480105,254.644,0.757902
257.0000,1.11804,254.886,0.760837
256.9000,0.492198,254.544,0.756693
256.8000,0.930501,254.769,0.759418
256.7000,1.31921,254.774,0.759479
256.6000,1.54827,254.882,0.760784
256.5000,-0.176163,254.771,0.759451
256.4000,0.809993,254.942,0.761521
256.3000,0.583707,255.012,0.762369
256.2000,1.32328,255.144,0.763965
256.1000,1.29522,254.871,0.760657
256.0000,0.242129,254.902,0.761028
255.9000,0.820664,254.889,0.760875
255.8000,0.790098,254.952,0.761637
255.7000,0.888843,255.213,0.764794
255.6000,1.11346,255.02,0.762465
255.5000,0.0944466,255.45,0.767667
255.4000,-0.210781,255.282,0.765632
255.3000,0.754186,255.223,0.764918
255.2000,1.68456,255.408,0.767154
255.1000,0.787476,255.334,0.766266
255.0000,1.11062,255.022,0.762481
254.9000,1.37781,254.889,0.760879
254.8000,1.36661,255.242,0.765142
254.7000,1.2844,255.054,0.762874
254.6000,0.913687,255.345,0.766391
254.5000,1.14057,255.557,0.768955
254.4000,1.38021,255.28,0.765612
254.3000,0.75631,255.226,0.764959
254.2000,1.39835,255.348,0.766433
254.1000,0.287289,255.161,0.764174
254.0000,0.141017,255.441,0.76756
253.9000,0.983422,255.481,0.768038
253.8000,0.553976,255.517,0.768477
253.7000,1.32749,255.558,0.768968
253.6000,1.30762,255.608,0.76957
253.5000,0.633972,255.526,0.768585
253.4000,0.694732,255.544,0.768795
253.3000,0.71437,255.755,0.771353
253.2000,1.41775,255.452,0.767687
253.1000,1.1614,255.648,0.770062
253.0000,1.15728,255.659,0.770184
252.9000,0.888743,255.61,0.769597
252.8000,-0.00290694,255.702,0.770711
252.7000,0.935384,255.516,0.768464
252.6000,0.320793,255.833,0.772293
252.5000,0.810231,255.83,0.772253
252.4000,0.887295,255.911,0.773234
252.3000,1.47496,255.756,0.771365
252.2000,0.857639,255.898,0.773081
252.1000,0.296205,255.833,0.772294
252.0000,0.607557,256.04,0.77479
251.9000,1.55253,255.92,0.773338
251.8000,0.964878,255.886,0.772929
251.7000,1.37865,255.941,0.773595
251.6000,1.55597,256.064,0.775075
251.5000,1.22898,255.793,0.771806
251.4000,1.31203,256.106,0.77558
251.3000,1.12151,256.005,0.774364
251.2000,0.204267,256.073,0.775186
251.1000,0.443501,255.87,0.772733
251.0000,0.773232,255.911,0.773234
250.9000,0.398173,255.953,0.77374
250.8000,0.615536,255.901,0.773107
250.7000,0.510566,256.252,0.777351
250.6000,0.659346,256.104,0.775557
250.5000,1.18112,256.011,0.774437
250.4000,1.08554,255.809,0.772003
250.3000,1.19577,256.342,0.778437
250.2000,0.400017,256.055,0.774974
250.1000,1.02762,255.895,0.773044
250.0000,1.45249,255.774,0.771575
249.9000,0.204671,255.76,0.771413
249.8000,0.814766,256.059,0.775022
249.7000,1.07778,255.973,0.773978
249.6000,0.930171,256.03,0.774667
249.5000,1.24435,256.074,0.775204
249.4000,1.47471,256.236,0.777152
249.3000,1.23726,256.152,0.776141
249.2000,2.26709,255.873,0.772778
249.1000,1.72843,256.255,0.777387
249.0000,0.771414,256.15,0.776119
248.9000,1.08609,256.044,0.774835
248.8000,0.752261,256.19,0.7766
248.7000,1.20109,255.863,0.772658
248.6000,1.17657,256.122,0.775776
248.5000,0.398544,256.16,0.776233
248.4000,1.33583,256.079,0.775254
248.3000,1.92656,255.953,0.773744
248.2000,0.735682,255.926,0.773415
248.1000,1.20681,255.862,0.772646
248.0000,1.793,255.916,0.773287
247.9000,0.538527,256.062,0.775057
247.8000,0.912722,255.605,0.769542
247.7000,1.07638,255.893,0.773017
247.6000,0.860139,255.787,0.771736
247.5000,1.47839,255.874,0.772789
247.4000,1.43243,256.096,0.77546
247.3000,1.30884,256.267,0.777533
247.2000,0.313225,256.263,0.777475
247.1000,0.524722,256.327,0.778246
247.0000,1.02406,256.423,0.779413
246.9000,0.57486,256.408,0.779233
246.8000,0.390354,256.23,0.777076
246.7000,1.03651,256.244,0.777246
246.6000,0.534508,256.392,0.779033
246.5000,0.749968,256.572,0.781199
246.4000,0.813689,256.353,0.778558
246.3000,0.6865,256.329,0.778275
246.2000,0.653754,256.383,0.778931
246.1000,0.386735,256.429,0.779475
246.0000,1.63112,256.415,0.779308
245.9000,1.05796,256.333,0.778319
245.8000,0.832226,256.358,0.778627
245.7000,1.95298,256.191,0.776612
245.6000,0.275297,256.482,0.780115
245.5000,0.591458,256.629,0.781895
245.4000,1.01419,256.611,0.781672
245.3000,0.707319,256.262,0.777468
245.2000,0.887501,256.188,0.776572
245.1000,0.867923,256.579,0.781284
245.0000,0.899556,256.531,0.780708
244.9000,1.13208,256.533,0.780729
244.8000,0.77694,256.521,0.780585
244.7000,0.510482,256.659,0.782245
244.6000,0.292036,256.623,0.781823
244.5000,0.368004,256.636,0.781975
244.4000,1.20523,256.607,0.78163
244.3000,1.1628,256.783,0.78374
244.2000,0.305887,256.887,0.78499
244.1000,1.10706,256.661,0.782271
244.0000,1.11485,256.779,0.783702
243.9000,0.973484,256.75,0.783348
243.8000,1.24298,256.703,0.782783
243.7000,1.24326,256.614,0.781706
243.6000,0.821178,256.863,0.784702
243.5000,0.888439,256.67,0.782387
243.4000,1.25443,256.875,0.784856
243.3000,1.2576,256.688,0.782598
243.2000,0.965891,256.679,0.782494
243.1000,0.916623,256.679,0.782492
243.0000,1.46328,256.807,0.784036
242.9000,0.968499,256.492,0.780236
242.8000,0.606763,256.881,0.784926
242.7000,0.0737703,256.895,0.785088
242.6000,1.46984,257.146,0.788108
242.5000,1.02606,256.919,0.785383
242.4000,2.02711,256.977,0.786076
242.3000,1.86471,257.054,0.78701
242.2000,0.732536,256.996,0.786302
242.1000,1.42232,257.162,0.788298
242.0000,1.13227,257.073,0.787237
241.9000,0.738749,257.05,0.786956
241.8000,0.950516,257.24,0.789242
241.7000,1.19572,257.105,0.787613
241.6000,0.769509,257.078,0.787292
241.5000,1.27027,257.14,0.788035
241.4000,1.24948,257.277,0.789681
241.3000,1.41386,257.143,0.788077
241.2000,1.9436,257.359,0.79067
241.1000,0.974457,257.374,0.790846
241.0000,1.36159,257.477,0.792088
240.9000,1.08062,257.489,0.792238
240.8000,1.18786,257.525,0.792667
240.7000,0.770335,257.204,0.788805
240.6000,0.7394,257.348,0.790541
240.5000,1.07648,257.529,0.792708
240.4000,0.126795,257.649,0.794154
240.3000,0.86966,257.538,0.792818
240.2000,0.566698,257.56,0.793085
240.1000,1.68279,257.752,0.795395
240.0000,1.12617,257.726,0.795074
239.9000,0.859177,257.88,0.796931
239.8000,0.946352,257.816,0.796162
239.7000,1.62928,257.84,0.796449
239.6000,0.176785,257.789,0.795831
239.5000,0.957175,257.83,0.796322
239.4000,0.875111,257.995,0.798308
239.3000,1.36655,258.022,0.798628
239.2000,1.40393,258.185,0.800582
239.1000,1.52552,258.033,0.798765
239.0000,1.68761,258.163,0.800319
238.9000,1.47372,258.195,0.800706
238.8000,0.998364,258.351,0.802567
238.7000,0.682773,258.414,0.803326
238.6000,0.749293,258.373,0.802839
238.5000,0.740485,258.269,0.801587
238.4000,1.17412,258.467,0.803967
238.3000,2.04723,258.626,0.805865
238.2000,1.09253,258.901,0.809159
238.1000,0.488674,258.836,0.808371
238.0000,1.08001,258.718,0.806969
237.9000,1.33594,258.702,0.806772
237.8000,1.26094,258.823,0.808221
237.7000,0.778141,259.06,0.811055
237.6000,0.535118,258.819,0.808176
237.5000,1.56047,258.829,0.808292
237.4000,0.224422,258.819,0.80817
237.3000,0.785032,258.875,0.808846
237.2000,1.62708,259.124,0.811824
237.1000,1.31622,259.21,0.812841
237.0000,1.02119,259.184,0.812535
236.9000,0.823295,259.227,0.813053
236.8000,0.338079,259.314,0.81409
236.7000,1.67357,259.559,0.817009
236.6000,1.0539,259.531,0.816682
236.5000,0.364312,259.603,0.81754
236.4000,2.01375,259.587,0.817342
236.3000,1.11167,259.618,0.817717
236.2000,0.96305,259.461,0.815839
236.1000,2.3843,259.633,0.817892
236.0000,0.961812,259.837,0.820327
235.9000,0.404786,259.909,0.821182
235.8000,0.880567,259.943,0.821594
235.7000,1.39671,259.956,0.821746
235.6000,1.38004,259.909,0.82119
235.5000,1.0628,260.022,0.822529
235.4000,1.45801,260.398,0.827014
235.3000,1.20109,260.16,0.824176
235.2000,0.949509,260.246,0.825198
235.1000,1.03486,260.061,0.822994
235.0000,1.48578,260.208,0.824745
234.9000,1.18761,260.316,0.82603
234.8000,1.47887,260.483,0.828018
234.7000,0.725825,260.44,0.827514
234.6000,0.876692,260.58,0.82917
234.5000,0.629529,260.513,0.82838
234.4000,1.14567,260.631,0.829785
234.3000,0.909506,260.766,0.831388
234.2000,1.23989,260.818,0.832009
234.1000,1.5084,260.419,0.82726
234.0000,1.359,261.023,0.834433
233.9000,1.17273,260.778,0.831527
233.8000,1.49762,260.97,0.833805
233.7000,0.498874,260.945,0.833509
233.6000,1.06527,261.095,0.835298
233.5000,0.684199,261.443,0.83942
233.4000,0.667309,261.4,0.83891
233.3000,1.86589,261.436,0.839339
233.2000,0.732271,261.449,0.839489
233.1000,0.316772,261.477,0.839825
233.0000,0.859134,261.86,0.844367
232.9000,1.45173,261.435,0.839328
232.8000,0.595234,261.875,0.844547
232.7000,0.587571,261.722,0.842726
232.6000,0.873578,261.837,0.844091
232.5000,0.856924,261.808,0.843748
232.4000,1.35631,261.894,0.844763
232.3000,1.05226,261.977,0.845747
232.2000,1.20956,261.955,0.845487
232.1000,1.11142,261.988,0.845875
232.0000,1.26272,262.033,0.846411
231.9000,0.772269,262.263,0.849136
231.8000,0.632393,262.357,0.850249
231.7000,1.1735,262.59,0.853003
231.6000,1.12026,262.691,0.854194
231.5000,0.986166,262.655,0.853769
231.4000,0.931193,262.612,0.853264
231.3000,1.12451,262.614,0.853282
231.2000,1.33625,262.826,0.855794
231.1000,0.91766,262.745,0.854832
231.0000,1.54048,262.847,0.856036
230.9000,1.36216,262.915,0.856844
230.8000,0.504482,262.951,0.857259
230.7000,0.913122,262.915,0.856845
230.6000,1.15236,262.873,0.856349
230.5000,1.03582,262.847,0.856038
230.4000,1.28531,262.884,0.856477
230.3000,1.44094,262.884,0.856479
230.2000,1.05648,262.673,0.853984
230.1000,0.352036,262.903,0.856699
230.0000,0.724282,262.92,0.856893
229.9000,0.747162,262.633,0.853511
229.8000,1.41961,262.838,0.855932
229.7000,1.40657,262.908,0.856763
229.6000,1.0533,262.625,0.853413
229.5000,1.28953,262.725,0.854596
229.4000,1.94295,263.015,0.858015
229.3000,1.80927,263.062,0.858574
229.2000,0.97684,263.085,0.858851
229.1000,1.13763,263.376,0.862276
229.0000,1.77765,263.758,0.86678
228.9000,1.16579,263.911,0.868577
228.8000,1.64214,263.773,0.866959
228.7000,-0.0803506,264.059,0.870325
228.6000,1.50146,264.001,0.869642
228.5000,1.18753,264.212,0.872119
228.4000,1.30684,264.322,0.873415
228.3000,0.550979,264.468,0.875127
228.2000,2.2,264.525,0.875794
228.1000,1.14029,264.589,0.876547
228.0000,2.57845,264.398,0.874311
227.9000,2.15848,264.921,0.88045
227.8000,1.47991,264.882,0.879983
227.7000,1.2902,264.987,0.88122
227.6000,0.366537,265.053,0.881995
227.5000,1.37974,265.195,0.883658
227.4000,1.3139,265.005,0.88143
227.3000,0.928476,265.304,0.884938
227.2000,2.00324,265.461,0.886778
227.1000,2.05899,265.559,0.88792
227.0000,1.59734,265.653,0.889024
226.9000,2.32384,265.54,0.887693
226.8000,1.52217,265.348,0.885448
226.7000,2.25629,265.34,0.885352
226.6000,1.81194,265.513,0.887383
226.5000,1.24968,265.813,0.890895
226.4000,0.884223,265.743,0.890077
226.3000,1.31064,265.784,0.890554
226.2000,1.61476,266.14,0.894717
226.1000,1.11292,266.02,0.893318
226.0000,1.97463,266.042,0.893577
225.9000,0.443828,266.26,0.896119
225.8000,2.39648,266.927,0.903898
225.7000,1.89177,266.207,0.895499
225.6000,1.46103,266.407,0.897831
225.5000,1.47364,266.419,0.897982
225.4000,1.59011,266.78,0.902192
225.3000,1.01187,266.733,0.901635
225.2000,0.786774,266.773,0.902111
225.1000,1.3386,267.007,0.90483
225.0000,1.11081,267.078,0.905664
224.9000,2.04686,267.205,0.90714
224.8000,1.70026,267.149,0.906492
224.7000,2.35099,267.311,0.908381
224.6000,1.43742,267.182,0.906874
224.5000,1.24973,267.382,0.909199
224.4000,0.843354,267.524,0.910856
224.3000,0.793225,267.361,0.908955
224.2000,2.52445,267.66,0.912437
224.1000,1.37413,267.839,0.91452
224.0000,1.08869,267.607,0.91182
223.9000,1.11457,267.707,0.912979
223.8000,1.93052,267.774,0.913765
223.7000,1.94152,268.137,0.917981
223.6000,1.533,267.944,0.915735
223.5000,1.46131,268.146,0.91808
223.4000,1.98795,268.168,0.918341
223.3000,1.49615,268.079,0.917305
223.2000,1.95737,267.796,0.914016
223.1000,1.26833,268.411,0.921164
223.0000,2.15269,268.494,0.92212
222.9000,2.38875,268.277,0.919608
222.8000,1.28773,268.688,0.924372
222.7000,1.0973,268.766,0.925278
222.6000,0.720215,268.864,0.926417
222.5000,1.8366,268.746,0.925053
222.4000,1.37488,268.666,0.924118
222.3000,1.83515,268.837,0.926096
222.2000,1.03084,268.951,0.927418
222.1000,0.475148,269.265,0.931057
222.0000,2.08552,268.679,0.924267
221.9000,1.11422,269.203,0.930341
221.8000,1.08484,269.313,0.931617
221.7000,0.978009,269.374,0.932317
221.6000,1.60457,269.346,0.932
221.5000,1.7327,269.417,0.932817
221.4000,1.73085,269.22,0.930536
221.3000,1.16309,269.571,0.934596
221.2000,0.965222,269.852,0.93785
221.1000,1.17414,269.798,0.937224
221.0000,1.76598,269.389,0.932488
220.9000,1.38538,269.352,0.932066
220.8000,1.22802,269.935,0.938798
220.7000,1.0221,269.753,0.936702
220.6000,2.20611,270.23,0.942206
220.5000,1.55607,269.988,0.939416
220.4000,1.60986,270.288,0.942884
220.3000,1.55357,270.306,0.943092
220.2000,2.10223,270.264,0.942604
220.1000,1.59358,270.186,0.941703
220.0000,1.03487,270.367,0.943787
219.9000,1.81993,270.374,0.943872
219.8000,2.12938,270.556,0.945969
219.7000,1.98484,270.509,0.945433
219.6000,2.07401,270.536,0.945741
219.5000,2.83971,270.505,0.945386
219.4000,1.04262,270.51,0.945434
219.3000,1.23763,270.865,0.949533
219.2000,1.27314,270.793,0.9487
219.1000,1.88778,270.534,0.945719
219.0000,1.33657,270.864,0.949513
218.9000,2.04123,270.922,0.950187
218.8000,1.89821,270.836,0.949194
218.7000,1.71059,270.983,0.950893
218.6000,2.49496,271.301,0.95455
218.5000,1.32206,270.958,0.950601
218.4000,2.10291,270.979,0.950845
218.3000,1.92637,271.299,0.954529
218.2000,1.35899,271.339,0.954981
218.1000,3.09143,271.23,0.953726
218.0000,1.01293,271.544,0.957336
217.9000,2.0807,271.304,0.954581
217.8000,0.46589,271.512,0.956971
217.7000,2.38814,271.521,0.957079
217.6000,1.23693,271.691,0.959027
217.5000,2.25226,271.814,0.960447
217.4000,1.42308,271.742,0.959612
217.3000,1.56934,272.048,0.96313
217.2000,2.80466,272.014,0.962736
217.1000,1.3438,271.945,0.961951
217.0000,1.99171,272.298,0.965991
216.9000,1.90835,272.354,0.966633
216.8000,2.5872,272.445,0.967686
216.7000,1.90955,272.364,0.966752
216.6000,1.14702,272.431,0.967516
216.5000,0.947202,272.497,0.968282
216.4000,1.21299,272.268,0.965653
216.3000,1.1865,272.693,0.970519
216.2000,1.50293,272.562,0.969017
216.1000,1.73069,272.624,0.969736
216.0000,2.00582,272.488,0.968179
215.9000,1.48868,272.878,0.972646
215.8000,1.66818,272.978,0.973789
215.7000,0.541206,272.917,0.973091
215.6000,0.856462,272.897,0.972854
215.5000,2.65892,273.073,0.974877
215.4000,1.65784,273.105,0.975242
215.3000,2.35528,273.116,0.975366
215.2000,1.48225,273.269,0.977115
215.1000,0.937492,273.372,0.978295
215.0000,1.20742,273.175,0.976041
214.9000,1.99475,273.314,0.977623
214.8000,1.69858,273.423,0.978877
214.7000,2.14541,273.526,0.980046
214.6000,1.03673,273.389,0.978486
214.5000,1.7056,273.537,0.98018
214.4000,0.141634,273.676,0.981759
214.3000,2.31295,273.825,0.983463
214.2000,2.36315,273.991,0.985356
214.1000,1.93639,273.709,0.982136
214.0000,1.38149,273.699,0.982027
213.9000,2.47204,273.751,0.982619
213.8000,2.38667,273.833,0.98356
213.7000,1.61813,273.787,0.983025
213.6000,1.73711,273.915,0.98449
213.5000,2.04304,274.21,0.98786
213.4000,1.40955,274.032,0.985823
213.3000,2.49886,274.214,0.987904
213.2000,2.47623,274.251,0.988326
213.1000,1.67749,274.244,0.988246
213.0000,1.98864,274.344,0.989383
212.9000,1.95759,274.407,0.990102
212.8000,2.23271,274.249,0.988303
212.7000,1.37485,274.319,0.989103
212.6000,2.00758,274.553,0.991762
212.5000,1.84,274.738,0.993868
212.4000,2.57766,274.673,0.993131
212.3000,2.06502,274.67,0.993101
212.2000,1.3763,274.787,0.994423
212.1000,2.20366,274.869,0.995357
212.0000,3.32915,275.021,0.997092
211.9000,1.89673,275.122,0.998239
211.8000,1.9237,275.009,0.996948
211.7000,2.23999,275.282,1.00005
211.6000,1.08082,275.152,0.998583
211.5000,1.83267,275.416,1.00158
211.4000,2.04936,275.446,1.00192
211.3000,2.64179,275.491,1.00243
211.2000,1.52827,275.584,1.00349
211.1000,1.67684,275.479,1.00229
211.0000,2.22553,275.645,1.00417
210.9000,2.27842,275.612,1.00381
210.8000,1.5283,275.794,1.00587
210.7000,2.27317,275.981,1.00799
210.6000,1.96562,276.044,1.00871
210.5000,2.46769,276.002,1.00823
210.4000,1.84176,276.227,1.01078
210.3000,1.92814,276.307,1.01169
210.2000,1.80714,276.234,1.01086
210.1000,2.86635,276.607,1.01508
210.0000,1.73508,276.408,1.01282
209.9000,1.86811,276.353,1.01221
209.8000,2.33563,276.478,1.01362
209.7000,1.7437,276.667,1.01575
209.6000,2.18011,276.904,1.01844
209.5000,1.9617,276.688,1.016
209.4000,2.93166,276.938,1.01882
209.3000,1.90882,277.218,1.02199
209.2000,1.61745,277.192,1.0217
209.1000,2.01344,277.11,1.02076
209.0000,1.68529,277.169,1.02143
208.9000,1.65795,277.313,1.02306
208.8000,1.447,277.461,1.02473
208.7000,1.35361,277.377,1.02378
208.6000,1.01963,277.535,1.02556
208.5000,1.70294,277.745,1.02793
208.4000,2.19332,277.76,1.02811
208.3000,1.27408,278.118,1.03214
208.2000,2.25382,277.863,1.02927
208.1000,1.19293,277.687,1.02728
208.0000,2.18689,278.226,1.03336
207.9000,2.00324,278.112,1.03208
207.8000,1.37798,278.328,1.03451
207.7000,0.717656,278.561,1.03713
207.6000,1.81367,278.81,1.03993
207.5000,1.72048,278.78,1.0396
207.4000,2.16744,278.546,1.03696
207.3000,2.33827,278.922,1.04119
207.2000,1.02942,279.009,1.04217
207.1000,1.54279,278.899,1.04093
207.0000,2.46731,279.181,1.0441
206.9000,2.11056,279.417,1.04675
206.8000,1.5638,279.093,1.04311
206.7000,1.55067,279.349,1.04598
206.6000,1.08994,279.387,1.04641
206.5000,1.97863,279.678,1.04968
206.4000,1.30411,279.859,1.0517
206.3000,1.50742,279.849,1.05159
206.2000,3.63918,279.889,1.05204
206.1000,1.60519,280.13,1.05475
206.0000,1.57959,279.911,1.05229
205.9000,2.00749,280.665,1.06073
205.8000,1.90757,280.477,1.05863
205.7000,2.80417,280.337,1.05706
205.6000,2.65572,280.579,1.05976
205.5000,1.79577,281.026,1.06476
205.4000,3.39641,280.761,1.06181
205.3000,2.54141,280.795,1.06219
205.2000,1.29662,281.059,1.06514
205.1000,2.69303,281.275,1.06754
205.0000,1.66145,281.475,1.06977
204.9000,1.95871,281.729,1.07261
204.8000,2.98317,281.684,1.07211
204.7000,1.87216,281.975,1.07535
204.6000,2.79031,281.818,1.0736
204.5000,1.90986,281.862,1.07409
204.4000,1.42175,282.367,1.07971
204.3000,3.09337,282.49,1.08107
204.2000,1.44881,282.467,1.08083
204.1000,3.02935,282.226,1.07815
204.0000,1.48655,282.689,1.08329
203.9000,2.4947,282.975,1.08647
203.8000,3.09672,283.023,1.08701
203.7000,2.23144,283.448,1.09172
203.6000,1.67928,283.548,1.09283
203.5000,2.85895,283.519,1.09251
203.4000,1.03925,283.622,1.09365
203.3000,1.66729,283.719,1.09472
203.2000,1.97607,283.723,1.09477
203.1000,2.86594,283.957,1.09736
203.0000,1.88268,284.093,1.09886
202.9000,2.91386,284.076,1.09868
202.8000,1.48378,284.371,1.10194
202.7000,2.28987,284.686,1.10543
202.6000,0.710519,284.658,1.10511
202.5000,1.67809,284.788,1.10655
202.4000,2.13073,284.797,1.10665
202.3000,1.57142,284.955,1.10839
202.2000,2.74234,285.431,1.11365
202.1000,2.75583,285.515,1.11457
202.0000,3.10216,285.807,1.11779
201.9000,2.08682,285.976,1.11965
201.8000,2.79454,286.034,1.12029
201.7000,2.04902,286.341,1.12367
201.6000,2.58255,286.657,1.12714
201.5000,2.81553,286.604,1.12656
201.4000,2.06625,286.81,1.12882
201.3000,2.22255,286.971,1.13059
201.2000,2.43183,287.016,1.13108
201.1000,1.30423,287.071,1.13169
201.0000,1.84472,287.425,1.13556
200.9000,2.61998,287.55,1.13693
200.8000,2.09794,287.638,1.1379
200.7000,2.36397,287.609,1.13758
200.6000,2.75537,287.982,1.14166
200.5000,2.76855,288.315,1.14531
200.4000,2.16225,288.392,1.14615
200.3000,1.83197,288.685,1.14935
200.2000,2.10657,288.695,1.14947
200.1000,3.07074,288.782,1.15041
200.0000,1.96079,289.117,1.15407
199.9000,1.93975,289.432,1.1575
199.8000,1.03245,289.562,1.15892
199.7000,3.04566,289.349,1.1566
199.6000,2.8411,289.696,1.16038
199.5000,1.93406,289.895,1.16255
199.4000,1.3726,290.041,1.16413
199.3000,2.39113,290.132,1.16512
199.2000,1.66969,290.259,1.16651
199.1000,1.29773,290.385,1.16788
199.0000,2.79317,290.595,1.17016
198.9000,1.21605,290.589,1.17009
198.8000,3.51044,291.02,1.17477
198.7000,2.20904,290.978,1.17431
198.6000,2.17787,291.293,1.17774
198.5000,2.09133,291.309,1.17791
198.4000,2.362,291.81,1.18333
198.3000,2.04748,291.528,1.18028
198.2000,2.83542,291.797,1.18319
198.1000,2.18256,292.052,1.18595
198.0000,3.74018,292.132,1.18682
197.9000,2.513,292.149,1.187
197.8000,2.8699,292.198,1.18753
197.7000,3.05249,292.621,1.19211
197.6000,2.09055,292.918,1.19531
197.5000,1.64595,293.169,1.19801
197.4000,3.15525,293.074,1.19699
197.3000,2.92252,293.269,1.1991
197.2000,2.59264,293.604,1.20271
197.1000,3.37918,293.696,1.20369
197.0000,1.43384,293.896,1.20585
196.9000,3.73329,294.028,1.20727
196.8000,3.82781,294.07,1.20772
196.7000,3.34553,294.503,1.21238
196.6000,2.23504,295.002,1.21773
196.5000,2.04472,294.867,1.21628
196.4000,3.45442,294.975,1.21744
196.3000,2.44014,295.393,1.22192
196.2000,3.26231,295.563,1.22374
196.1000,3.09544,295.966,1.22805
196.0000,2.59532,296.181,1.23035
195.9000,0.958478,296.654,1.2354
195.8000,2.19804,296.762,1.23656
195.7000,0.992718,297.264,1.24191
195.6000,2.85233,297.307,1.24237
195.5000,2.88498,297.799,1.24761
195.4000,1.41511,297.683,1.24638
195.3000,1.9173,297.983,1.24958
195.2000,1.51697,298.355,1.25353
195.1000,2.63186,298.645,1.25661
195.0000,3.18479,299.029,1.26068
194.9000,1.61342,299.166,1.26214
194.8000,1.19908,299.303,1.26359
194.7000,2.38122,299.881,1.26971
194.6000,2.52636,300.291,1.27405
194.5000,2.24708,300.346,1.27462
194.4000,2.57515,300.81,1.27952
194.3000,1.26772,301.34,1.28512
194.2000,2.7664,301.805,1.29001
194.1000,1.95955,302.245,1.29464
194.0000,1.78283,302.694,1.29936
193.9000,3.21639,303.749,1.31042
193.8000,3.47095,303.932,1.31233
193.7000,1.7979,304.847,1.3219
193.6000,1.58023,305.202,1.3256
193.5000,2.07148,305.824,1.33208
193.4000,1.27892,306.105,1.33501
193.3000,1.65502,306.531,1.33943
193.2000,2.58802,306.936,1.34364
193.1000,1.60767,307.601,1.35053
193.0000,1.13248,308.311,1.35788
192.9000,0.705541,308.785,1.36278
192.8000,1.95169,309.441,1.36955
192.7000,2.6655,310.241,1.37778
192.6000,3.79859,310.931,1.38488
192.5000,2.0022,311.712,1.39289
192.4000,1.88261,312.787,1.40388
192.3000,2.12711,313.357,1.4097
192.2000,2.33025,313.944,1.41568
192.1000,1.61274,314.984,1.42627
192.0000,2.52736,315.471,1.4312
191.9000,1.86794,316.33,1.43991
191.8000,2.20094,317.09,1.4476
191.7000,2.85632,317.889,1.45566
191.6000,0.435928,318.819,1.46502
191.5000,1.29641,319.688,1.47375
191.4000,1.90342,320.588,1.48276
191.3000,0.343739,321.656,1.49344
191.2000,0.26877,322.859,1.50543
191.1000,3.02025,324.564,1.52235
191.0000,2.64012,325.727,1.53385
190.9000,2.14527,327.331,1.54966
190.8000,1.01146,328.783,1.56392
190.7000,0.85165,329.999,1.57581
190.6000,2.5694,331.233,1.58785
190.5000,3.01893,332.638,1.60151
190.4000,1.27074,333.897,1.61371
190.3000,2.67586,335.19,1.62619
190.2000,2.36109,336.454,1.63837
190.1000,3.13559,337.604,1.64941
190.0000,2.55297,339.019,1.66294

##### Extended Information
[Comments]
Sample name,class
Comment
User
Division
Company,Saint Mary's College

[Detailed Information]
Creation date,9/30/2021 3:35 PM

Data array type,Linear data array * 3
Horizontal axis,Wavelength [nm]
Vertical axis(1),CD [mdeg]
Vertical axis(2),HT [V]
Vertical axis(3),Abs
Start,290 nm
End,190 nm
Data interval,0.1 nm
Data points,1001    

[Measurement Information]
Instrument name,J-1500
Model name,J-1500
Serial No.,B051061638

Detector,PM-539
Detector S/N,B051061638
  Lock-in amp.,X mode
  HT volt,Auto

Accessory,PTC-517
Accessory S/N,B026561646
  Temperature,22.41 C
  Control sensor,Holder
  Monitor sensor,Holder

Measurement date,9/30/2021 3:34 PM

CD Overload detect,862
Photometric mode,CD, HT, Abs
Measure range,290 - 190 nm
Data pitch,0.1 nm
CD scale,20 mdeg/0.05 dOD
FL scale,20 mdeg/0.05 dOD
D.I.T.,0.125 sec
Bandwidth,1.00 nm
Start mode,Immediately
Scanning mode,Continuous
Scanning speed,50 nm/min
Baseline correction,None
Shutter control,Auto
No. of cycle,1/1
N2 Flowmeter,Manual


