TITLE,class
DATA TYPE,
ORIGIN,JASCO
OWNER,
DATE,21/09/30
TIME,16:58:14
SPECTROMETER/DATA SYSTEM,
LOCALE,1033
RESOLUTION,
DELTAX,-0.1
XUNITS,NANOMETERS
YUNITS,CD [mdeg]
Y2UNITS,HT [V]
Y3UNITS,ABSORBANCE
FIRSTX,  290.0000
LASTX,  190.0000
NPOINTS,    1001
FIRSTY,     0.93381
MAXY,    11.16761
MINY,    -3.92377
XYDATA
290.0000,0.93381,253.832,0.748046
289.9000,1.93603,254.301,0.753749
289.8000,0.739424,254.005,0.750147
289.7000,0.983768,254.104,0.751357
289.6000,0.827653,253.607,0.74531
289.5000,1.52155,253.89,0.748758
289.4000,1.48572,254.003,0.750128
289.3000,0.382347,254.048,0.750677
289.2000,1.13532,254.236,0.75296
289.1000,1.46943,254.186,0.75235
289.0000,0.374903,253.673,0.746121
288.9000,0.740706,253.877,0.748602
288.8000,1.78053,254.035,0.750522
288.7000,0.714676,253.993,0.750004
288.6000,1.27902,253.995,0.750027
288.5000,1.94715,254.026,0.750411
288.4000,1.00532,254.032,0.750475
288.3000,0.911559,253.797,0.747625
288.2000,1.50674,253.629,0.745578
288.1000,1.19071,253.908,0.748974
288.0000,0.9818,253.68,0.746199
287.9000,1.19247,253.805,0.747725
287.8000,0.63654,253.701,0.746457
287.7000,1.33717,253.444,0.743327
287.6000,1.06098,253.745,0.746996
287.5000,1.99667,253.887,0.748718
287.4000,1.46475,253.977,0.749811
287.3000,1.7306,253.575,0.744922
287.2000,1.57591,253.657,0.745918
287.1000,1.77433,254.091,0.751191
287.0000,1.06986,253.601,0.745244
286.9000,1.30035,253.721,0.746698
286.8000,1.19305,253.677,0.746166
286.7000,1.23887,253.829,0.748008
286.6000,1.5466,253.656,0.745907
286.5000,1.1165,253.653,0.74587
286.4000,1.24629,253.912,0.749018
286.3000,1.18524,253.629,0.745584
286.2000,1.23106,253.727,0.746776
286.1000,1.46743,253.621,0.745485
286.0000,0.739898,253.529,0.74436
285.9000,1.99275,253.639,0.745698
285.8000,1.51972,253.516,0.744213
285.7000,0.890652,253.529,0.744364
285.6000,1.18929,253.47,0.743643
285.5000,1.37998,253.684,0.746255
285.4000,1.22061,253.477,0.743733
285.3000,1.37002,253.732,0.74683
285.2000,1.57113,253.777,0.747387
285.1000,0.753957,253.402,0.742817
285.0000,1.50761,253.76,0.747175
284.9000,1.04035,253.466,0.743598
284.8000,0.99592,253.419,0.743025
284.7000,1.40556,253.463,0.743565
284.6000,1.31786,253.553,0.744654
284.5000,0.635515,253.29,0.741451
284.4000,1.07839,253.253,0.741008
284.3000,0.46458,253.407,0.742885
284.2000,1.5722,253.484,0.743813
284.1000,1.07284,253.238,0.740822
284.0000,1.55656,253.412,0.742947
283.9000,1.46414,253.604,0.745277
283.8000,1.19884,253.553,0.744658
283.7000,0.488685,253.605,0.74529
283.6000,1.35308,253.653,0.745871
283.5000,1.27633,253.6,0.745235
283.4000,0.953588,253.14,0.739625
283.3000,0.699427,253.441,0.7433
283.2000,0.860599,253.369,0.742414
283.1000,1.41258,253.116,0.739342
283.0000,1.17284,253.216,0.740553
282.9000,1.15146,253.259,0.741075
282.8000,1.30755,252.687,0.734111
282.7000,1.84894,253.155,0.739808
282.6000,0.959822,253.484,0.743822
282.5000,0.425624,253.38,0.742553
282.4000,1.88734,253.631,0.745603
282.3000,1.4252,253.08,0.738895
282.2000,1.41576,253.142,0.739653
282.1000,1.39691,253.213,0.740514
282.0000,1.1406,253.212,0.740502
281.9000,1.40586,252.848,0.736072
281.8000,0.80504,253.116,0.739341
281.7000,0.980415,253.257,0.741055
281.6000,0.705841,252.621,0.733305
281.5000,0.939826,253.201,0.740379
281.4000,1.14671,253.006,0.737995
281.3000,1.28844,252.935,0.737131
281.2000,1.46029,253.025,0.738223
281.1000,0.93896,253.28,0.741334
281.0000,1.28654,253.094,0.739076
280.9000,1.3079,253.172,0.740021
280.8000,1.67244,252.73,0.734638
280.7000,1.39546,252.6,0.733048
280.6000,1.47942,252.92,0.736951
280.5000,1.49625,253.217,0.740563
280.4000,0.64548,253.074,0.738828
280.3000,1.18106,253.032,0.73832
280.2000,1.51336,252.912,0.736856
280.1000,0.594887,252.952,0.737337
280.0000,1.05766,252.804,0.735537
279.9000,0.712675,252.444,0.731142
279.8000,1.12332,253.013,0.738088
279.7000,0.501,253.05,0.738528
279.6000,0.88145,252.813,0.73565
279.5000,1.02416,252.74,0.734751
279.4000,0.670473,253.202,0.74039
279.3000,1.04544,252.868,0.736316
279.2000,0.740172,253.168,0.739972
279.1000,1.82673,252.761,0.735014
279.0000,1.14506,252.958,0.737409
278.9000,1.32406,252.897,0.736664
278.8000,0.825564,252.872,0.736365
278.7000,0.509582,252.679,0.734009
278.6000,0.958484,252.918,0.736928
278.5000,1.71255,253.112,0.739286
278.4000,1.23481,252.969,0.737549
278.3000,1.61912,252.848,0.736074
278.2000,1.69004,252.885,0.736524
278.1000,1.18584,252.67,0.733902
278.0000,0.648767,252.693,0.734185
277.9000,0.358199,252.607,0.733133
277.8000,0.659427,252.231,0.728543
277.7000,0.796292,252.729,0.734622
277.6000,0.128631,252.847,0.736063
277.5000,1.01286,252.994,0.737855
277.4000,0.928274,252.78,0.735248
277.3000,1.14598,253.05,0.738534
277.2000,1.01481,252.596,0.733
277.1000,0.895953,252.719,0.734496
277.0000,0.697635,252.832,0.73588
276.9000,1.05388,252.607,0.733127
276.8000,0.0655907,252.974,0.737613
276.7000,0.975724,252.615,0.733228
276.6000,1.71972,252.589,0.732916
276.5000,1.79748,252.625,0.733352
276.4000,1.47507,252.898,0.736685
276.3000,1.66059,252.55,0.732436
276.2000,1.04607,252.584,0.732853
276.1000,0.672363,252.811,0.735615
276.0000,1.1683,252.503,0.731859
275.9000,0.739863,252.588,0.732902
275.8000,0.985667,252.509,0.731941
275.7000,0.468863,252.659,0.73377
275.6000,1.62075,252.78,0.735247
275.5000,1.07405,252.585,0.732858
275.4000,1.22752,252.851,0.736113
275.3000,0.665575,252.547,0.7324
275.2000,0.833488,252.408,0.730699
275.1000,0.492458,252.264,0.728946
275.0000,1.25334,252.659,0.733766
274.9000,1.31439,252.449,0.731209
274.8000,0.188027,252.514,0.732003
274.7000,1.12451,252.582,0.732831
274.6000,0.858893,252.498,0.731805
274.5000,0.166536,252.62,0.733289
274.4000,0.89681,252.761,0.735011
274.3000,-0.0392796,252.742,0.734775
274.2000,0.161986,252.336,0.729819
274.1000,0.864655,252.525,0.73213
274.0000,1.63924,252.241,0.728666
273.9000,0.547183,252.528,0.732162
273.8000,0.774438,252.257,0.72886
273.7000,0.997608,252.518,0.73204
273.6000,1.44798,252.156,0.727619
273.5000,1.51636,252.316,0.729574
273.4000,1.19084,252.275,0.729084
273.3000,0.894828,252.102,0.726968
273.2000,1.13164,252.104,0.726992
273.1000,0.782726,252.275,0.729077
273.0000,-0.0106629,252.079,0.726684
272.9000,0.191515,252.474,0.731512
272.8000,0.463896,252.556,0.732516
272.7000,0.815283,252.615,0.733227
272.6000,0.487031,252.373,0.730272
272.5000,0.637239,252.164,0.727716
272.4000,0.272693,252.466,0.731415
272.3000,0.843234,251.825,0.723581
272.2000,1.1688,252.356,0.730068
272.1000,1.03383,252.4,0.730608
272.0000,0.49512,252.208,0.728256
271.9000,0.820222,252.644,0.733578
271.8000,1.11452,252.31,0.729509
271.7000,-0.320561,252.329,0.729734
271.6000,0.707591,252.366,0.730193
271.5000,0.688038,252.232,0.728548
271.4000,0.315301,252.593,0.732964
271.3000,0.735326,252.538,0.732289
271.2000,0.889837,252.52,0.732071
271.1000,0.840681,252.621,0.733308
271.0000,-0.0556246,252.307,0.729464
270.9000,0.726735,252.411,0.730735
270.8000,1.36051,252.519,0.732061
270.7000,0.568071,252.68,0.734017
270.6000,0.342493,252.249,0.728755
270.5000,0.724889,252.666,0.733849
270.4000,0.931939,252.419,0.73084
270.3000,1.432,252.214,0.728331
270.2000,0.859211,252.225,0.728464
270.1000,1.31263,252.408,0.730701
270.0000,0.685678,252.38,0.730363
269.9000,0.692993,252.421,0.730867
269.8000,0.154227,252.528,0.73217
269.7000,0.0510877,252.399,0.730598
269.6000,0.592643,252.574,0.732726
269.5000,1.12034,252.186,0.727988
269.4000,0.143122,252.707,0.73435
269.3000,0.235576,252.855,0.736153
269.2000,0.214389,252.542,0.732341
269.1000,0.0218641,252.356,0.730066
269.0000,0.313397,252.243,0.728692
268.9000,0.918227,252.686,0.734092
268.8000,0.904661,252.815,0.735675
268.7000,0.52377,252.739,0.734743
268.6000,0.414168,252.311,0.729524
268.5000,0.769831,252.734,0.734684
268.4000,1.36175,252.665,0.733839
268.3000,0.323786,252.382,0.730384
268.2000,0.908455,252.599,0.733034
268.1000,0.738384,252.735,0.734691
268.0000,0.980672,252.506,0.731896
267.9000,0.455595,252.503,0.731866
267.8000,1.0828,252.276,0.729085
267.7000,0.912136,252.489,0.731691
267.6000,1.00106,252.69,0.734142
267.5000,2.00487,252.695,0.734208
267.4000,0.819079,252.356,0.730063
267.3000,0.841888,252.016,0.725908
267.2000,1.24275,252.562,0.732585
267.1000,0.775333,252.571,0.732692
267.0000,0.871173,252.984,0.737727
266.9000,0.665627,252.766,0.735069
266.8000,0.996253,252.547,0.732399
266.7000,1.25127,252.628,0.733393
266.6000,1.00423,252.683,0.734065
266.5000,1.39097,253.054,0.738588
266.4000,0.99404,252.805,0.735547
266.3000,1.35081,252.575,0.732736
266.2000,0.84005,252.751,0.734885
266.1000,0.424238,252.868,0.73631
266.0000,0.497025,253.04,0.738418
265.9000,0.749188,252.573,0.732721
265.8000,0.239708,252.945,0.737252
265.7000,0.107414,252.787,0.735327
265.6000,0.981807,252.771,0.735139
265.5000,0.319824,253.024,0.73822
265.4000,1.11278,253.106,0.739219
265.3000,0.707089,252.894,0.736634
265.2000,1.28692,252.825,0.735788
265.1000,0.674644,252.914,0.736878
265.0000,0.318129,253.29,0.741461
264.9000,1.01689,253.071,0.738794
264.8000,0.519621,252.991,0.73781
264.7000,0.237715,252.918,0.736928
264.6000,0.662344,252.966,0.737509
264.5000,0.538251,252.686,0.734094
264.4000,-0.166391,253.204,0.740414
264.3000,0.867303,253.102,0.739162
264.2000,0.524979,253.076,0.738845
264.1000,0.390413,252.808,0.73558
264.0000,0.68824,252.824,0.735776
263.9000,1.09715,252.907,0.736786
263.8000,0.758067,252.944,0.737246
263.7000,0.078177,253.005,0.737981
263.6000,1.27209,253.053,0.738564
263.5000,0.797081,252.944,0.737242
263.4000,1.43806,253.34,0.742066
263.3000,1.15045,253.113,0.739299
263.2000,0.730485,253.253,0.741007
263.1000,0.15146,253.152,0.739772
263.0000,0.429199,252.986,0.737752
262.9000,0.496191,253.205,0.740419
262.8000,0.0977381,253.133,0.739541
262.7000,0.0188724,253.384,0.742606
262.6000,0.943113,253.586,0.745061
262.5000,1.44219,253.56,0.744748
262.4000,0.780935,253.567,0.744826
262.3000,0.348474,253.056,0.738605
262.2000,0.634131,253.574,0.744918
262.1000,0.429111,253.27,0.741209
262.0000,0.418445,253.456,0.743473
261.9000,0.275469,253.347,0.742151
261.8000,0.328657,253.626,0.745549
261.7000,0.881852,253.402,0.742826
261.6000,0.847814,253.329,0.741934
261.5000,0.529983,253.54,0.744495
261.4000,0.571739,253.281,0.741343
261.3000,0.673759,253.357,0.742278
261.2000,0.130177,253.586,0.745056
261.1000,1.13397,253.753,0.747095
261.0000,0.478957,253.531,0.744394
260.9000,1.06004,253.673,0.746117
260.8000,0.212896,253.716,0.746645
260.7000,0.069388,253.65,0.745836
260.6000,-0.213911,253.743,0.746971
260.5000,0.824006,253.765,0.747235
260.4000,0.320539,253.641,0.745722
260.3000,1.03398,253.575,0.744931
260.2000,0.216019,253.826,0.747974
260.1000,0.889002,254.097,0.751274
260.0000,0.311832,253.805,0.747727
259.9000,0.847581,253.973,0.749766
259.8000,0.424304,254.091,0.751192
259.7000,0.0213465,253.836,0.748096
259.6000,0.254971,253.965,0.74967
259.5000,0.0703948,254.08,0.751068
259.4000,-0.0722397,254.143,0.751831
259.3000,-0.00501439,254.019,0.75032
259.2000,0.894565,253.948,0.749458
259.1000,0.021881,254.199,0.752509
259.0000,0.466305,254.31,0.753854
258.9000,0.307554,254.145,0.751847
258.8000,0.737131,254.304,0.753785
258.7000,0.0868121,254.096,0.751253
258.6000,0.147081,254.152,0.751932
258.5000,0.810592,254.113,0.751459
258.4000,0.348025,254.299,0.75372
258.3000,0.197712,254.193,0.75243
258.2000,1.07659,254.308,0.753826
258.1000,0.901831,254.445,0.755499
258.0000,0.916606,254.163,0.752074
257.9000,0.411397,254.29,0.753609
257.8000,0.685533,254.523,0.756441
257.7000,0.505556,254,0.75009
257.6000,0.587494,254.661,0.758111
257.5000,0.694237,254.312,0.753883
257.4000,1.04027,254.79,0.759673
257.3000,0.912476,254.757,0.759281
257.2000,0.622706,254.242,0.753024
257.1000,1.23265,254.753,0.759229
257.0000,0.268777,254.524,0.756445
256.9000,0.599008,254.825,0.760098
256.8000,1.32869,254.602,0.757392
256.7000,-0.241709,254.54,0.756648
256.6000,0.351311,254.623,0.757655
256.5000,0.865423,254.807,0.759882
256.4000,0.30232,254.854,0.760455
256.3000,0.0975628,254.652,0.758004
256.2000,0.906177,255.005,0.762273
256.1000,0.215586,255.075,0.763127
256.0000,1.78948,254.943,0.761528
255.9000,0.751704,255.161,0.764167
255.8000,0.520922,255.156,0.764108
255.7000,1.11613,254.719,0.758818
255.6000,1.15816,254.929,0.76136
255.5000,0.339056,255.226,0.764953
255.4000,0.854229,254.864,0.76057
255.3000,1.54302,255.172,0.764295
255.2000,0.670327,255.29,0.765733
255.1000,0.943318,255.062,0.762967
255.0000,0.872299,255.162,0.764175
254.9000,0.474491,255.278,0.765586
254.8000,0.269495,255.071,0.763076
254.7000,0.360961,255.155,0.764092
254.6000,0.532464,255.209,0.764754
254.5000,0.390856,254.949,0.761597
254.4000,0.89549,255.224,0.764934
254.3000,0.483407,255.396,0.767005
254.2000,0.967206,255.083,0.763224
254.1000,0.12726,255.082,0.763217
254.0000,0.6081,255.279,0.765591
253.9000,0.639717,255.298,0.765828
253.8000,-0.726306,255.706,0.770754
253.7000,0.764671,255.331,0.766226
253.6000,0.964347,255.231,0.765015
253.5000,1.07275,255.488,0.768123
253.4000,0.674901,255.342,0.766354
253.3000,0.788938,255.575,0.769173
253.2000,0.276159,255.569,0.769096
253.1000,0.660222,255.693,0.770604
253.0000,0.944898,255.487,0.768108
252.9000,0.329704,255.512,0.76841
252.8000,0.612238,255.423,0.767338
252.7000,0.417593,255.585,0.769293
252.6000,0.821428,255.555,0.768935
252.5000,0.625462,255.577,0.7692
252.4000,0.0442706,255.483,0.768056
252.3000,0.652891,255.684,0.770491
252.2000,0.999853,255.597,0.769445
252.1000,0.953113,255.76,0.771413
252.0000,0.479328,255.957,0.773791
251.9000,0.60084,256.189,0.776584
251.8000,0.151887,255.386,0.766889
251.7000,0.453396,255.916,0.773292
251.6000,0.444742,255.801,0.771903
251.5000,0.831177,255.651,0.770093
251.4000,1.03997,255.835,0.772312
251.3000,0.409525,255.936,0.77354
251.2000,1.92769,256.101,0.775521
251.1000,1.08574,255.835,0.772309
251.0000,0.826771,255.789,0.771761
250.9000,0.847635,255.857,0.772579
250.8000,0.0666442,256.092,0.775412
250.7000,1.14891,255.634,0.769885
250.6000,-0.0357695,255.842,0.772403
250.5000,0.154212,255.874,0.772781
250.4000,-0.0537448,256.066,0.775099
250.3000,0.883171,255.969,0.773935
250.2000,0.900169,256.121,0.775761
250.1000,0.373232,255.834,0.7723
250.0000,0.243262,256.015,0.774491
249.9000,0.417283,256.082,0.7753
249.8000,1.53282,256.326,0.778245
249.7000,0.756254,256.33,0.77829
249.6000,0.230365,256.462,0.779873
249.5000,-0.118631,255.916,0.773289
249.4000,-0.591863,256.045,0.774852
249.3000,0.276283,256.096,0.775464
249.2000,1.17504,256.018,0.774522
249.1000,0.000520947,256.154,0.776167
249.0000,1.14029,255.965,0.773879
248.9000,0.925414,255.885,0.772924
248.8000,0.574118,255.861,0.772627
248.7000,0.943806,256.01,0.774421
248.6000,1.02558,256.076,0.775225
248.5000,0.289923,255.828,0.772229
248.4000,0.758811,255.933,0.773494
248.3000,0.771795,255.799,0.77188
248.2000,0.324704,255.812,0.772035
248.1000,1.41196,255.973,0.773985
248.0000,0.928411,255.797,0.771856
247.9000,0.996048,255.833,0.772289
247.8000,0.175782,255.744,0.771216
247.7000,0.457641,255.775,0.771594
247.6000,0.177791,255.547,0.768838
247.5000,0.462873,255.99,0.774181
247.4000,1.21968,256.114,0.775686
247.3000,0.691432,255.961,0.77383
247.2000,0.269204,256.532,0.780725
247.1000,0.543437,255.912,0.773242
247.0000,0.781461,256.209,0.776823
246.9000,0.829856,256.461,0.779864
246.8000,0.769695,256.222,0.776985
246.7000,1.45821,256.262,0.777472
246.6000,0.523135,256.269,0.777548
246.5000,1.48836,256.261,0.777452
246.4000,0.485957,256.299,0.77791
246.3000,0.666847,256.69,0.782619
246.2000,0.528018,256.266,0.777515
246.1000,1.08503,256.218,0.776933
246.0000,0.939886,256.398,0.779105
245.9000,1.32004,256.464,0.779905
245.8000,0.706418,256.693,0.782664
245.7000,0.546796,256.416,0.779325
245.6000,0.232477,256.356,0.778605
245.5000,0.451827,256.266,0.77752
245.4000,1.38366,256.744,0.783273
245.3000,-0.183145,256.528,0.78067
245.2000,-0.00445138,256.467,0.779943
245.1000,0.59033,256.766,0.78354
245.0000,1.17578,256.776,0.783665
244.9000,1.00414,256.52,0.78058
244.8000,0.419532,256.428,0.779469
244.7000,0.661586,256.8,0.783954
244.6000,0.727328,256.466,0.779923
244.5000,1.09245,256.585,0.781355
244.4000,1.09376,256.504,0.780381
244.3000,0.25403,256.673,0.782415
244.2000,0.741251,256.79,0.783834
244.1000,1.20196,256.877,0.784873
244.0000,0.43919,256.611,0.781669
243.9000,0.560496,256.629,0.781894
243.8000,1.44353,256.864,0.784717
243.7000,0.491772,257.236,0.789195
243.6000,0.0706907,256.633,0.781942
243.5000,0.909062,256.906,0.785227
243.4000,1.1422,257.271,0.78961
243.3000,0.309545,256.639,0.782005
243.2000,1.20281,256.809,0.784063
243.1000,0.206481,256.919,0.785377
243.0000,0.608823,256.885,0.784975
242.9000,0.710013,256.798,0.783921
242.8000,0.242242,256.86,0.784672
242.7000,0.467721,257.071,0.787213
242.6000,0.284568,256.949,0.785746
242.5000,0.475305,256.732,0.783126
242.4000,0.556598,256.711,0.782872
242.3000,0.918741,256.936,0.785589
242.2000,-0.313886,256.923,0.785424
242.1000,0.479354,257.182,0.788543
242.0000,0.268996,257.075,0.787253
241.9000,0.632341,257.284,0.789766
241.8000,0.634923,257.258,0.789463
241.7000,0.230955,257.182,0.788542
241.6000,0.701528,257.298,0.789941
241.5000,0.893008,257.046,0.786911
241.4000,0.53828,257.437,0.791609
241.3000,0.494722,257.251,0.789379
241.2000,0.496183,257.511,0.792492
241.1000,-0.38364,257.581,0.793334
241.0000,0.67228,257.254,0.789408
240.9000,-0.195774,257.466,0.791957
240.8000,0.260157,257.466,0.791956
240.7000,-0.384574,257.604,0.793616
240.6000,0.74034,257.805,0.796032
240.5000,0.425331,257.67,0.794404
240.4000,0.0963927,257.462,0.791905
240.3000,0.276243,257.848,0.79654
240.2000,0.82577,257.966,0.797953
240.1000,-0.141889,258.093,0.799486
240.0000,1.1642,257.868,0.796783
239.9000,-0.774081,258.062,0.799114
239.8000,-0.219519,258.178,0.800493
239.7000,0.641986,258.075,0.799263
239.6000,-0.548222,257.923,0.797445
239.5000,0.11451,258.314,0.802134
239.4000,0.498062,258.225,0.801062
239.3000,0.449557,257.859,0.796678
239.2000,0.234986,257.83,0.796328
239.1000,0.270716,258.387,0.803
239.0000,0.0417968,258.62,0.805788
238.9000,0.0197448,258.427,0.803484
238.8000,-0.491216,258.283,0.801758
238.7000,0.364562,258.632,0.805937
238.6000,-0.428726,258.644,0.80608
238.5000,0.125241,258.773,0.807622
238.4000,-0.148126,258.587,0.805403
238.3000,0.545503,258.842,0.808443
238.2000,0.26778,258.697,0.806717
238.1000,0.124825,259.069,0.811166
238.0000,-0.255468,259.095,0.811477
237.9000,0.151426,259.282,0.813711
237.8000,-0.0434773,259.19,0.812605
237.7000,0.0659815,259.335,0.814333
237.6000,-0.2997,259.22,0.81297
237.5000,-0.276014,259.6,0.817501
237.4000,-0.301174,259.471,0.81596
237.3000,-0.745683,259.531,0.816684
237.2000,0.192767,259.303,0.813958
237.1000,-0.153653,259.482,0.816089
237.0000,-0.246279,259.687,0.818544
236.9000,-1.00597,259.707,0.81878
236.8000,-1.50975,259.688,0.818546
236.7000,-0.116915,259.887,0.820923
236.6000,-0.956551,259.781,0.819659
236.5000,-0.880565,259.745,0.819227
236.4000,0.317876,259.909,0.821188
236.3000,-0.465417,260.197,0.824619
236.2000,0.421499,260.112,0.823608
236.1000,-8.89791E-005,260.328,0.826173
236.0000,-0.480582,260.137,0.823898
235.9000,-0.397133,260.219,0.824884
235.8000,-0.328677,260.277,0.825568
235.7000,0.217951,260.095,0.823404
235.6000,-0.169748,260.283,0.825637
235.5000,-0.384207,260.699,0.830595
235.4000,-0.738921,260.544,0.828751
235.3000,-0.166777,260.465,0.827803
235.2000,-0.58602,260.832,0.83217
235.1000,-0.0721173,260.686,0.830438
235.0000,-0.208879,261.012,0.834302
234.9000,-0.754664,260.773,0.831468
234.8000,-0.0285578,261.07,0.835002
234.7000,-0.106353,261.071,0.83501
234.6000,-0.235657,261.161,0.836077
234.5000,-0.192145,261.152,0.835966
234.4000,-1.6167,261.42,0.83915
234.3000,-0.757216,261.387,0.838762
234.2000,0.508474,261.469,0.839732
234.1000,-0.520454,261.582,0.841066
234.0000,-0.274055,261.626,0.841591
233.9000,0.0235693,261.908,0.844934
233.8000,0.00645066,262.03,0.846377
233.7000,-1.3267,261.983,0.845826
233.6000,-0.649037,262.011,0.846148
233.5000,-0.56214,262.281,0.849345
233.4000,-0.677162,261.943,0.845347
233.3000,-1.01831,262.356,0.850235
233.2000,-0.121988,262.252,0.849004
233.1000,-0.393439,262.134,0.847608
233.0000,-1.40738,262.53,0.852287
232.9000,-1.38356,262.74,0.854772
232.8000,-1.17723,262.559,0.852631
232.7000,-1.29943,262.817,0.855688
232.6000,-0.314699,262.689,0.854166
232.5000,-0.8905,262.506,0.852009
232.4000,-1.3671,262.657,0.853798
232.3000,-0.596268,262.962,0.8574
232.2000,-0.8559,263.149,0.859602
232.1000,-0.110815,262.774,0.855176
232.0000,-0.843042,263.087,0.858871
231.9000,-1.05305,263.54,0.864212
231.8000,-1.13094,263.557,0.864413
231.7000,-1.45768,263.012,0.857987
231.6000,-0.359107,263.645,0.865443
231.5000,-0.472781,263.679,0.865851
231.4000,-1.36381,264.05,0.870219
231.3000,-1.49639,263.705,0.866156
231.2000,-1.49038,263.748,0.866659
231.1000,-1.39701,263.718,0.866302
231.0000,-1.34503,264.021,0.869867
230.9000,-1.58203,263.971,0.86928
230.8000,-1.55036,264.19,0.871859
230.7000,-1.53532,263.831,0.867641
230.6000,-1.67585,263.934,0.86885
230.5000,-1.56943,263.636,0.865342
230.4000,-2.4346,263.63,0.865272
230.3000,-1.60571,263.856,0.867936
230.2000,-2.07871,264.055,0.870278
230.1000,-1.55116,263.886,0.86828
230.0000,-1.6411,263.671,0.865752
229.9000,-1.13859,263.626,0.865227
229.8000,-1.89215,263.953,0.869075
229.7000,-2.18717,263.755,0.866747
229.6000,-1.27966,263.76,0.866797
229.5000,-1.74443,263.863,0.868008
229.4000,-2.02955,263.989,0.869495
229.3000,-1.46381,264.151,0.871397
229.2000,-1.86443,264.183,0.871779
229.1000,-1.32372,264.656,0.87734
229.0000,-1.90429,264.76,0.878552
228.9000,-1.42198,264.888,0.880052
228.8000,-1.03852,265.199,0.883706
228.7000,-1.61544,265.436,0.886483
228.6000,-2.0553,265.213,0.883865
228.5000,-2.59334,265.264,0.884468
228.4000,-2.48864,265.627,0.888717
228.3000,-1.42644,265.751,0.890173
228.2000,-1.83714,265.798,0.890724
228.1000,-2.11177,265.919,0.89214
228.0000,-2.26753,266.429,0.898094
227.9000,-2.40156,266.193,0.895341
227.8000,-1.77195,266.322,0.896846
227.7000,-1.94989,266.663,0.900819
227.6000,-2.28169,266.413,0.897904
227.5000,-2.20401,266.679,0.901007
227.4000,-1.95618,266.579,0.899838
227.3000,-1.81279,266.768,0.902043
227.2000,-2.83058,266.777,0.902158
227.1000,-3.39163,266.601,0.900098
227.0000,-2.19563,267.179,0.906834
226.9000,-1.22684,267.031,0.905118
226.8000,-1.27444,266.998,0.904728
226.7000,-2.2661,267.393,0.909327
226.6000,-2.6211,267.323,0.908511
226.5000,-2.67977,267.243,0.907582
226.4000,-1.96641,267.261,0.907798
226.3000,-2.074,267.383,0.909212
226.2000,-1.59898,267.78,0.913829
226.1000,-2.38551,267.502,0.910595
226.0000,-2.34563,267.47,0.91023
225.9000,-2.19549,267.686,0.912741
225.8000,-1.62374,267.767,0.913676
225.7000,-1.93877,267.977,0.916123
225.6000,-2.39892,268.032,0.916766
225.5000,-1.65976,268.614,0.923518
225.4000,-2.26646,268.311,0.919996
225.3000,-1.94724,268.642,0.923837
225.2000,-2.49523,268.522,0.922448
225.1000,-1.69495,268.547,0.922738
225.0000,-2.91202,268.934,0.927226
224.9000,-1.84899,268.604,0.923399
224.8000,-2.07633,268.972,0.927662
224.7000,-2.85323,268.825,0.925968
224.6000,-2.54529,268.88,0.926604
224.5000,-2.44699,269.106,0.929215
224.4000,-3.00086,268.826,0.92597
224.3000,-2.39576,269.238,0.930743
224.2000,-2.57242,269.306,0.931536
224.1000,-2.41028,268.992,0.927894
224.0000,-2.40662,269.581,0.934717
223.9000,-2.4662,269.594,0.93486
223.8000,-2.94169,269.597,0.934904
223.7000,-2.66636,269.733,0.936471
223.6000,-2.39505,269.946,0.938927
223.5000,-2.17612,269.755,0.93673
223.4000,-2.14173,269.688,0.935948
223.3000,-2.4188,269.989,0.939429
223.2000,-2.72339,270.071,0.940374
223.1000,-2.42235,270.344,0.943526
223.0000,-2.09786,270.353,0.943632
222.9000,-1.7922,270.728,0.947956
222.8000,-3.05221,270.513,0.945479
222.7000,-3.39073,270.52,0.94555
222.6000,-2.96649,270.715,0.947802
222.5000,-1.30219,270.567,0.9461
222.4000,-2.63063,270.74,0.94809
222.3000,-3.53,270.736,0.948042
222.2000,-2.39026,270.632,0.946844
222.1000,-2.07652,270.781,0.948563
222.0000,-2.45494,271.018,0.951288
221.9000,-3.23828,271.187,0.953234
221.8000,-2.77235,271.156,0.952879
221.7000,-2.55576,271.008,0.951179
221.6000,-2.57505,271.06,0.951779
221.5000,-3.74628,271.358,0.955206
221.4000,-2.41334,271.774,0.959989
221.3000,-3.04022,271.469,0.95648
221.2000,-2.15724,271.532,0.957202
221.1000,-3.1948,271.79,0.960162
221.0000,-1.29889,271.973,0.96227
220.9000,-2.78847,271.678,0.958884
220.8000,-1.74312,271.929,0.961766
220.7000,-2.15598,272.311,0.966141
220.6000,-2.90706,272.142,0.964213
220.5000,-3.46694,272.085,0.963557
220.4000,-1.52591,272.25,0.96544
220.3000,-2.7495,272.333,0.9664
220.2000,-2.9928,272.14,0.964185
220.1000,-2.67175,272.496,0.968261
220.0000,-2.26916,272.388,0.967026
219.9000,-1.96209,272.677,0.970336
219.8000,-3.21631,272.711,0.970726
219.7000,-1.94931,272.806,0.971812
219.6000,-1.56837,272.588,0.969324
219.5000,-2.10973,272.728,0.970926
219.4000,-1.67495,272.641,0.969923
219.3000,-2.33574,272.85,0.972321
219.2000,-2.68365,273.024,0.974312
219.1000,-2.12193,273.021,0.974278
219.0000,-3.43143,272.988,0.973897
218.9000,-2.3881,273.101,0.975197
218.8000,-3.37538,273.251,0.976909
218.7000,-2.17683,273.029,0.974366
218.6000,-2.74429,273.56,0.980443
218.5000,-2.54763,273.302,0.977492
218.4000,-1.85388,273.609,0.980996
218.3000,-1.77919,273.713,0.982187
218.2000,-3.24772,273.455,0.979242
218.1000,-2.25255,273.56,0.980435
218.0000,-3.28009,273.803,0.983216
217.9000,-2.7712,273.887,0.984171
217.8000,-2.08136,274.143,0.987095
217.7000,-2.41568,273.975,0.985179
217.6000,-2.29972,273.82,0.983401
217.5000,-1.72989,274.501,0.991168
217.4000,-1.89635,274.51,0.991275
217.3000,-2.25178,274.084,0.986416
217.2000,-1.46051,274.541,0.99163
217.1000,-2.41807,274.166,0.987356
217.0000,-2.73588,274.769,0.994224
216.9000,-1.87353,274.904,0.995754
216.8000,-1.65708,274.61,0.992413
216.7000,-2.24931,274.847,0.995108
216.6000,-2.64643,275.042,0.997332
216.5000,-2.03668,275.185,0.998958
216.4000,-3.24487,274.896,0.99567
216.3000,-2.4719,275.418,1.0016
216.2000,-3.57343,275.295,1.0002
216.1000,-2.0472,275.056,0.997488
216.0000,-3.79182,275.111,0.998109
215.9000,-2.10513,275.831,1.00629
215.8000,-1.4132,275.605,1.00372
215.7000,-2.03809,275.382,1.00119
215.6000,-1.67178,275.368,1.00103
215.5000,-2.01992,275.48,1.00231
215.4000,-2.46073,275.895,1.00701
215.3000,-2.88226,275.589,1.00355
215.2000,-2.00513,275.878,1.00683
215.1000,-2.96649,275.894,1.007
215.0000,-3.23141,275.914,1.00723
214.9000,-2.74378,275.889,1.00694
214.8000,-2.22004,276.007,1.00828
214.7000,-2.16002,276.214,1.01062
214.6000,-2.21222,276.389,1.01261
214.5000,-2.13272,276.33,1.01195
214.4000,-2.34104,276.62,1.01523
214.3000,-2.87621,276.281,1.01139
214.2000,-2.19675,276.554,1.01448
214.1000,-2.10099,276.526,1.01417
214.0000,-1.92638,276.905,1.01846
213.9000,-2.61661,276.883,1.01821
213.8000,-2.62052,276.911,1.01852
213.7000,-2.16078,277.001,1.01954
213.6000,-2.76002,276.703,1.01617
213.5000,-1.52518,276.605,1.01505
213.4000,-2.3432,277.15,1.02122
213.3000,-2.7895,277.317,1.02311
213.2000,-1.36444,277.325,1.0232
213.1000,-2.53452,277.016,1.01971
213.0000,-1.89599,277.345,1.02342
212.9000,-2.16937,277.571,1.02598
212.8000,-2.42136,277.488,1.02504
212.7000,-2.6052,277.044,1.02003
212.6000,-2.33246,277.556,1.0258
212.5000,-2.81784,277.823,1.02882
212.4000,-2.23256,277.747,1.02797
212.3000,-2.60828,278.142,1.03241
212.2000,-1.84888,278.353,1.03478
212.1000,-3.28688,277.896,1.02964
212.0000,-1.53808,278.378,1.03507
211.9000,-2.09971,278.717,1.03888
211.8000,-2.60143,278.445,1.03583
211.7000,-2.5295,278.626,1.03786
211.6000,-2.09947,278.825,1.0401
211.5000,-3.92377,278.759,1.03936
211.4000,-2.2069,278.527,1.03675
211.3000,-1.94342,279.043,1.04254
211.2000,-2.72293,279.148,1.04373
211.1000,-1.46414,278.966,1.04168
211.0000,-2.76085,278.801,1.03983
210.9000,-2.13657,279.399,1.04654
210.8000,-2.0201,279.204,1.04435
210.7000,-2.60056,279.258,1.04496
210.6000,-2.75091,279.291,1.04534
210.5000,-2.12698,279.607,1.04888
210.4000,-2.97129,279.463,1.04727
210.3000,-1.9924,279.612,1.04894
210.2000,-2.9618,279.935,1.05256
210.1000,-2.50784,279.817,1.05123
210.0000,-3.17869,280.048,1.05382
209.9000,-2.15021,280.12,1.05463
209.8000,-2.75443,280.28,1.05643
209.7000,-2.37487,280.122,1.05465
209.6000,-2.49303,280.535,1.05927
209.5000,-2.9238,280.658,1.06065
209.4000,-2.30655,280.653,1.0606
209.3000,-2.11985,281.031,1.06482
209.2000,-1.63491,281.25,1.06727
209.1000,-1.83869,281.357,1.06846
209.0000,-2.23683,281.272,1.06751
208.9000,-3.51655,281.277,1.06756
208.8000,-3.36856,281.272,1.06751
208.7000,-2.16309,281.688,1.07215
208.6000,-3.63226,281.378,1.06869
208.5000,-3.45881,281.735,1.07267
208.4000,-2.24718,281.954,1.07511
208.3000,-2.79042,281.776,1.07313
208.2000,-2.59679,282.08,1.07652
208.1000,-1.72997,282.464,1.08079
208.0000,-2.76519,282.579,1.08206
207.9000,-2.08239,282.699,1.0834
207.8000,-3.11343,283.337,1.09049
207.7000,-0.843038,282.662,1.08299
207.6000,-1.25219,282.944,1.08612
207.5000,-2.04132,283.156,1.08848
207.4000,-1.81049,283.348,1.09061
207.3000,-3.28705,283.31,1.09019
207.2000,-1.59894,283.924,1.097
207.1000,-1.61074,284.06,1.0985
207.0000,-2.75935,283.839,1.09606
206.9000,-2.92678,283.502,1.09231
206.8000,-2.03018,283.983,1.09764
206.7000,-1.34356,284.26,1.10071
206.6000,-3.38472,284.193,1.09997
206.5000,-3.30253,284.593,1.1044
206.4000,-2.54913,284.728,1.10589
206.3000,-2.0965,284.845,1.10718
206.2000,-1.85415,284.872,1.10748
206.1000,-2.67251,285.255,1.1117
206.0000,-1.36696,285.393,1.11323
205.9000,-1.938,285.62,1.11573
205.8000,-0.844514,285.508,1.11449
205.7000,-0.624685,285.631,1.11585
205.6000,-1.38826,286.007,1.11999
205.5000,-2.4581,286.135,1.1214
205.4000,-1.8648,286.04,1.12035
205.3000,-0.192547,286.468,1.12507
205.2000,-0.691999,286.532,1.12577
205.1000,-1.55646,286.906,1.12987
205.0000,-1.14572,287.066,1.13163
204.9000,-0.513047,287.251,1.13366
204.8000,-0.822525,287.527,1.13668
204.7000,-1.24959,287.71,1.13869
204.6000,-0.291818,287.89,1.14067
204.5000,-0.766988,288.221,1.14428
204.4000,-1.31741,288.732,1.14986
204.3000,-2.0172,288.771,1.15029
204.2000,-0.802992,288.456,1.14686
204.1000,-1.04006,288.72,1.14974
204.0000,0.178278,289.146,1.15438
203.9000,-0.797607,289.169,1.15464
203.8000,-0.457106,289.736,1.16081
203.7000,-1.7841,289.922,1.16285
203.6000,0.669901,289.759,1.16106
203.5000,-0.761014,290.241,1.16631
203.4000,-0.838019,290.668,1.17095
203.3000,-0.300495,290.797,1.17235
203.2000,-0.199756,290.614,1.17036
203.1000,1.08051,291.118,1.17583
203.0000,0.516046,291.079,1.17541
202.9000,0.537254,291.253,1.1773
202.8000,0.953233,291.731,1.18247
202.7000,0.215219,291.731,1.18247
202.6000,0.882968,292.098,1.18645
202.5000,1.39332,292.446,1.19021
202.4000,1.52799,292.86,1.19468
202.3000,0.923456,292.637,1.19228
202.2000,1.25971,293.196,1.1983
202.1000,0.997024,293.109,1.19737
202.0000,0.482793,293.758,1.20437
201.9000,2.29257,293.822,1.20505
201.8000,2.00554,294.262,1.20978
201.7000,3.28411,294.742,1.21494
201.6000,0.952192,294.984,1.21754
201.5000,1.60427,295.209,1.21995
201.4000,1.45072,295.353,1.22149
201.3000,2.35446,295.666,1.22484
201.2000,3.61567,295.953,1.22792
201.1000,2.82505,295.988,1.22829
201.0000,3.37787,296.404,1.23274
200.9000,2.74932,296.889,1.23792
200.8000,3.11366,297.011,1.23922
200.7000,2.7149,297.575,1.24523
200.6000,0.661384,297.405,1.24342
200.5000,3.52948,297.49,1.24433
200.4000,4.09114,297.984,1.24959
200.3000,3.29975,298.243,1.25234
200.2000,3.61503,298.562,1.25573
200.1000,4.88297,298.728,1.25748
200.0000,3.31448,299.2,1.26249
199.9000,4.45993,299.63,1.26705
199.8000,5.01993,299.74,1.26821
199.7000,5.22489,299.904,1.26995
199.6000,4.43575,300.691,1.27827
199.5000,4.28962,300.923,1.28072
199.4000,3.53061,300.531,1.27658
199.3000,3.61352,301.189,1.28352
199.2000,4.35645,300.917,1.28066
199.1000,5.42436,301.202,1.28366
199.0000,4.39695,301.358,1.28531
198.9000,4.35317,301.479,1.28658
198.8000,4.52109,301.814,1.29011
198.7000,4.72673,302.266,1.29486
198.6000,4.70013,302.714,1.29956
198.5000,5.47095,302.729,1.29973
198.4000,5.58621,303.102,1.30364
198.3000,5.82837,303.149,1.30413
198.2000,5.64923,303.383,1.30659
198.1000,5.48202,303.476,1.30756
198.0000,6.78489,303.936,1.31238
197.9000,5.46584,304.129,1.3144
197.8000,6.91624,304.287,1.31605
197.7000,6.69215,304.491,1.31818
197.6000,6.8328,304.859,1.32202
197.5000,6.56332,304.802,1.32143
197.4000,6.7417,305.122,1.32477
197.3000,6.36747,305.591,1.32965
197.2000,7.9794,305.717,1.33097
197.1000,8.35474,306.217,1.33617
197.0000,5.55727,306.142,1.33539
196.9000,5.68933,306.31,1.33714
196.8000,7.43018,307.011,1.34441
196.7000,7.73197,307.363,1.34806
196.6000,6.75211,307.398,1.34843
196.5000,7.08196,307.985,1.35451
196.4000,6.91926,308.334,1.35812
196.3000,7.63411,308.673,1.36163
196.2000,8.22395,308.945,1.36443
196.1000,8.10722,309.593,1.37112
196.0000,6.47553,309.569,1.37087
195.9000,7.31377,310.213,1.37749
195.8000,8.18126,310.153,1.37688
195.7000,8.57308,310.62,1.38168
195.6000,8.77966,310.686,1.38236
195.5000,7.06298,311.233,1.38797
195.4000,8.27433,311.569,1.39142
195.3000,7.79386,311.974,1.39557
195.2000,9.09263,312.111,1.39697
195.1000,6.79667,312.504,1.401
195.0000,9.37673,312.742,1.40342
194.9000,7.47129,312.986,1.40591
194.8000,7.86072,313.34,1.40953
194.7000,7.42437,313.63,1.41249
194.6000,9.50205,314.221,1.4185
194.5000,9.88529,314.637,1.42274
194.4000,6.53534,314.844,1.42484
194.3000,8.80919,315.624,1.43276
194.2000,9.25812,316.03,1.43687
194.1000,9.27937,316.348,1.44009
194.0000,9.84062,317.19,1.4486
193.9000,8.02431,318.052,1.4573
193.8000,8.86921,318.275,1.45954
193.7000,9.50426,319.071,1.46755
193.6000,8.66815,319.627,1.47314
193.5000,9.80121,320.619,1.48307
193.4000,9.94717,320.795,1.48484
193.3000,7.91878,320.991,1.4868
193.2000,8.80428,321.533,1.49221
193.1000,7.44459,322.29,1.49976
193.0000,8.02769,323.021,1.50703
192.9000,7.44136,323.646,1.51325
192.8000,10.1641,324.345,1.52018
192.7000,8.78102,325.139,1.52804
192.6000,8.99949,326.217,1.53869
192.5000,10.1064,326.716,1.5436
192.4000,11.1676,327.664,1.55293
192.3000,8.65668,328.295,1.55913
192.2000,10.234,328.52,1.56134
192.1000,8.52048,329.952,1.57535
192.0000,9.91465,330.538,1.58108
191.9000,8.86714,331.199,1.58752
191.8000,7.5302,332.224,1.59749
191.7000,8.68906,332.726,1.60236
191.6000,9.46188,333.903,1.61376
191.5000,8.97754,335.1,1.62533
191.4000,8.68332,335.876,1.6328
191.3000,8.29602,336.991,1.64353
191.2000,8.26025,338.381,1.65684
191.1000,8.70287,340.011,1.67241
191.0000,8.59094,341.329,1.68494
190.9000,7.54249,343.039,1.70114
190.8000,8.48809,344.917,1.71887
190.7000,9.29609,346.01,1.72914
190.6000,6.94623,347.63,1.74433
190.5000,8.02856,348.853,1.75574
190.4000,6.85239,350.09,1.76726
190.3000,9.84538,351.145,1.77707
190.2000,7.45107,352.182,1.78667
190.1000,9.12408,353.637,1.80011
190.0000,8.92659,354.721,1.81009

##### Extended Information
[Comments]
Sample name,class
Comment
User
Division
Company,Saint Mary's College

[Detailed Information]
Creation date,9/30/2021 3:58 PM

Data array type,Linear data array * 3
Horizontal axis,Wavelength [nm]
Vertical axis(1),CD [mdeg]
Vertical axis(2),HT [V]
Vertical axis(3),Abs
Start,290 nm
End,190 nm
Data interval,0.1 nm
Data points,1001    

[Measurement Information]
Instrument name,J-1500
Model name,J-1500
Serial No.,B051061638

Detector,PM-539
Detector S/N,B051061638
  Lock-in amp.,X mode
  HT volt,Auto

Accessory,PTC-517
Accessory S/N,B026561646
  Temperature,22.47 C
  Control sensor,Holder
  Monitor sensor,Holder

Measurement date,9/30/2021 3:57 PM

CD Overload detect,771
Photometric mode,CD, HT, Abs
Measure range,290 - 190 nm
Data pitch,0.1 nm
CD scale,20 mdeg/0.05 dOD
FL scale,20 mdeg/0.05 dOD
D.I.T.,0.125 sec
Bandwidth,1.00 nm
Start mode,Immediately
Scanning mode,Continuous
Scanning speed,50 nm/min
Baseline correction,None
Shutter control,Auto
No. of cycle,1/1
N2 Flowmeter,Manual


