TITLE,class
DATA TYPE,
ORIGIN,JASCO
OWNER,
DATE,21/09/30
TIME,16:51:11
SPECTROMETER/DATA SYSTEM,
LOCALE,1033
RESOLUTION,
DELTAX,-0.1
XUNITS,NANOMETERS
YUNITS,CD [mdeg]
Y2UNITS,HT [V]
Y3UNITS,ABSORBANCE
FIRSTX,  290.0000
LASTX,  190.0000
NPOINTS,    1001
FIRSTY,     1.37579
MAXY,    11.49590
MINY,    -3.49697
XYDATA
290.0000,1.37579,254.251,0.753136
289.9000,1.77147,254.221,0.752778
289.8000,1.67749,254.074,0.750987
289.7000,2.33714,254.105,0.751369
289.6000,1.50427,254.171,0.752164
289.5000,1.50654,254.152,0.751933
289.4000,2.54225,254.05,0.750699
289.3000,1.7423,254.165,0.752095
289.2000,1.1258,253.959,0.749599
289.1000,1.30397,254.01,0.750213
289.0000,0.998271,253.998,0.750071
288.9000,1.58578,254.083,0.751097
288.8000,0.682177,254.029,0.750441
288.7000,1.38387,253.995,0.750036
288.6000,1.76625,253.864,0.74844
288.5000,2.14657,254.103,0.751338
288.4000,1.38634,253.889,0.748739
288.3000,1.11492,253.76,0.74718
288.2000,1.84897,253.881,0.748646
288.1000,1.69958,253.872,0.74853
288.0000,2.62272,253.682,0.746225
287.9000,1.69198,253.714,0.746616
287.8000,2.48189,253.947,0.749442
287.7000,2.47146,254.053,0.750739
287.6000,1.54097,253.895,0.748815
287.5000,1.80144,253.814,0.747831
287.4000,1.37124,253.784,0.747466
287.3000,1.65217,253.877,0.7486
287.2000,1.23346,253.741,0.746949
287.1000,1.36103,253.629,0.745586
287.0000,0.861341,253.688,0.746305
286.9000,1.76093,253.861,0.7484
286.8000,1.36738,253.826,0.747975
286.7000,1.08536,253.747,0.747012
286.6000,1.06329,253.897,0.748834
286.5000,1.47023,253.976,0.749801
286.4000,0.757959,253.948,0.749457
286.3000,2.02162,253.697,0.746414
286.2000,1.43148,253.717,0.746658
286.1000,1.70132,253.834,0.748073
286.0000,2.1832,253.76,0.747171
285.9000,0.803466,253.741,0.746948
285.8000,2.18557,253.753,0.747088
285.7000,0.687304,253.549,0.744603
285.6000,1.8825,253.692,0.746344
285.5000,1.64103,253.721,0.746697
285.4000,1.62403,253.629,0.745578
285.3000,0.624469,253.691,0.74633
285.2000,1.30873,253.652,0.745867
285.1000,1.65579,253.703,0.746488
285.0000,1.9977,253.611,0.745366
284.9000,1.96309,253.906,0.748947
284.8000,1.81923,253.638,0.745697
284.7000,1.87738,253.612,0.745372
284.6000,1.688,253.746,0.747008
284.5000,1.89351,253.554,0.744673
284.4000,1.67834,253.676,0.746149
284.3000,1.7696,253.561,0.744757
284.2000,1.54092,253.598,0.745202
284.1000,1.60849,253.483,0.743802
284.0000,1.39682,253.604,0.745282
283.9000,1.35282,253.45,0.743401
283.8000,0.790766,253.734,0.746855
283.7000,2.03835,253.623,0.745507
283.6000,1.97833,253.664,0.74601
283.5000,0.960005,253.412,0.742948
283.4000,1.05457,253.425,0.743102
283.3000,1.00519,253.583,0.745025
283.2000,1.38293,253.555,0.744681
283.1000,1.40192,253.298,0.741557
283.0000,1.68505,253.316,0.741769
282.9000,1.26626,253.457,0.743494
282.8000,1.32772,253.514,0.744183
282.7000,0.710398,253.507,0.744098
282.6000,0.855725,253.512,0.744165
282.5000,0.923979,253.373,0.742471
282.4000,1.31569,253.775,0.74736
282.3000,1.50781,253.405,0.742862
282.2000,1.83915,253.607,0.745309
282.1000,1.8921,253.3,0.741577
282.0000,1.38857,253.269,0.741196
281.9000,0.901722,253.176,0.740071
281.8000,0.813758,253.163,0.739906
281.7000,2.10441,253.33,0.741942
281.6000,1.93861,253.28,0.741339
281.5000,0.808406,253.458,0.743505
281.4000,1.79798,253.287,0.741422
281.3000,1.26015,253.026,0.738241
281.2000,1.54623,253.397,0.742763
281.1000,1.7343,253.126,0.739462
281.0000,2.23388,253.016,0.738122
280.9000,2.22098,253.311,0.741717
280.8000,1.4613,253.137,0.739593
280.7000,1.29451,252.991,0.737814
280.6000,2.05925,253.291,0.741467
280.5000,0.837892,253.255,0.741026
280.4000,1.19137,252.913,0.736864
280.3000,0.876948,253.141,0.739639
280.2000,1.45888,253.286,0.741405
280.1000,2.34043,253.296,0.741534
280.0000,1.35211,253.225,0.740659
279.9000,1.79641,252.842,0.735997
279.8000,1.56386,253.253,0.741
279.7000,0.857007,252.951,0.73733
279.6000,1.26759,253.316,0.741771
279.5000,0.936764,253.168,0.739973
279.4000,0.587258,253.074,0.738824
279.3000,1.51899,253.104,0.739194
279.2000,0.865676,252.903,0.736748
279.1000,1.62983,252.952,0.737345
279.0000,0.850879,253.022,0.738187
278.9000,0.912219,253.1,0.739141
278.8000,1.4773,253.23,0.740721
278.7000,1.26055,252.892,0.736614
278.6000,1.88449,252.848,0.736076
278.5000,1.12803,252.912,0.736853
278.4000,1.3962,253.026,0.738237
278.3000,1.07378,253.006,0.737995
278.2000,1.35235,252.966,0.737512
278.1000,1.70762,253.002,0.737948
278.0000,0.638671,252.955,0.73738
277.9000,1.0202,252.878,0.736439
277.8000,1.45009,252.914,0.736881
277.7000,1.00163,252.946,0.737263
277.6000,1.65521,252.821,0.735737
277.5000,1.00016,253.1,0.73914
277.4000,1.78429,253.011,0.738055
277.3000,1.38391,252.98,0.737686
277.2000,0.702968,253.016,0.738118
277.1000,0.721656,252.753,0.734912
277.0000,0.70699,252.92,0.736952
276.9000,0.292153,252.869,0.736333
276.8000,0.839375,252.975,0.737614
276.7000,1.33499,252.807,0.735577
276.6000,1.09722,252.557,0.732519
276.5000,0.198491,252.815,0.73567
276.4000,1.27707,252.92,0.736945
276.3000,1.61338,252.953,0.737357
276.2000,1.1941,252.751,0.734894
276.1000,1.04683,252.773,0.735156
276.0000,1.33796,252.709,0.734381
275.9000,0.898562,252.956,0.737388
275.8000,1.38579,252.854,0.736142
275.7000,1.47522,252.918,0.736921
275.6000,0.75642,252.666,0.733851
275.5000,1.09167,252.558,0.732538
275.4000,0.936759,252.785,0.735305
275.3000,1.14574,252.622,0.733314
275.2000,0.745904,252.825,0.735794
275.1000,1.29982,252.903,0.736737
275.0000,0.596845,252.788,0.735339
274.9000,1.32917,252.631,0.733429
274.8000,1.36004,252.604,0.733096
274.7000,1.42162,252.754,0.734919
274.6000,1.00378,252.805,0.735547
274.5000,1.46781,252.593,0.732958
274.4000,1.31092,252.834,0.735906
274.3000,1.13199,252.551,0.732443
274.2000,0.864416,252.605,0.733111
274.1000,1.17159,252.571,0.732697
274.0000,1.6708,252.631,0.73343
273.9000,1.17019,252.678,0.734001
273.8000,1.23829,252.641,0.733544
273.7000,1.08295,252.562,0.73258
273.6000,1.01153,252.649,0.733641
273.5000,1.44288,252.667,0.733859
273.4000,0.949368,252.526,0.732144
273.3000,1.55087,252.65,0.733658
273.2000,1.37161,252.494,0.731754
273.1000,0.999016,252.56,0.732563
273.0000,1.05332,252.352,0.730016
272.9000,1.24469,252.492,0.731727
272.8000,0.658994,252.37,0.730241
272.7000,0.162882,252.544,0.732358
272.6000,1.03969,252.609,0.733161
272.5000,1.12766,252.576,0.732749
272.4000,0.912031,252.492,0.731724
272.3000,1.29444,252.62,0.733285
272.2000,0.643454,252.596,0.732995
272.1000,1.3261,252.446,0.731168
272.0000,1.25731,252.419,0.730843
271.9000,0.990515,252.538,0.732285
271.8000,0.207649,252.465,0.731398
271.7000,1.23496,252.429,0.730962
271.6000,1.09926,252.611,0.733179
271.5000,1.19114,252.524,0.732114
271.4000,1.24079,252.558,0.732531
271.3000,0.382113,252.556,0.732513
271.2000,1.11947,252.687,0.73411
271.1000,0.73994,252.501,0.73184
271.0000,1.12234,252.394,0.730537
270.9000,1.14698,252.637,0.733503
270.8000,0.758973,252.597,0.733011
270.7000,1.05158,252.595,0.73298
270.6000,0.966271,252.86,0.736219
270.5000,1.18807,252.645,0.733591
270.4000,0.688635,252.56,0.732559
270.3000,0.723651,252.741,0.734773
270.2000,0.643073,252.817,0.735689
270.1000,1.04152,252.286,0.729217
270.0000,0.830672,252.608,0.73314
269.9000,0.559722,252.6,0.733046
269.8000,1.48545,252.476,0.731531
269.7000,1.04934,252.738,0.734734
269.6000,1.03834,252.746,0.734824
269.5000,0.591115,252.633,0.733454
269.4000,0.923727,252.851,0.736111
269.3000,1.4017,252.69,0.73415
269.2000,1.51812,252.583,0.732843
269.1000,0.654476,252.684,0.734072
269.0000,0.692703,252.491,0.73172
268.9000,1.00762,252.665,0.733836
268.8000,1.14753,252.709,0.734371
268.7000,0.706581,252.496,0.731778
268.6000,1.28398,252.821,0.735737
268.5000,1.14143,252.646,0.733605
268.4000,1.2909,252.919,0.736936
268.3000,1.68024,252.55,0.732434
268.2000,0.194527,252.692,0.734174
268.1000,1.47006,252.634,0.733465
268.0000,0.612418,252.757,0.73496
267.9000,0.196395,252.726,0.734582
267.8000,1.11977,252.672,0.73392
267.7000,0.891743,252.742,0.734783
267.6000,0.53316,252.872,0.736362
267.5000,1.95461,252.771,0.735139
267.4000,0.720293,252.525,0.732135
267.3000,1.22381,252.478,0.731553
267.2000,0.610497,252.641,0.733543
267.1000,0.321819,252.574,0.732727
267.0000,0.604322,252.759,0.734984
266.9000,1.39654,252.692,0.734164
266.8000,0.848466,252.733,0.734671
266.7000,1.41239,252.815,0.735668
266.6000,1.26455,252.749,0.73487
266.5000,0.557917,252.932,0.737098
266.4000,1.04055,252.958,0.73741
266.3000,-0.32182,252.835,0.735913
266.2000,0.821684,252.774,0.735175
266.1000,0.722556,253.035,0.738351
266.0000,1.14459,252.875,0.7364
265.9000,1.41493,252.856,0.736168
265.8000,0.183999,252.793,0.735396
265.7000,0.729603,252.881,0.736477
265.6000,0.944268,253.156,0.739827
265.5000,1.27659,253.104,0.739194
265.4000,0.522497,252.968,0.73753
265.3000,0.898422,252.886,0.736532
265.2000,1.0892,253.05,0.738536
265.1000,1.08862,252.968,0.737529
265.0000,1.70569,252.828,0.735826
264.9000,1.31655,252.923,0.736983
264.8000,0.976859,253.219,0.740594
264.7000,0.39979,253.193,0.740274
264.6000,0.702137,253.108,0.739236
264.5000,0.997113,253.3,0.741574
264.4000,1.05813,253.14,0.739634
264.3000,0.870853,252.971,0.737568
264.2000,0.962617,253.187,0.740206
264.1000,1.35025,253.304,0.741622
264.0000,1.12464,252.877,0.736431
263.9000,0.99285,253.315,0.741764
263.8000,1.16349,253.201,0.740368
263.7000,0.912895,253.173,0.740037
263.6000,1.02609,253.257,0.741052
263.5000,0.56105,253.144,0.739678
263.4000,0.688745,253.167,0.739955
263.3000,0.323426,253.208,0.74046
263.2000,0.634767,253.3,0.741582
263.1000,0.433298,253.35,0.742183
263.0000,1.14061,253.318,0.741804
262.9000,0.715711,253.249,0.740958
262.8000,1.233,253.448,0.743386
262.7000,1.03454,253.435,0.743221
262.6000,1.2298,253.387,0.742638
262.5000,1.35158,253.58,0.744986
262.4000,0.639985,253.496,0.743969
262.3000,0.232604,253.424,0.743085
262.2000,0.226125,253.449,0.743395
262.1000,1.16171,253.363,0.742341
262.0000,1.08429,253.454,0.743447
261.9000,0.583271,253.412,0.742939
261.8000,0.544481,253.443,0.743315
261.7000,1.15006,253.572,0.744891
261.6000,1.81505,253.589,0.745099
261.5000,0.220164,253.598,0.745206
261.4000,0.906602,253.757,0.747142
261.3000,0.494996,253.775,0.74736
261.2000,1.64725,253.723,0.746725
261.1000,1.23202,253.801,0.747678
261.0000,0.809413,253.839,0.748139
260.9000,1.09781,253.846,0.748224
260.8000,1.17417,253.731,0.746828
260.7000,0.475456,253.854,0.748312
260.6000,0.754397,253.746,0.746999
260.5000,0.253737,253.881,0.748651
260.4000,1.20441,253.557,0.744701
260.3000,0.59695,253.819,0.747887
260.2000,0.534397,253.925,0.749181
260.1000,0.311277,253.921,0.749136
260.0000,0.0942806,253.879,0.748617
259.9000,1.12429,254.164,0.752084
259.8000,1.17023,254.11,0.751427
259.7000,0.300994,253.963,0.749647
259.6000,1.41901,254.183,0.752315
259.5000,1.33816,254.291,0.753624
259.4000,1.00724,254.166,0.752107
259.3000,1.32116,254.131,0.751687
259.2000,0.597265,254.062,0.750839
259.1000,0.915151,254.238,0.752979
259.0000,1.06098,254.182,0.752305
258.9000,0.398179,254.244,0.753059
258.8000,1.59258,254.296,0.753681
258.7000,1.10828,254.185,0.752343
258.6000,0.855473,254.536,0.756591
258.5000,1.39729,254.412,0.755098
258.4000,0.600018,254.497,0.756126
258.3000,0.284583,254.548,0.756743
258.2000,0.171144,254.561,0.756904
258.1000,1.09831,254.575,0.757075
258.0000,0.543085,254.676,0.758294
257.9000,0.401319,254.609,0.757488
257.8000,1.03698,254.557,0.756856
257.7000,0.579547,254.442,0.755455
257.6000,0.395687,254.48,0.755914
257.5000,0.689636,254.607,0.757454
257.4000,-0.28709,254.986,0.762053
257.3000,0.90387,255.143,0.763945
257.2000,1.22808,254.534,0.756571
257.1000,1.27305,254.927,0.76133
257.0000,1.14198,254.955,0.761669
256.9000,0.724043,254.833,0.760194
256.8000,0.534896,254.874,0.760696
256.7000,1.88927,255.059,0.762929
256.6000,1.10217,254.803,0.759838
256.5000,0.937925,254.893,0.760926
256.4000,0.802659,254.934,0.761414
256.3000,1.28214,255.063,0.762979
256.2000,0.0756101,255.026,0.762528
256.1000,0.842287,255.024,0.762507
256.0000,0.299671,254.922,0.761277
255.9000,0.862606,254.896,0.760958
255.8000,1.14511,255.167,0.764237
255.7000,1.42702,255.066,0.763012
255.6000,1.04691,255.279,0.765595
255.5000,1.33593,255.199,0.764631
255.4000,0.356981,255.187,0.764484
255.3000,0.438622,255.165,0.764212
255.2000,1.43821,255.19,0.76452
255.1000,0.496774,255.132,0.763812
255.0000,0.638432,255.177,0.764362
254.9000,0.627355,255.165,0.76422
254.8000,1.23642,255.202,0.764663
254.7000,1.11512,255.107,0.763514
254.6000,0.436323,255.303,0.76589
254.5000,0.686584,255.242,0.765152
254.4000,0.849304,255.215,0.764819
254.3000,0.74395,255.131,0.763801
254.2000,0.18008,255.42,0.767297
254.1000,0.663909,255.321,0.7661
254.0000,1.05053,255.382,0.766839
253.9000,1.14204,255.39,0.766937
253.8000,0.420126,255.499,0.768255
253.7000,1.2452,255.539,0.768736
253.6000,1.58654,255.437,0.767511
253.5000,1.01266,255.634,0.769887
253.4000,1.27023,255.565,0.769056
253.3000,0.602447,255.529,0.768613
253.2000,0.247213,255.746,0.771234
253.1000,1.16587,255.869,0.772731
253.0000,0.734746,255.693,0.770602
252.9000,0.464743,255.69,0.770567
252.8000,0.885477,255.719,0.770914
252.7000,0.802208,255.974,0.773987
252.6000,1.64609,255.734,0.771097
252.5000,0.758829,255.795,0.771826
252.4000,0.483788,255.892,0.773005
252.3000,0.438418,255.722,0.770952
252.2000,1.18059,255.764,0.771454
252.1000,1.52476,255.946,0.773659
252.0000,0.602493,255.903,0.77314
251.9000,-0.234854,256.065,0.775089
251.8000,1.70477,255.685,0.770508
251.7000,1.34776,256.093,0.775433
251.6000,1.11296,255.888,0.772956
251.5000,0.216318,255.97,0.773941
251.4000,1.00492,255.928,0.77344
251.3000,0.847521,256.263,0.777483
251.2000,0.935446,255.902,0.773124
251.1000,1.08796,256.014,0.77447
251.0000,0.0396474,256.072,0.775171
250.9000,0.375705,255.993,0.774223
250.8000,0.76917,256.114,0.775687
250.7000,1.4153,255.865,0.772675
250.6000,1.18245,256.352,0.778552
250.5000,0.99304,255.954,0.773746
250.4000,1.17282,256.147,0.776085
250.3000,0.295724,256.033,0.774704
250.2000,0.917519,256.131,0.775891
250.1000,1.11558,256.245,0.777263
250.0000,1.12259,256.198,0.776694
249.9000,0.80175,256.157,0.776205
249.8000,0.442961,256.272,0.777593
249.7000,1.12332,256.175,0.776418
249.6000,0.257315,256.14,0.775997
249.5000,2.08351,256.033,0.7747
249.4000,0.942022,256.009,0.774416
249.3000,1.02069,255.977,0.774024
249.2000,1.49951,256.068,0.775128
249.1000,0.770463,255.94,0.773586
249.0000,0.621763,255.787,0.771741
248.9000,1.0521,255.892,0.773003
248.8000,1.22769,256.345,0.778467
248.7000,0.862183,256.126,0.775826
248.6000,1.60846,255.931,0.773477
248.5000,0.807851,256.059,0.775021
248.4000,-0.226655,255.928,0.773442
248.3000,0.177392,256.149,0.776099
248.2000,1.087,255.892,0.773002
248.1000,0.550173,256.129,0.775864
248.0000,1.47367,256.145,0.776056
247.9000,0.154482,256.096,0.775469
247.8000,0.262752,256.191,0.776614
247.7000,0.289025,255.974,0.773992
247.6000,0.80882,256.141,0.776003
247.5000,0.96986,256.165,0.776296
247.4000,0.958846,256.324,0.778219
247.3000,0.958688,256.318,0.778146
247.2000,0.508684,256.156,0.77619
247.1000,0.916586,256.349,0.778521
247.0000,0.698077,256.434,0.779535
246.9000,1.38165,256.267,0.777522
246.8000,0.724915,256.545,0.780884
246.7000,0.946667,256.605,0.781606
246.6000,0.357366,256.467,0.779941
246.5000,0.855231,256.333,0.778322
246.4000,1.25992,256.757,0.783431
246.3000,0.68237,256.703,0.78278
246.2000,1.285,256.732,0.783132
246.1000,1.28038,256.55,0.780933
246.0000,1.15494,256.549,0.780922
245.9000,0.559921,256.488,0.780194
245.8000,1.41706,256.578,0.781273
245.7000,0.901023,256.881,0.784921
245.6000,1.24448,256.452,0.779754
245.5000,0.552037,256.597,0.781504
245.4000,1.33478,256.493,0.780252
245.3000,0.948976,256.467,0.779941
245.2000,0.556666,256.438,0.779585
245.1000,1.38724,256.607,0.781627
245.0000,0.807211,256.434,0.779538
244.9000,0.622791,256.588,0.781397
244.8000,0.641141,256.643,0.782059
244.7000,1.39912,256.545,0.780875
244.6000,1.13323,256.637,0.781985
244.5000,0.944367,256.821,0.784199
244.4000,0.821624,256.97,0.785992
244.3000,1.00577,256.825,0.784254
244.2000,1.44558,256.658,0.782238
244.1000,1.32201,256.791,0.783843
244.0000,0.594776,257.106,0.787626
243.9000,1.2299,257.053,0.78699
243.8000,0.941094,256.971,0.786005
243.7000,1.38415,256.87,0.784794
243.6000,0.714346,257.076,0.787268
243.5000,1.206,256.783,0.783748
243.4000,1.20969,256.984,0.786165
243.3000,1.34553,257.076,0.787272
243.2000,0.180602,256.857,0.784635
243.1000,0.299671,257.009,0.786466
243.0000,0.616006,256.981,0.78613
242.9000,1.1203,257.119,0.787782
242.8000,0.774809,257.163,0.788321
242.7000,1.4656,256.99,0.786236
242.6000,-0.65061,257.284,0.789768
242.5000,0.171044,257.247,0.789325
242.4000,0.574958,257.239,0.789235
242.3000,0.327143,257.118,0.787773
242.2000,1.10018,257.364,0.790736
242.1000,0.682484,257.264,0.789535
242.0000,0.483131,257.374,0.790848
241.9000,0.664643,257.425,0.791463
241.8000,0.564195,257.491,0.792255
241.7000,0.627971,257.349,0.790557
241.6000,0.656549,257.39,0.791047
241.5000,-0.284022,257.506,0.792433
241.4000,0.994076,257.595,0.793511
241.3000,0.0484881,257.663,0.794325
241.2000,0.796796,257.564,0.793139
241.1000,1.28079,257.659,0.794277
241.0000,0.362305,257.608,0.79366
240.9000,0.385781,257.489,0.792231
240.8000,1.05694,257.777,0.795687
240.7000,0.415896,257.709,0.794873
240.6000,-0.00595842,257.506,0.792436
240.5000,1.00074,257.72,0.795008
240.4000,0.289096,257.738,0.795225
240.3000,0.69982,257.722,0.795027
240.2000,0.0933527,257.877,0.796887
240.1000,1.10833,258.018,0.798587
240.0000,0.609118,258.287,0.801801
239.9000,0.89938,257.935,0.797591
239.8000,0.971591,258.037,0.798806
239.7000,0.049021,258.164,0.800328
239.6000,0.259147,257.848,0.79654
239.5000,1.64033,258.1,0.79957
239.4000,1.00945,258.379,0.802904
239.3000,0.428712,258.403,0.803195
239.2000,0.0431301,258.433,0.803555
239.1000,-0.248987,258.691,0.806647
239.0000,0.234303,258.516,0.804544
238.9000,-0.187737,258.801,0.807961
238.8000,0.652331,258.773,0.80762
238.7000,0.36052,258.813,0.808098
238.6000,0.201313,258.964,0.809908
238.5000,0.21014,258.723,0.807028
238.4000,0.6261,258.962,0.809882
238.3000,0.279761,258.953,0.809774
238.2000,0.266223,258.986,0.810164
238.1000,-0.534907,259.077,0.811255
238.0000,0.883512,259.163,0.812288
237.9000,0.436858,259.671,0.818348
237.8000,1.07882,259.481,0.816083
237.7000,-0.266949,259.355,0.814578
237.6000,-0.445411,259.492,0.816213
237.5000,-0.410696,259.464,0.815874
237.4000,0.412575,259.411,0.815247
237.3000,0.209721,259.685,0.818518
237.2000,0.867342,259.553,0.816938
237.1000,1.0131,259.705,0.818751
237.0000,0.695422,259.563,0.817054
236.9000,-0.0807426,259.865,0.820657
236.8000,0.562884,259.673,0.818378
236.7000,0.251108,260.048,0.822842
236.6000,-0.265283,259.734,0.819097
236.5000,0.089505,259.983,0.822063
236.4000,-0.699708,260.27,0.825491
236.3000,-0.151195,260.437,0.827476
236.2000,0.403294,260.193,0.82457
236.1000,0.180838,260.336,0.826277
236.0000,-0.0919025,260.329,0.826189
235.9000,-0.32955,260.308,0.82594
235.8000,0.518253,260.568,0.829026
235.7000,-0.212404,260.624,0.829697
235.6000,0.00730654,260.456,0.827696
235.5000,-0.244911,260.788,0.83165
235.4000,-0.68644,260.856,0.832457
235.3000,-0.0784101,260.919,0.833201
235.2000,-0.84954,260.814,0.83196
235.1000,-0.892828,260.804,0.831833
235.0000,-0.266282,260.889,0.83285
234.9000,0.234647,260.968,0.833786
234.8000,-0.519938,260.904,0.833022
234.7000,-0.524385,261.029,0.834513
234.6000,-0.551305,261.37,0.83856
234.5000,0.28858,261.352,0.838349
234.4000,-0.659157,261.154,0.835998
234.3000,-0.062036,261.548,0.840669
234.2000,-0.298974,261.657,0.841964
234.1000,-0.376166,261.692,0.842373
234.0000,-0.140597,261.532,0.840475
233.9000,-0.599299,261.726,0.842783
233.8000,-0.309467,261.852,0.844269
233.7000,-0.277304,262.049,0.8466
233.6000,-0.600428,262.141,0.847688
233.5000,-0.155268,262.238,0.848842
233.4000,-0.299135,261.981,0.845793
233.3000,-1.19767,262.27,0.849224
233.2000,-0.308251,262.437,0.851194
233.1000,-0.555745,262.56,0.852642
233.0000,-0.851549,262.373,0.850439
232.9000,-1.07606,262.418,0.850964
232.8000,-1.50931,262.504,0.851986
232.7000,-0.766216,262.795,0.855428
232.6000,-1.17707,262.649,0.853698
232.5000,-0.175879,262.601,0.853127
232.4000,-0.565317,262.813,0.855639
232.3000,-1.0629,263.066,0.858628
232.2000,-0.249709,262.845,0.856018
232.1000,-0.712855,263.074,0.858718
232.0000,-0.820105,263.01,0.857963
231.9000,-0.147147,263.464,0.863317
231.8000,-1.18347,263.495,0.863681
231.7000,-1.83779,263.545,0.864266
231.6000,-1.31567,263.614,0.865085
231.5000,-0.789296,263.846,0.867813
231.4000,-1.55385,263.72,0.86633
231.3000,-1.1054,263.782,0.867065
231.2000,-0.371189,263.796,0.867224
231.1000,-0.84057,263.936,0.868874
231.0000,-1.14319,264.057,0.870296
230.9000,-1.59126,264.183,0.871782
230.8000,-0.798779,263.991,0.86952
230.7000,-0.112315,263.963,0.869191
230.6000,-1.3024,264.113,0.870951
230.5000,-1.37846,263.848,0.867841
230.4000,-1.45754,264.205,0.872032
230.3000,-1.40234,264.214,0.872146
230.2000,-1.35075,264.296,0.873106
230.1000,-1.38017,263.895,0.868394
230.0000,-1.91482,264.173,0.871664
229.9000,-2.03888,263.745,0.86663
229.8000,-0.858553,264.136,0.871225
229.7000,-1.26184,264.034,0.870031
229.6000,-2.31429,264.198,0.871958
229.5000,-1.29575,264.178,0.871714
229.4000,-1.11953,264.021,0.869876
229.3000,-1.2377,264.381,0.874102
229.2000,-1.3588,264.405,0.874382
229.1000,-0.741456,264.552,0.87612
229.0000,-2.22465,265.146,0.883086
228.9000,-1.60806,265.137,0.88298
228.8000,-1.4382,265.323,0.885153
228.7000,-1.23447,265.475,0.886935
228.6000,-2.32612,265.489,0.8871
228.5000,-1.5287,265.59,0.88829
228.4000,-2.13189,265.505,0.887293
228.3000,-1.3704,265.784,0.890558
228.2000,-1.28264,265.863,0.891481
228.1000,-1.90293,266.009,0.893186
228.0000,-1.90815,266.012,0.893219
227.9000,-1.75768,266.067,0.893862
227.8000,-1.25192,266.455,0.898391
227.7000,-1.08403,266.496,0.898875
227.6000,-2.29362,266.774,0.902119
227.5000,-1.40417,266.554,0.899552
227.4000,-0.866596,266.628,0.900415
227.3000,-0.949906,266.922,0.903846
227.2000,-1.4916,266.884,0.903397
227.1000,-2.64122,266.832,0.902792
227.0000,-2.02864,267.21,0.907203
226.9000,-1.70686,267.035,0.905162
226.8000,-1.93576,267.31,0.908363
226.7000,-2.33566,267.401,0.909422
226.6000,-2.47413,267.447,0.909962
226.5000,-1.4273,267.423,0.909678
226.4000,-2.13184,267.406,0.90948
226.3000,-2.86113,267.601,0.91175
226.2000,-2.59727,267.593,0.91166
226.1000,-2.13763,267.573,0.91142
226.0000,-1.54384,267.69,0.912784
225.9000,-3.36454,267.771,0.913731
225.8000,-2.05521,267.849,0.914634
225.7000,-2.2923,268.245,0.919232
225.6000,-1.37866,268.281,0.919656
225.5000,-2.51858,268.267,0.919492
225.4000,-3.31687,268.253,0.919328
225.3000,-2.45373,268.447,0.921585
225.2000,-2.5937,268.589,0.923231
225.1000,-1.52923,268.878,0.926579
225.0000,-1.68594,268.803,0.925712
224.9000,-1.51008,268.665,0.92411
224.8000,-1.53457,268.98,0.927756
224.7000,-2.60749,269.178,0.930049
224.6000,-1.80779,269.113,0.929296
224.5000,-2.47672,269.161,0.929854
224.4000,-2.04532,269.241,0.930782
224.3000,-3.49697,269.289,0.931335
224.2000,-2.22666,269.465,0.933371
224.1000,-1.68959,269.295,0.931401
224.0000,-2.55211,269.479,0.933531
223.9000,-2.62224,269.537,0.934209
223.8000,-2.71755,269.741,0.93656
223.7000,-2.38846,269.742,0.936569
223.6000,-2.28137,269.844,0.937752
223.5000,-1.96723,269.919,0.938624
223.4000,-2.52887,270.092,0.940611
223.3000,-2.7372,270.259,0.942547
223.2000,-3.07201,270.05,0.940129
223.1000,-3.15811,270.175,0.941576
223.0000,-1.96423,270.25,0.942435
222.9000,-2.10986,270.248,0.942417
222.8000,-2.13869,270.596,0.946434
222.7000,-3.09858,270.524,0.945598
222.6000,-2.07317,270.609,0.946584
222.5000,-2.56759,271.031,0.951439
222.4000,-3.20849,271.013,0.951238
222.3000,-2.65703,270.97,0.950738
222.2000,-3.03824,271.098,0.95221
222.1000,-3.38975,271.29,0.954419
222.0000,-2.22496,271.292,0.954441
221.9000,-2.48436,271.298,0.954507
221.8000,-1.67562,271.239,0.953834
221.7000,-1.56935,271.186,0.953221
221.6000,-2.09883,271.418,0.955893
221.5000,-1.81617,271.622,0.958235
221.4000,-2.58203,271.38,0.955453
221.3000,-2.48146,271.465,0.956433
221.2000,-2.27527,271.822,0.960531
221.1000,-2.68144,271.807,0.960362
221.0000,-1.84473,271.776,0.960005
220.9000,-1.8216,271.908,0.961517
220.8000,-1.71095,271.932,0.961794
220.7000,-2.66476,271.943,0.961918
220.6000,-2.51618,272.235,0.965272
220.5000,-2.23181,272.353,0.966629
220.4000,-2.7969,272.354,0.966635
220.3000,-2.36047,272.472,0.967992
220.2000,-2.18995,272.465,0.967906
220.1000,-1.59182,272.424,0.967442
220.0000,-2.12419,272.628,0.969781
219.9000,-2.6291,272.554,0.968935
219.8000,-3.11381,272.471,0.967979
219.7000,-2.43815,272.698,0.970574
219.6000,-2.37667,272.86,0.972435
219.5000,-2.3978,272.71,0.970711
219.4000,-2.97672,272.775,0.971456
219.3000,-2.61398,273.062,0.974747
219.2000,-1.64152,272.956,0.973528
219.1000,-2.47272,273.04,0.974498
219.0000,-2.44244,273.074,0.974889
218.9000,-3.46834,273.3,0.977469
218.8000,-2.32352,273.113,0.975334
218.7000,-2.79511,273.315,0.977639
218.6000,-1.78662,273.417,0.978802
218.5000,-2.17125,273.363,0.978185
218.4000,-3.26929,273.38,0.978378
218.3000,-1.54683,273.507,0.979831
218.2000,-1.99932,273.645,0.981409
218.1000,-1.78301,273.675,0.981747
218.0000,-2.68523,273.8,0.983184
217.9000,-3.03495,273.952,0.984915
217.8000,-1.39312,274.189,0.98762
217.7000,-2.74113,274.069,0.986245
217.6000,-2.62286,274.12,0.986829
217.5000,-2.26063,273.981,0.985245
217.4000,-1.84464,274.607,0.992383
217.3000,-1.35823,274.529,0.991492
217.2000,-1.99182,274.652,0.992892
217.1000,-3.08329,274.431,0.990375
217.0000,-1.74806,274.668,0.993074
216.9000,-2.43957,274.791,0.994472
216.8000,-2.05781,275.193,0.999046
216.7000,-2.63007,275.21,0.999237
216.6000,-2.51914,275.062,0.997557
216.5000,-3.01516,275.059,0.997515
216.4000,-1.4441,275.182,0.998922
216.3000,-2.19814,275.199,0.999116
216.2000,-1.09209,275.337,1.00068
216.1000,-1.23575,275.246,0.999651
216.0000,-1.26636,275.448,1.00195
215.9000,-2.35059,275.453,1.002
215.8000,-2.41844,275.418,1.0016
215.7000,-1.74135,275.6,1.00366
215.6000,-2.62335,275.785,1.00576
215.5000,-1.73153,276.016,1.00838
215.4000,-2.5716,275.813,1.00608
215.3000,-1.31073,276.005,1.00826
215.2000,-1.70805,275.968,1.00785
215.1000,-2.51658,276.132,1.0097
215.0000,-1.17882,275.997,1.00817
214.9000,-2.05942,276.083,1.00915
214.8000,-2.25822,276.39,1.01263
214.7000,-1.88154,276.221,1.01071
214.6000,-2.04165,276.501,1.01388
214.5000,-2.16024,276.569,1.01465
214.4000,-1.63604,276.646,1.01553
214.3000,-3.08306,276.699,1.01613
214.2000,-2.34663,276.709,1.01623
214.1000,-1.8455,276.709,1.01624
214.0000,-2.45664,276.737,1.01655
213.9000,-1.93426,276.797,1.01723
213.8000,-1.65482,276.953,1.01899
213.7000,-1.50888,277.051,1.0201
213.6000,-2.57174,276.893,1.01831
213.5000,-2.03866,277.055,1.02015
213.4000,-2.45651,277.169,1.02144
213.3000,-2.74828,277.02,1.01975
213.2000,-2.63134,277.226,1.02208
213.1000,-2.15928,277.44,1.0245
213.0000,-2.5723,277.165,1.02139
212.9000,-2.6998,277.476,1.02491
212.8000,-2.25667,277.546,1.0257
212.7000,-1.27458,277.594,1.02624
212.6000,-2.68885,277.737,1.02785
212.5000,-2.48866,277.873,1.02938
212.4000,-2.30453,278.207,1.03314
212.3000,-2.85061,277.996,1.03076
212.2000,-2.1397,278.202,1.03309
212.1000,-1.49083,278.308,1.03428
212.0000,-2.57922,278.41,1.03544
211.9000,-2.17593,278.649,1.03812
211.8000,-2.07523,278.685,1.03853
211.7000,-1.93017,278.649,1.03812
211.6000,-2.14748,278.918,1.04114
211.5000,-2.20823,278.752,1.03927
211.4000,-2.29039,278.822,1.04007
211.3000,-2.13484,278.979,1.04183
211.2000,-1.89336,278.925,1.04122
211.1000,-1.76248,279.232,1.04468
211.0000,-2.4844,279.484,1.0475
210.9000,-2.31563,279.681,1.04971
210.8000,-1.45694,279.346,1.04595
210.7000,-2.10264,279.41,1.04667
210.6000,-2.40705,279.996,1.05324
210.5000,-2.29617,279.793,1.05097
210.4000,-2.85957,279.86,1.05172
210.3000,-2.35758,280.029,1.05361
210.2000,-2.05323,280.009,1.05339
210.1000,-2.28772,280.188,1.05539
210.0000,-1.54633,280.048,1.05382
209.9000,-3.09708,280.105,1.05446
209.8000,-2.04726,280.631,1.06035
209.7000,-1.1177,280.483,1.05869
209.6000,-2.59229,280.699,1.06111
209.5000,-2.54596,280.85,1.0628
209.4000,-1.5122,281.168,1.06635
209.3000,-3.23864,281.296,1.06777
209.2000,-3.42548,281.282,1.06762
209.1000,-2.98597,281.303,1.06786
209.0000,-2.66956,281.478,1.06981
208.9000,-3.04773,281.536,1.07046
208.8000,-2.92536,281.593,1.07109
208.7000,-1.99908,281.847,1.07392
208.6000,-2.1407,281.914,1.07467
208.5000,-2.42986,282.011,1.07575
208.4000,-1.50784,282.07,1.07641
208.3000,-2.70892,282.156,1.07737
208.2000,-2.76944,282.174,1.07757
208.1000,-2.15992,282.533,1.08156
208.0000,-2.66103,282.795,1.08447
207.9000,-2.36598,282.742,1.08388
207.8000,-2.92047,283.227,1.08927
207.7000,-2.30947,283.399,1.09117
207.6000,-2.2017,283.325,1.09036
207.5000,-0.650814,283.42,1.0914
207.4000,-3.23463,283.775,1.09534
207.3000,-2.09485,283.704,1.09455
207.2000,-2.57067,283.926,1.09701
207.1000,-2.1371,284.167,1.09969
207.0000,-1.92749,284.004,1.09788
206.9000,-0.789316,284.075,1.09867
206.8000,-1.97153,284.495,1.10331
206.7000,-1.10406,284.478,1.10312
206.6000,-1.92598,284.588,1.10434
206.5000,-1.2406,284.727,1.10588
206.4000,-0.81868,284.984,1.10872
206.3000,-2.16203,285.233,1.11146
206.2000,-1.50062,285.442,1.11376
206.1000,-0.819854,285.479,1.11418
206.0000,-1.8579,285.748,1.11714
205.9000,-1.22594,285.832,1.11807
205.8000,-1.18621,286.029,1.12023
205.7000,-2.15759,286.092,1.12092
205.6000,-2.32862,286.36,1.12387
205.5000,-1.06698,286.461,1.12499
205.4000,-1.24475,286.865,1.12943
205.3000,-1.0254,286.731,1.12796
205.2000,-0.684292,287.216,1.13327
205.1000,-0.809286,287.203,1.13313
205.0000,-0.451665,287.491,1.13629
204.9000,-0.289414,287.875,1.14049
204.8000,-0.237861,288.085,1.14279
204.7000,-0.174476,287.988,1.14173
204.6000,-0.726641,288.276,1.14488
204.5000,-0.323405,288.411,1.14636
204.4000,-0.116948,288.482,1.14714
204.3000,-0.580732,289.035,1.15318
204.2000,-0.646901,289.235,1.15535
204.1000,0.712254,289.148,1.15441
204.0000,0.480627,289.399,1.15714
203.9000,-0.233244,289.617,1.15952
203.8000,0.967948,289.914,1.16275
203.7000,-0.106191,290.331,1.16729
203.6000,0.76483,290.438,1.16845
203.5000,0.605819,290.412,1.16817
203.4000,0.352278,290.826,1.17267
203.3000,0.107561,291.115,1.1758
203.2000,1.06681,291.079,1.17542
203.1000,0.721209,291.24,1.17716
203.0000,-0.0949254,291.642,1.18152
202.9000,1.33505,291.933,1.18467
202.8000,1.4648,291.924,1.18456
202.7000,2.13543,292.031,1.18572
202.6000,0.283786,292.431,1.19005
202.5000,1.58445,292.683,1.19277
202.4000,2.20416,292.82,1.19425
202.3000,1.5923,293.05,1.19673
202.2000,1.44328,293.446,1.201
202.1000,2.4278,293.551,1.20213
202.0000,1.92385,294.156,1.20865
201.9000,2.9033,294.362,1.21086
201.8000,3.47503,294.432,1.21161
201.7000,2.99066,294.756,1.21509
201.6000,1.98667,295.323,1.22117
201.5000,3.26374,295.381,1.2218
201.4000,2.89796,295.878,1.22711
201.3000,3.17488,296.17,1.23024
201.2000,3.09802,296.401,1.2327
201.1000,4.12613,296.401,1.2327
201.0000,2.22777,296.853,1.23753
200.9000,3.03002,297.115,1.24033
200.8000,4.02155,297.301,1.24231
200.7000,4.88479,297.559,1.24506
200.6000,4.22566,297.549,1.24495
200.5000,3.44352,297.967,1.2494
200.4000,3.94055,298.294,1.25288
200.3000,2.65613,298.562,1.25572
200.2000,2.8495,299.192,1.26241
200.1000,3.47301,299.264,1.26317
200.0000,3.80688,299.497,1.26564
199.9000,3.80917,299.623,1.26697
199.8000,5.21406,300.07,1.27171
199.7000,5.35251,300.317,1.27432
199.6000,5.93879,300.578,1.27708
199.5000,5.04079,300.608,1.27739
199.4000,6.01304,300.975,1.28126
199.3000,5.46643,301.076,1.28234
199.2000,6.5954,301.281,1.2845
199.1000,4.91135,301.692,1.28882
199.0000,5.48205,301.762,1.28956
198.9000,6.17535,302.211,1.29429
198.8000,4.58922,302.281,1.29502
198.7000,6.7777,302.61,1.29848
198.6000,6.68751,302.861,1.30111
198.5000,6.56846,303.01,1.30267
198.4000,5.21915,303.448,1.30727
198.3000,6.5283,303.827,1.31123
198.2000,6.81538,303.782,1.31077
198.1000,8.3109,304.014,1.31319
198.0000,6.1568,304.187,1.315
197.9000,8.02917,304.774,1.32114
197.8000,6.8913,304.901,1.32246
197.7000,5.55305,304.873,1.32217
197.6000,6.53429,305.336,1.32699
197.5000,7.66671,305.476,1.32845
197.4000,5.85996,305.948,1.33337
197.3000,6.65838,306.085,1.3348
197.2000,8.53114,306.248,1.33649
197.1000,7.9561,306.59,1.34005
197.0000,6.01066,307.005,1.34436
196.9000,8.76532,307.196,1.34634
196.8000,8.67211,307.579,1.35031
196.7000,8.12201,307.7,1.35156
196.6000,7.69361,308.164,1.35636
196.5000,7.81007,308.367,1.35847
196.4000,6.97623,309.083,1.36585
196.3000,8.4884,309.306,1.36815
196.2000,8.06052,309.438,1.36952
196.1000,7.94914,309.98,1.3751
196.0000,8.58114,310.134,1.37669
195.9000,9.31871,310.725,1.38276
195.8000,8.34089,311.182,1.38745
195.7000,8.33787,311.397,1.38966
195.6000,9.52379,311.712,1.39289
195.5000,9.07963,312.123,1.39709
195.4000,8.43099,312.568,1.40165
195.3000,7.86269,312.676,1.40275
195.2000,9.1894,312.999,1.40605
195.1000,9.16066,313.081,1.40688
195.0000,9.51393,313.777,1.41398
194.9000,9.08575,313.989,1.41615
194.8000,9.59582,314.283,1.41914
194.7000,9.74722,315.011,1.42654
194.6000,8.85325,314.951,1.42592
194.5000,9.33439,315.558,1.43209
194.4000,9.29706,315.876,1.43532
194.3000,9.85993,316.444,1.44106
194.2000,7.78643,317.07,1.44739
194.1000,8.86697,317.64,1.45314
194.0000,9.7551,318.246,1.45925
193.9000,8.74322,318.844,1.46527
193.8000,9.82877,319.394,1.47079
193.7000,10.614,320.443,1.48131
193.6000,9.33575,321.12,1.48809
193.5000,9.52883,321.336,1.49024
193.4000,9.32468,321.69,1.49377
193.3000,9.15329,322.065,1.49752
193.2000,9.32202,322.718,1.50402
193.1000,11.063,323.455,1.51135
193.0000,8.35503,324.016,1.51692
192.9000,10.5311,324.724,1.52393
192.8000,10.932,325.526,1.53186
192.7000,9.09649,325.997,1.53652
192.6000,9.5411,327.254,1.54891
192.5000,9.98154,327.944,1.55569
192.4000,8.96948,329.092,1.56694
192.3000,8.33117,329.685,1.57275
192.2000,9.96425,330.508,1.58078
192.1000,9.67394,331.553,1.59096
192.0000,10.5195,331.77,1.59307
191.9000,10.4029,333.094,1.60593
191.8000,10.2047,333.608,1.61091
191.7000,10.1172,334.575,1.62026
191.6000,10.152,335.369,1.62792
191.5000,11.4959,336.458,1.6384
191.4000,9.6425,337.724,1.65056
191.3000,8.91806,338.744,1.66031
191.2000,9.25549,339.575,1.66825
191.1000,9.20424,341.316,1.68482
191.0000,7.37513,342.717,1.6981
190.9000,10.581,344.364,1.71366
190.8000,9.57675,346.013,1.72917
190.7000,8.51714,347.297,1.7412
190.6000,9.07594,348.738,1.75467
190.5000,7.75723,349.877,1.76528
190.4000,8.74555,351.625,1.78151
190.3000,9.80385,352.699,1.79145
190.2000,8.91208,353.844,1.80201
190.1000,9.42075,355.479,1.81705
190.0000,8.08215,356.882,1.82991

##### Extended Information
[Comments]
Sample name,class
Comment
User
Division
Company,Saint Mary's College

[Detailed Information]
Creation date,9/30/2021 3:51 PM

Data array type,Linear data array * 3
Horizontal axis,Wavelength [nm]
Vertical axis(1),CD [mdeg]
Vertical axis(2),HT [V]
Vertical axis(3),Abs
Start,290 nm
End,190 nm
Data interval,0.1 nm
Data points,1001    

[Measurement Information]
Instrument name,J-1500
Model name,J-1500
Serial No.,B051061638

Detector,PM-539
Detector S/N,B051061638
  Lock-in amp.,X mode
  HT volt,Auto

Accessory,PTC-517
Accessory S/N,B026561646
  Temperature,22.39 C
  Control sensor,Holder
  Monitor sensor,Holder

Measurement date,9/30/2021 3:50 PM

CD Overload detect,779
Photometric mode,CD, HT, Abs
Measure range,290 - 190 nm
Data pitch,0.1 nm
CD scale,20 mdeg/0.05 dOD
FL scale,20 mdeg/0.05 dOD
D.I.T.,0.125 sec
Bandwidth,1.00 nm
Start mode,Immediately
Scanning mode,Continuous
Scanning speed,50 nm/min
Baseline correction,None
Shutter control,Auto
No. of cycle,1/1
N2 Flowmeter,Manual


