TITLE,class
DATA TYPE,
ORIGIN,JASCO
OWNER,
DATE,21/09/30
TIME,17:03:18
SPECTROMETER/DATA SYSTEM,
LOCALE,1033
RESOLUTION,
DELTAX,-0.1
XUNITS,NANOMETERS
YUNITS,CD [mdeg]
Y2UNITS,HT [V]
Y3UNITS,ABSORBANCE
FIRSTX,  290.0000
LASTX,  190.0000
NPOINTS,    1001
FIRSTY,     1.81853
MAXY,    11.20769
MINY,    -3.85123
XYDATA
290.0000,1.81853,253.887,0.748723
289.9000,1.77524,253.9,0.748873
289.8000,0.82401,253.986,0.749917
289.7000,1.58741,254.006,0.750164
289.6000,1.23615,254.101,0.751318
289.5000,0.88812,254.066,0.750889
289.4000,1.42826,253.825,0.747967
289.3000,1.62079,253.854,0.748318
289.2000,1.3948,253.842,0.748168
289.1000,0.387448,253.877,0.748601
289.0000,1.44118,254.052,0.750718
288.9000,1.5341,253.952,0.749506
288.8000,0.925797,253.788,0.747515
288.7000,0.854426,253.722,0.746715
288.6000,1.35396,253.963,0.749643
288.5000,1.88437,253.868,0.748485
288.4000,1.61896,253.986,0.749925
288.3000,0.882669,253.949,0.749469
288.2000,1.13032,253.745,0.746993
288.1000,1.49928,253.513,0.744177
288.0000,1.39265,254.029,0.75044
287.9000,1.36779,253.878,0.748605
287.8000,1.04817,253.877,0.748597
287.7000,1.34166,253.68,0.746208
287.6000,0.691638,253.91,0.748999
287.5000,0.874634,253.3,0.741581
287.4000,0.55985,253.813,0.747815
287.3000,1.57662,253.598,0.745209
287.2000,0.832992,253.734,0.746855
287.1000,1.79873,253.765,0.747231
287.0000,1.53523,253.454,0.743459
286.9000,1.2954,253.389,0.742666
286.8000,1.00614,253.606,0.745306
286.7000,1.86033,253.766,0.747243
286.6000,1.19499,253.629,0.745585
286.5000,1.21958,253.389,0.742661
286.4000,1.40027,253.64,0.745721
286.3000,1.40006,253.401,0.742806
286.2000,0.840985,253.56,0.744737
286.1000,1.39104,253.739,0.746924
286.0000,1.07346,253.78,0.747422
285.9000,1.46037,253.823,0.747943
285.8000,1.32688,253.597,0.74519
285.7000,1.2204,253.778,0.74739
285.6000,0.742841,253.952,0.749506
285.5000,0.930347,253.761,0.74719
285.4000,1.3441,253.579,0.744973
285.3000,0.972082,253.943,0.749396
285.2000,1.50371,253.336,0.742023
285.1000,1.36791,253.365,0.742372
285.0000,0.409949,253.017,0.738137
284.9000,1.26507,253.315,0.74176
284.8000,1.10352,253.557,0.74471
284.7000,1.30227,253.718,0.74666
284.6000,1.5062,253.106,0.739213
284.5000,1.21518,253.183,0.740157
284.4000,1.41158,253.422,0.743069
284.3000,1.19453,253.46,0.743529
284.2000,1.12359,253.484,0.743817
284.1000,1.31783,253.77,0.747297
284.0000,0.987779,253.548,0.744591
283.9000,0.936461,253.447,0.743369
283.8000,1.16204,253.347,0.742153
283.7000,1.73941,253.246,0.740924
283.6000,1.37094,253.41,0.742913
283.5000,1.49885,253.531,0.744391
283.4000,0.590627,253.406,0.742868
283.3000,1.35052,253.374,0.742475
283.2000,1.12873,253.244,0.740901
283.1000,1.05951,253.067,0.738742
283.0000,0.751385,253.203,0.740394
282.9000,0.556315,253.288,0.741436
282.8000,0.735594,253.285,0.741398
282.7000,0.840182,253.1,0.73914
282.6000,0.751063,253.233,0.740763
282.5000,1.15358,253.266,0.741168
282.4000,0.401269,253.207,0.740447
282.3000,1.53064,253.093,0.739063
282.2000,0.532234,253.004,0.737978
282.1000,0.768862,253.202,0.740388
282.0000,0.925072,253.427,0.743126
281.9000,0.547195,253.152,0.739777
281.8000,1.84672,253.472,0.743672
281.7000,0.953779,253.303,0.74161
281.6000,1.22671,253.078,0.738872
281.5000,1.54927,253.093,0.739059
281.4000,1.27044,252.961,0.737455
281.3000,1.36489,252.855,0.736151
281.2000,0.971625,252.89,0.736585
281.1000,2.01457,253.315,0.741759
281.0000,0.845209,253.038,0.738385
280.9000,0.454082,253.026,0.738236
280.8000,1.04541,253.051,0.738542
280.7000,1.00728,252.775,0.735184
280.6000,0.991025,252.886,0.736533
280.5000,0.778624,252.991,0.737813
280.4000,1.04677,252.937,0.73716
280.3000,1.36583,252.953,0.737348
280.2000,0.789459,252.802,0.735515
280.1000,0.511305,253.175,0.740056
280.0000,1.31462,252.686,0.734097
279.9000,1.52616,252.798,0.735463
279.8000,1.79931,252.779,0.735236
279.7000,0.344242,252.981,0.737694
279.6000,1.37374,252.976,0.737632
279.5000,1.04555,252.964,0.737481
279.4000,1.22096,252.872,0.736364
279.3000,0.929825,252.849,0.736088
279.2000,0.267421,253.147,0.739711
279.1000,1.32886,253.039,0.738403
279.0000,1.25408,252.699,0.73426
278.9000,0.945397,253.037,0.738373
278.8000,1.18445,253.106,0.739222
278.7000,2.05991,252.676,0.733978
278.6000,0.786125,252.789,0.735353
278.5000,1.59298,252.874,0.736391
278.4000,1.36998,252.902,0.736726
278.3000,0.50278,252.689,0.73413
278.2000,0.623468,252.845,0.736031
278.1000,1.44658,252.775,0.73518
278.0000,0.772017,252.833,0.735883
277.9000,0.966474,252.771,0.735137
277.8000,0.392914,252.965,0.737502
277.7000,0.279078,253.08,0.738904
277.6000,0.208719,253.02,0.738167
277.5000,0.344081,253.223,0.740639
277.4000,0.977931,252.803,0.735519
277.3000,0.822463,253.045,0.738469
277.2000,0.932523,252.953,0.737352
277.1000,1.32879,252.86,0.736219
277.0000,0.759006,252.808,0.735578
276.9000,1.30664,252.785,0.735303
276.8000,0.773218,252.635,0.733474
276.7000,0.972957,252.646,0.733605
276.6000,1.20069,252.4,0.730604
276.5000,0.546585,252.727,0.734598
276.4000,0.374598,252.408,0.730701
276.3000,1.4891,252.39,0.730488
276.2000,0.369866,252.493,0.731745
276.1000,1.74787,252.636,0.733489
276.0000,0.952513,252.539,0.732297
275.9000,-0.112654,252.666,0.733855
275.8000,1.95534,252.449,0.731207
275.7000,1.08639,253.082,0.738926
275.6000,0.637491,252.75,0.734871
275.5000,1.89941,252.459,0.731328
275.4000,0.323804,252.376,0.730313
275.3000,0.967736,252.73,0.734628
275.2000,0.438376,252.423,0.730884
275.1000,1.14456,252.485,0.731638
275.0000,0.95151,252.632,0.733439
274.9000,0.892259,252.438,0.731067
274.8000,1.97835,252.559,0.732543
274.7000,1.22922,252.651,0.733664
274.6000,1.0282,252.482,0.731606
274.5000,0.957497,252.851,0.736109
274.4000,1.29427,252.46,0.731337
274.3000,0.870275,252.416,0.730795
274.2000,0.991849,252.364,0.730163
274.1000,0.986371,252.269,0.729002
274.0000,1.44193,252.312,0.729525
273.9000,1.26446,252.735,0.734688
273.8000,1.62535,252.368,0.730209
273.7000,1.12083,252.251,0.72879
273.6000,1.18187,252.339,0.729858
273.5000,0.659389,252.338,0.729849
273.4000,1.32218,252.521,0.732088
273.3000,1.61453,252.464,0.731392
273.2000,1.20312,252.103,0.726983
273.1000,0.499812,252.474,0.731514
273.0000,0.510219,252.7,0.734263
272.9000,1.21099,252.518,0.732047
272.8000,0.436834,252.724,0.734562
272.7000,0.298848,252.509,0.731932
272.6000,0.722501,252.58,0.732809
272.5000,1.19121,252.435,0.731028
272.4000,0.887501,252.175,0.727861
272.3000,1.32759,252.676,0.733977
272.2000,1.263,252.362,0.730138
272.1000,1.03101,252.533,0.732231
272.0000,1.55895,252.656,0.733735
271.9000,0.663471,252.363,0.730147
271.8000,0.557159,252.381,0.730378
271.7000,1.05281,252.07,0.726575
271.6000,0.484794,252.214,0.728334
271.5000,0.957555,252.41,0.730732
271.4000,1.39109,252.346,0.729951
271.3000,1.04004,252.35,0.729992
271.2000,0.670561,252.263,0.728936
271.1000,0.983644,252.231,0.728544
271.0000,0.637964,252.334,0.729799
270.9000,0.921399,252.6,0.733044
270.8000,0.742911,252.656,0.733734
270.7000,0.315704,252.307,0.729465
270.6000,0.147804,252.015,0.725901
270.5000,1.3247,252.417,0.730818
270.4000,0.0862257,252.495,0.73177
270.3000,0.557694,252.844,0.736027
270.2000,0.705414,252.681,0.734039
270.1000,0.983508,252.554,0.732481
270.0000,0.672386,252.54,0.732317
269.9000,0.430708,252.531,0.732205
269.8000,1.07728,252.346,0.729946
269.7000,1.11977,252.137,0.727398
269.6000,0.757661,252.434,0.731023
269.5000,0.156156,252.663,0.733815
269.4000,0.969186,252.737,0.734713
269.3000,0.227468,252.374,0.730294
269.2000,-0.333688,252.508,0.731925
269.1000,0.820193,252.452,0.731241
269.0000,0.831555,252.408,0.730706
268.9000,1.27515,252.14,0.727432
268.8000,0.932082,252.722,0.734532
268.7000,0.648253,252.563,0.732592
268.6000,0.708944,252.521,0.732079
268.5000,0.629873,252.772,0.735142
268.4000,-0.286443,252.687,0.734102
268.3000,0.51863,252.531,0.732208
268.2000,0.533993,252.629,0.733397
268.1000,0.366077,252.842,0.735997
268.0000,0.762165,252.473,0.731493
267.9000,0.4911,252.493,0.731743
267.8000,0.25219,252.318,0.729605
267.7000,0.455326,252.599,0.733033
267.6000,0.757605,252.45,0.731212
267.5000,0.930515,252.52,0.73207
267.4000,-0.0100183,252.595,0.732984
267.3000,0.621739,252.626,0.733365
267.2000,1.03916,252.58,0.732809
267.1000,0.560139,252.391,0.730499
267.0000,0.707448,252.465,0.731403
266.9000,1.20676,252.293,0.7293
266.8000,0.823345,252.753,0.734918
266.7000,0.934499,252.566,0.732631
266.6000,1.06694,252.468,0.731432
266.5000,0.553306,252.932,0.737092
266.4000,0.537691,252.918,0.736921
266.3000,0.372103,252.775,0.735187
266.2000,1.14412,252.832,0.735874
266.1000,0.721066,252.796,0.735439
266.0000,0.434212,252.974,0.737613
265.9000,0.400869,252.843,0.736012
265.8000,0.315699,252.628,0.733384
265.7000,1.14228,252.874,0.736394
265.6000,0.699926,252.604,0.733096
265.5000,0.551095,252.674,0.733955
265.4000,0.851268,253.099,0.73913
265.3000,1.36265,252.707,0.734353
265.2000,0.689078,252.744,0.734806
265.1000,0.228735,252.878,0.736435
265.0000,0.774119,253.034,0.738336
264.9000,0.460887,252.908,0.736801
264.8000,0.174169,252.867,0.736304
264.7000,0.724179,252.899,0.736691
264.6000,1.4177,253.006,0.737992
264.5000,0.342661,253.077,0.738863
264.4000,1.15882,253.023,0.738211
264.3000,0.547035,253.168,0.739972
264.2000,0.400546,252.948,0.737292
264.1000,1.17958,252.876,0.736411
264.0000,0.586877,253.027,0.738258
263.9000,0.982643,253.056,0.738612
263.8000,0.666287,253.044,0.738459
263.7000,0.682731,253.153,0.739792
263.6000,0.665668,252.941,0.737209
263.5000,0.656022,253.325,0.741883
263.4000,0.880483,253.344,0.742108
263.3000,0.568429,252.963,0.737477
263.2000,0.334938,253.335,0.742009
263.1000,0.340099,253.411,0.742924
263.0000,0.330232,253.287,0.741422
262.9000,0.530499,253.252,0.741
262.8000,0.190696,253.325,0.741883
262.7000,0.874135,253.37,0.742437
262.6000,0.172668,253.353,0.742222
262.5000,0.900255,253.386,0.74262
262.4000,0.087662,253.321,0.74183
262.3000,0.334954,253.333,0.741984
262.2000,1.1523,253.639,0.745707
262.1000,1.02084,253.61,0.745349
262.0000,0.110919,253.611,0.74536
261.9000,0.924628,253.215,0.740538
261.8000,0.916247,253.426,0.743116
261.7000,0.506761,253.817,0.747874
261.6000,-0.0105409,253.651,0.745846
261.5000,1.33008,253.451,0.743417
261.4000,1.0733,253.638,0.745695
261.3000,1.15712,253.751,0.747067
261.2000,0.123916,253.793,0.747582
261.1000,0.336238,253.637,0.745685
261.0000,0.455196,253.397,0.742761
260.9000,0.16722,253.613,0.745382
260.8000,1.06847,253.711,0.746578
260.7000,0.604537,253.558,0.744717
260.6000,0.262415,253.689,0.74631
260.5000,0.755473,253.578,0.744957
260.4000,-0.202676,253.639,0.745708
260.3000,0.291967,253.603,0.745268
260.2000,0.471363,253.752,0.747073
260.1000,0.0148802,253.783,0.747449
260.0000,-0.01361,253.765,0.74724
259.9000,0.602524,253.929,0.749225
259.8000,1.4877,253.991,0.749982
259.7000,0.217098,253.627,0.745552
259.6000,0.453423,253.943,0.749403
259.5000,1.06132,254.232,0.752906
259.4000,0.0784639,254.237,0.752964
259.3000,0.818429,254.013,0.75025
259.2000,0.734164,254.167,0.75212
259.1000,0.823928,254.194,0.752449
259.0000,0.65244,254.02,0.750332
258.9000,0.280404,253.993,0.75001
258.8000,0.895477,254.124,0.751594
258.7000,0.979548,254.082,0.751082
258.6000,-0.00807948,254.297,0.753693
258.5000,0.855071,254.33,0.754101
258.4000,0.152878,254.404,0.754994
258.3000,0.606983,254.473,0.755833
258.2000,1.13154,254.325,0.754033
258.1000,0.617795,254.434,0.755362
258.0000,0.00370664,254.567,0.756969
257.9000,0.0507665,254.6,0.757378
257.8000,0.722901,254.591,0.757259
257.7000,0.843848,254.351,0.754351
257.6000,0.229078,254.822,0.760061
257.5000,1.33827,254.588,0.757223
257.4000,0.722999,254.527,0.756484
257.3000,0.598514,254.578,0.757107
257.2000,0.780378,254.619,0.757597
257.1000,0.771775,254.708,0.758678
257.0000,1.10501,254.502,0.756185
256.9000,-0.243258,254.77,0.759428
256.8000,0.853111,254.701,0.758597
256.7000,0.469301,254.719,0.758812
256.6000,0.752161,254.548,0.756746
256.5000,0.772149,254.817,0.760001
256.4000,0.78218,254.912,0.761157
256.3000,0.494245,254.728,0.758923
256.2000,0.744686,254.742,0.759089
256.1000,0.154088,255.023,0.762493
256.0000,0.642598,255.046,0.762771
255.9000,0.324795,255.112,0.763574
255.8000,0.783323,254.843,0.760322
255.7000,1.45334,254.906,0.76108
255.6000,0.41571,254.939,0.761479
255.5000,0.3795,255.296,0.765795
255.4000,0.778211,255.157,0.764124
255.3000,1.25329,254.859,0.760512
255.2000,0.901551,255.098,0.763407
255.1000,0.830912,255.343,0.766365
255.0000,0.869623,255.162,0.764184
254.9000,0.648839,255.071,0.763078
254.8000,1.0183,255.261,0.765372
254.7000,0.354151,255.184,0.764451
254.6000,0.489228,254.996,0.76217
254.5000,0.886328,255.189,0.764504
254.4000,1.8505,255.331,0.76622
254.3000,0.391665,255.216,0.764831
254.2000,0.526061,255.299,0.765842
254.1000,0.714786,255.479,0.768015
254.0000,0.877692,255.66,0.770202
253.9000,0.400301,255.46,0.767779
253.8000,0.646023,255.386,0.766887
253.7000,0.551565,255.442,0.767564
253.6000,0.860096,255.307,0.765933
253.5000,-0.327305,255.39,0.766936
253.4000,0.433464,255.467,0.767869
253.3000,0.204518,255.395,0.766997
253.2000,0.620964,255.595,0.769418
253.1000,1.05969,255.629,0.769821
253.0000,1.06608,255.527,0.768595
252.9000,0.24973,255.542,0.768772
252.8000,0.763665,255.645,0.77002
252.7000,0.326734,255.756,0.771357
252.6000,0.934515,255.651,0.770091
252.5000,0.326194,255.802,0.771915
252.4000,0.308546,255.776,0.771599
252.3000,0.296524,255.762,0.771432
252.2000,0.647049,255.99,0.774188
252.1000,1.08073,255.909,0.773203
252.0000,0.046054,255.768,0.771502
251.9000,0.342065,255.801,0.771898
251.8000,0.637223,255.944,0.773625
251.7000,0.362674,255.881,0.772871
251.6000,0.0917829,255.621,0.769724
251.5000,0.646059,255.815,0.772077
251.4000,0.914922,256.022,0.774572
251.3000,0.427202,255.843,0.772409
251.2000,-0.284071,255.767,0.77149
251.1000,-0.277939,255.779,0.771635
251.0000,0.660027,256.008,0.774398
250.9000,0.833133,255.901,0.773115
250.8000,1.07286,255.864,0.772659
250.7000,0.695988,255.962,0.773845
250.6000,0.282151,256.033,0.774701
250.5000,1.07636,255.889,0.772972
250.4000,0.638816,256.028,0.774644
250.3000,-0.0749746,256.142,0.776023
250.2000,0.275991,256.182,0.776507
250.1000,1.4872,256.317,0.778134
250.0000,1.01324,256.066,0.775108
249.9000,0.334079,256.107,0.775592
249.8000,-0.0379891,256.113,0.77567
249.7000,0.876986,256.001,0.774315
249.6000,1.42942,256.201,0.776733
249.5000,0.156303,256.311,0.778062
249.4000,0.757647,255.989,0.774175
249.3000,0.365199,255.907,0.77319
249.2000,0.59766,256.132,0.775905
249.1000,1.19037,256.165,0.776302
249.0000,0.1329,255.704,0.770736
248.9000,0.103932,255.862,0.772644
248.8000,0.183787,256.127,0.775841
248.7000,0.119565,256.178,0.776457
248.6000,0.00552617,256.217,0.776927
248.5000,0.481274,256.08,0.775276
248.4000,0.760624,255.886,0.772927
248.3000,0.764096,255.913,0.773261
248.2000,-0.0229609,256.01,0.774426
248.1000,0.936412,255.722,0.770945
248.0000,0.677872,256.06,0.775031
247.9000,0.216421,255.912,0.773243
247.8000,0.48537,255.768,0.771501
247.7000,-0.246066,256.162,0.776264
247.6000,0.596613,256.116,0.775711
247.5000,0.846378,256.438,0.779587
247.4000,0.152962,256.245,0.777261
247.3000,0.303225,256.04,0.774788
247.2000,0.927761,256.716,0.782933
247.1000,0.659943,256.283,0.777722
247.0000,1.2293,256.526,0.780647
246.9000,1.31609,256.76,0.783471
246.8000,0.525048,256.503,0.780378
246.7000,0.765207,256.399,0.779123
246.6000,0.802273,256.44,0.779617
246.5000,0.162485,256.339,0.778396
246.4000,0.568289,256.225,0.777016
246.3000,0.471827,256.496,0.780291
246.2000,1.46916,256.377,0.778855
246.1000,0.694273,256.469,0.779963
246.0000,-0.208371,256.345,0.778471
245.9000,0.0822123,256.361,0.77866
245.8000,0.658287,256.705,0.782802
245.7000,0.182363,256.596,0.781491
245.6000,0.987117,256.532,0.780723
245.5000,1.04233,256.563,0.781091
245.4000,0.245518,256.739,0.783217
245.3000,0.756942,256.643,0.78206
245.2000,1.04575,256.632,0.781931
245.1000,-0.221182,256.483,0.78013
245.0000,0.858594,256.683,0.782545
244.9000,0.510724,256.463,0.779893
244.8000,-0.136526,256.398,0.779102
244.7000,0.258662,256.819,0.784172
244.6000,-0.0244983,256.581,0.781314
244.5000,0.939018,257.155,0.788222
244.4000,0.309825,256.38,0.778884
244.3000,0.253735,256.752,0.783374
244.2000,1.057,256.582,0.781325
244.1000,0.812304,256.652,0.78217
244.0000,0.150803,256.764,0.783514
243.9000,0.66894,256.671,0.782396
243.8000,0.500349,256.866,0.784742
243.7000,0.221998,256.654,0.782193
243.6000,0.0564342,256.967,0.785964
243.5000,0.294731,256.896,0.785103
243.4000,1.09567,256.842,0.784458
243.3000,1.10363,256.988,0.786212
243.2000,0.433379,256.998,0.786336
243.1000,0.59552,256.881,0.784925
243.0000,0.148744,256.821,0.784196
242.9000,-0.111292,257.091,0.787444
242.8000,0.0541425,257.302,0.789983
242.7000,0.120178,257.052,0.786978
242.6000,0.713413,256.824,0.784239
242.5000,0.619024,257.026,0.786666
242.4000,0.22338,257.107,0.787644
242.3000,0.359082,257.161,0.78829
242.2000,0.552982,257.262,0.789508
242.1000,-0.219756,257.146,0.788116
242.0000,-0.504884,257.332,0.790353
241.9000,0.26221,257.457,0.791846
241.8000,0.866359,257.26,0.789478
241.7000,0.384936,257.396,0.791121
241.6000,0.47532,257.475,0.79207
241.5000,0.232135,257.446,0.791716
241.4000,1.191,257.266,0.789553
241.3000,-0.0684806,257.558,0.793066
241.2000,-0.280416,257.59,0.793446
241.1000,0.293358,257.375,0.79086
241.0000,0.217084,257.266,0.789555
240.9000,-0.0844276,257.551,0.792974
240.8000,0.106733,257.437,0.791614
240.7000,0.649118,257.605,0.793626
240.6000,0.224958,257.603,0.793607
240.5000,-0.138552,257.672,0.794433
240.4000,0.573972,257.621,0.793812
240.3000,-0.603715,257.716,0.794963
240.2000,0.00843171,257.973,0.798038
240.1000,0.164116,257.726,0.795077
240.0000,0.0631406,258.015,0.798549
239.9000,0.443758,258.154,0.800214
239.8000,-0.176703,258.045,0.798908
239.7000,0.0721475,258.269,0.801593
239.6000,0.168128,258.2,0.800762
239.5000,-0.772273,258.092,0.799465
239.4000,0.205761,258.158,0.800254
239.3000,0.16522,258.447,0.803726
239.2000,0.436621,258.586,0.805385
239.1000,-0.0447067,258.327,0.802288
239.0000,-0.613139,258.452,0.803776
238.9000,-0.229404,258.552,0.804977
238.8000,-0.331677,258.88,0.808907
238.7000,0.0258107,258.795,0.807882
238.6000,0.411677,258.702,0.806776
238.5000,0.3673,259.009,0.810442
238.4000,-0.192189,259.058,0.811032
238.3000,0.281796,258.998,0.810314
238.2000,-0.354954,259.161,0.812259
238.1000,0.837814,259.065,0.811114
238.0000,0.954506,258.69,0.806629
237.9000,0.0155387,259.231,0.813094
237.8000,-1.13367,259.291,0.813809
237.7000,-0.392342,259.26,0.813442
237.6000,-0.657881,259.18,0.812482
237.5000,0.54864,259.145,0.812064
237.4000,-0.584546,259.4,0.815116
237.3000,0.108476,259.464,0.815876
237.2000,0.0451829,259.594,0.817426
237.1000,-0.803805,259.789,0.819751
237.0000,-0.481081,259.738,0.819146
236.9000,-0.312088,259.731,0.819068
236.8000,0.280604,259.503,0.816339
236.7000,0.279802,259.99,0.822147
236.6000,-0.32651,259.854,0.82053
236.5000,-0.416866,259.957,0.821754
236.4000,0.220089,259.878,0.820822
236.3000,-0.58537,260.153,0.824098
236.2000,-0.697206,260.315,0.826024
236.1000,-0.297515,260.302,0.825869
236.0000,-0.580153,260.327,0.826163
235.9000,-0.444062,260.368,0.826652
235.8000,0.440131,260.433,0.827424
235.7000,-0.375385,260.525,0.82852
235.6000,-0.412818,260.375,0.826739
235.5000,-0.351482,260.645,0.829952
235.4000,-0.31329,260.452,0.827656
235.3000,-0.447567,260.576,0.82913
235.2000,-0.0165496,260.737,0.831037
235.1000,-0.82002,260.865,0.832566
235.0000,0.0413979,260.97,0.833811
234.9000,-0.60061,261.062,0.834898
234.8000,-0.275108,261.401,0.838921
234.7000,0.205574,261.094,0.835278
234.6000,-0.659254,260.9,0.832974
234.5000,-1.0027,261.223,0.836818
234.4000,-0.235995,261.585,0.841104
234.3000,-1.00023,261.401,0.838926
234.2000,-1.40229,261.559,0.8408
234.1000,-0.813857,261.833,0.844046
234.0000,-1.65929,261.82,0.843892
233.9000,-0.717258,261.635,0.841701
233.8000,-0.196,261.845,0.844184
233.7000,-0.525549,261.648,0.841848
233.6000,-0.563418,261.973,0.845709
233.5000,-0.549776,262.06,0.84673
233.4000,-0.388,262.042,0.846518
233.3000,-0.644858,262.195,0.848335
233.2000,-0.443174,261.956,0.845507
233.1000,-0.423612,262.288,0.849434
233.0000,-0.36972,262.118,0.847422
232.9000,-0.96501,262.41,0.850873
232.8000,-0.690371,262.93,0.85702
232.7000,-0.824149,262.627,0.853441
232.6000,-0.384701,262.486,0.851771
232.5000,-1.39967,262.686,0.854141
232.4000,-0.760486,262.708,0.85439
232.3000,-1.0714,262.949,0.857238
232.2000,-1.04762,263.068,0.858647
232.1000,-1.2008,263,0.857847
232.0000,-1.21403,262.842,0.855974
231.9000,-0.406516,263.419,0.862779
231.8000,-1.34602,263.396,0.86251
231.7000,-1.49317,262.92,0.856894
231.6000,-1.74711,263.468,0.863366
231.5000,-1.43232,263.606,0.86499
231.4000,-0.924217,263.742,0.866588
231.3000,-1.46938,263.576,0.864635
231.2000,-1.47059,263.861,0.867985
231.1000,-1.93321,263.892,0.868352
231.0000,-2.03711,263.784,0.867085
230.9000,-1.46334,264.044,0.870144
230.8000,-1.28445,263.994,0.869554
230.7000,-1.36744,263.808,0.867362
230.6000,-1.38961,263.816,0.867455
230.5000,-1.57668,263.892,0.868355
230.4000,-2.13264,264.227,0.872293
230.3000,-1.62005,264.062,0.87035
230.2000,-0.196785,263.86,0.867982
230.1000,-1.46874,263.947,0.868999
230.0000,-1.49129,264.195,0.871921
229.9000,-1.55987,263.769,0.866906
229.8000,-1.74162,264.008,0.869717
229.7000,-0.807779,263.771,0.866936
229.6000,-1.18045,263.829,0.867618
229.5000,-1.24669,263.964,0.869203
229.4000,-1.83044,264.395,0.874272
229.3000,-2.08463,264.16,0.871508
229.2000,-2.06758,264.214,0.872137
229.1000,-1.93695,264.963,0.880936
229.0000,-2.31655,264.744,0.878371
228.9000,-1.99999,264.982,0.881162
228.8000,-2.02696,265.107,0.882623
228.7000,-1.26354,265.417,0.886257
228.6000,-1.77558,265.52,0.887461
228.5000,-1.44611,265.499,0.887222
228.4000,-1.39575,265.356,0.885539
228.3000,-1.8798,265.331,0.885257
228.2000,-1.3567,265.56,0.887932
228.1000,-1.31402,266.013,0.89323
228.0000,-2.39984,266.182,0.895209
227.9000,-1.14003,266.23,0.895766
227.8000,-2.19492,266.461,0.89847
227.7000,-2.12228,266.408,0.897848
227.6000,-2.0287,266.577,0.899817
227.5000,-2.89463,266.473,0.898602
227.4000,-3.12096,266.88,0.90336
227.3000,-2.49538,267.08,0.905681
227.2000,-1.88411,266.765,0.902017
227.1000,-1.76464,266.776,0.902138
227.0000,-1.5987,267.096,0.905873
226.9000,-1.58709,267.415,0.90959
226.8000,-2.82246,266.929,0.903922
226.7000,-2.29312,267.074,0.905615
226.6000,-2.05305,267.245,0.907602
226.5000,-1.3256,267.331,0.908604
226.4000,-1.92929,267.167,0.906695
226.3000,-1.49643,267.657,0.912397
226.2000,-2.13138,267.77,0.913721
226.1000,-2.2165,267.565,0.911338
226.0000,-1.80852,267.599,0.911724
225.9000,-2.36398,267.513,0.910724
225.8000,-2.85078,267.765,0.913656
225.7000,-2.06603,267.691,0.912793
225.6000,-1.25212,267.849,0.91463
225.5000,-2.05446,268.086,0.917384
225.4000,-2.01673,268.356,0.920521
225.3000,-2.36493,268.135,0.917962
225.2000,-2.66112,268.319,0.920089
225.1000,-2.11601,268.502,0.922219
225.0000,-2.79495,268.37,0.920691
224.9000,-2.9254,268.575,0.923064
224.8000,-1.8329,268.911,0.926957
224.7000,-1.40058,268.916,0.927019
224.6000,-2.33549,268.977,0.927721
224.5000,-2.06111,269.273,0.931156
224.4000,-2.03921,269.203,0.930344
224.3000,-2.45217,269.391,0.93252
224.2000,-2.75604,269.344,0.93197
224.1000,-2.48806,269.342,0.931945
224.0000,-2.65155,269.305,0.931523
223.9000,-2.03775,269.425,0.932905
223.8000,-2.57041,269.698,0.936066
223.7000,-1.99136,269.924,0.938672
223.6000,-2.29636,269.562,0.93449
223.5000,-2.38889,269.694,0.936024
223.4000,-2.30916,270.029,0.939894
223.3000,-2.04799,270.289,0.94289
223.2000,-1.98258,269.721,0.936329
223.1000,-1.28619,270.089,0.940581
223.0000,-2.46712,270.38,0.943938
222.9000,-2.3797,270.354,0.943641
222.8000,-1.71489,270.453,0.944777
222.7000,-2.51424,270.744,0.948133
222.6000,-2.82738,270.501,0.945336
222.5000,-2.71581,270.731,0.947986
222.4000,-2.87033,270.546,0.945849
222.3000,-3.33529,270.845,0.949298
222.2000,-2.85087,270.995,0.951025
222.1000,-2.43538,270.983,0.950886
222.0000,-1.80717,270.79,0.948662
221.9000,-2.85028,271.11,0.952354
221.8000,-2.96831,271.834,0.960669
221.7000,-2.70072,271.474,0.956535
221.6000,-2.5075,271.306,0.9546
221.5000,-1.91155,271.69,0.959013
221.4000,-2.25485,271.442,0.956163
221.3000,-2.31028,271.881,0.96121
221.2000,-2.50103,271.772,0.95996
221.1000,-2.7127,271.498,0.956816
221.0000,-1.46027,271.82,0.96051
220.9000,-2.77054,271.8,0.96028
220.8000,-3.08533,271.767,0.959904
220.7000,-1.89894,272.128,0.964051
220.6000,-3.43057,272.118,0.963929
220.5000,-2.64536,272.124,0.964002
220.4000,-2.62535,272.448,0.96772
220.3000,-2.51184,272.586,0.969299
220.2000,-2.67711,272.48,0.96808
220.1000,-3.35049,272.044,0.96308
220.0000,-3.06352,272.759,0.971279
219.9000,-2.22015,272.608,0.969547
219.8000,-2.48454,272.381,0.966943
219.7000,-2.23416,272.737,0.971021
219.6000,-1.82813,272.986,0.973878
219.5000,-1.43051,272.858,0.972414
219.4000,-2.60874,272.556,0.968957
219.3000,-2.42846,272.913,0.973041
219.2000,-3.1652,272.867,0.972519
219.1000,-1.82367,272.633,0.969837
219.0000,-2.76561,272.961,0.973589
218.9000,-2.01397,272.945,0.973408
218.8000,-2.81302,273.046,0.974568
218.7000,-2.81847,273.272,0.977142
218.6000,-2.59963,273.027,0.974344
218.5000,-2.8355,273.488,0.979618
218.4000,-1.81883,273.461,0.979306
218.3000,-1.78212,273.381,0.978398
218.2000,-2.52749,273.519,0.979971
218.1000,-2.15626,273.924,0.984595
218.0000,-2.7951,273.884,0.98414
217.9000,-2.40408,273.849,0.983736
217.8000,-2.20653,273.931,0.984672
217.7000,-2.64192,273.893,0.984245
217.6000,-2.38721,274.19,0.987625
217.5000,-2.66687,274.088,0.986461
217.4000,-3.222,274.486,0.991003
217.3000,-3.34764,274.317,0.989075
217.2000,-2.2712,274.722,0.99369
217.1000,-2.04728,274.654,0.992911
217.0000,-2.88322,274.658,0.992955
216.9000,-2.9232,274.77,0.994239
216.8000,-2.45848,274.952,0.996306
216.7000,-2.31729,275.159,0.998653
216.6000,-3.29631,274.929,0.996041
216.5000,-2.15248,275.061,0.997539
216.4000,-1.49326,275.006,0.996913
216.3000,-2.41066,275.101,0.998003
216.2000,-2.23858,275.551,1.00311
216.1000,-2.17526,275.302,1.00029
216.0000,-1.60429,275.286,1.0001
215.9000,-1.85965,275.258,0.999778
215.8000,-1.43905,275.527,1.00284
215.7000,-1.81561,275.447,1.00193
215.6000,-2.99514,275.522,1.00279
215.5000,-3.12031,275.669,1.00445
215.4000,-2.14658,275.829,1.00627
215.3000,-2.84757,275.706,1.00487
215.2000,-2.76057,275.941,1.00753
215.1000,-2.00126,276.338,1.01203
215.0000,-1.22873,275.71,1.00492
214.9000,-1.96265,276.189,1.01035
214.8000,-2.07519,276.17,1.01013
214.7000,-2.24937,276.309,1.01171
214.6000,-1.98739,276.313,1.01175
214.5000,-1.45676,276.289,1.01148
214.4000,-2.39563,276.325,1.01189
214.3000,-3.2328,276.478,1.01363
214.2000,-1.58992,276.813,1.01741
214.1000,-2.04213,276.764,1.01686
214.0000,-3.35668,276.314,1.01176
213.9000,-2.90698,276.658,1.01566
213.8000,-1.75288,276.742,1.01661
213.7000,-0.760179,276.878,1.01814
213.6000,-2.82403,276.854,1.01787
213.5000,-2.56429,276.988,1.01939
213.4000,-1.81413,277.071,1.02033
213.3000,-2.91107,277.106,1.02072
213.2000,-2.15645,277.005,1.01958
213.1000,-2.03473,277.042,1.02
213.0000,-1.96696,277.352,1.02351
212.9000,-2.32844,277.507,1.02525
212.8000,-3.02286,277.538,1.02561
212.7000,-1.73807,277.573,1.026
212.6000,-0.428513,277.879,1.02945
212.5000,-3.08943,277.515,1.02534
212.4000,-3.57165,277.951,1.03026
212.3000,-1.67165,277.901,1.0297
212.2000,-1.54287,277.7,1.02743
212.1000,-1.75684,278.257,1.03371
212.0000,-2.60188,278.032,1.03117
211.9000,-3.60453,278.542,1.03692
211.8000,-2.83872,278.281,1.03398
211.7000,-2.44606,278.864,1.04054
211.6000,-1.08225,278.784,1.03963
211.5000,-1.6635,278.662,1.03827
211.4000,-2.43148,279.016,1.04224
211.3000,-1.81518,278.987,1.04192
211.2000,-1.64821,279.064,1.04278
211.1000,-2.54151,278.985,1.0419
211.0000,-2.38852,279.21,1.04443
210.9000,-2.04604,278.855,1.04043
210.8000,-2.12784,279.534,1.04807
210.7000,-1.76788,279.38,1.04633
210.6000,-1.59109,279.941,1.05263
210.5000,-2.8258,279.697,1.04989
210.4000,-2.56895,279.77,1.05071
210.3000,-2.41824,279.846,1.05156
210.2000,-3.20763,279.753,1.05052
210.1000,-2.19438,279.937,1.05258
210.0000,-2.50094,280.055,1.0539
209.9000,-2.95324,280.346,1.05716
209.8000,-1.07882,280.564,1.0596
209.7000,-2.81873,280.371,1.05744
209.6000,-2.58616,280.783,1.06205
209.5000,-3.85123,280.697,1.06108
209.4000,-1.24668,280.666,1.06074
209.3000,-1.8589,281.165,1.06632
209.2000,-2.44221,281.401,1.06894
209.1000,-1.70832,281.178,1.06646
209.0000,-2.57311,281.306,1.06789
208.9000,-1.91473,281.17,1.06638
208.8000,-2.96824,281.456,1.06957
208.7000,-2.50517,281.647,1.07169
208.6000,-2.23043,281.733,1.07265
208.5000,-1.77499,281.615,1.07134
208.4000,-2.27103,281.773,1.0731
208.3000,-2.30449,282.082,1.07654
208.2000,-2.13689,282.288,1.07883
208.1000,-3.07545,282.204,1.0779
208.0000,-2.29125,282.245,1.07835
207.9000,-1.57865,282.613,1.08245
207.8000,-0.738868,282.59,1.08219
207.7000,-1.36024,282.965,1.08636
207.6000,-2.06652,283.161,1.08853
207.5000,-3.22907,283.342,1.09055
207.4000,-1.45925,283.523,1.09255
207.3000,-3.15492,283.332,1.09043
207.2000,-2.32272,283.48,1.09207
207.1000,-2.28784,283.549,1.09284
207.0000,-2.11179,283.721,1.09475
206.9000,-2.07012,283.613,1.09355
206.8000,-2.35692,284.122,1.09918
206.7000,-2.34797,284.222,1.10029
206.6000,-2.50381,284.215,1.10022
206.5000,-1.27986,284.423,1.10251
206.4000,-1.71437,284.448,1.10279
206.3000,-1.79065,284.7,1.10558
206.2000,-2.35373,285.048,1.10942
206.1000,-1.86296,285.04,1.10933
206.0000,-0.818185,285.426,1.11359
205.9000,-1.73536,285.835,1.1181
205.8000,-1.24504,285.872,1.11851
205.7000,-1.91264,285.786,1.11756
205.6000,-0.520651,286.106,1.12108
205.5000,-1.23777,286.127,1.12131
205.4000,-0.761673,286.307,1.12329
205.3000,-2.43918,286.405,1.12436
205.2000,-1.36583,286.869,1.12946
205.1000,0.319639,286.889,1.12968
205.0000,-0.135509,287.082,1.13181
204.9000,-0.306639,287.446,1.1358
204.8000,-0.611839,287.697,1.13855
204.7000,-0.594438,287.66,1.13814
204.6000,-0.564291,287.729,1.13889
204.5000,-0.539045,288.186,1.1439
204.4000,0.537002,288.552,1.1479
204.3000,0.258921,288.736,1.14991
204.2000,-0.338635,288.798,1.15058
204.1000,-0.246355,288.804,1.15066
204.0000,-0.26958,289.425,1.15743
203.9000,-0.284735,289.498,1.15822
203.8000,-0.641063,289.804,1.16155
203.7000,-0.56502,289.929,1.16292
203.6000,-0.134946,290.019,1.1639
203.5000,-0.362207,290.316,1.16713
203.4000,0.860164,290.214,1.16602
203.3000,0.817684,290.549,1.16966
203.2000,-0.693768,291.234,1.17709
203.1000,0.949269,291.132,1.17599
203.0000,-0.196955,291.362,1.17848
202.9000,1.86975,291.786,1.18307
202.8000,1.17646,292.055,1.18598
202.7000,1.01693,291.829,1.18354
202.6000,0.192793,292.096,1.18643
202.5000,0.660166,292.632,1.19222
202.4000,0.532097,292.64,1.19231
202.3000,0.802373,292.853,1.19461
202.2000,1.35185,293.141,1.19771
202.1000,0.441003,293.42,1.20072
202.0000,2.29756,293.699,1.20372
201.9000,0.988199,294.037,1.20736
201.8000,1.9234,294.493,1.21227
201.7000,1.65925,294.626,1.21369
201.6000,1.59502,294.995,1.21766
201.5000,2.16305,295.122,1.21902
201.4000,2.6577,295.446,1.22249
201.3000,1.97084,295.78,1.22607
201.2000,2.65001,296.068,1.22915
201.1000,2.62332,296.132,1.22983
201.0000,3.50725,296.412,1.23282
200.9000,3.31453,296.579,1.23461
200.8000,3.12145,296.896,1.238
200.7000,3.35937,297.13,1.24049
200.6000,4.13911,297.374,1.24309
200.5000,3.77038,297.762,1.24722
200.4000,2.76289,298.114,1.25096
200.3000,2.03938,298.121,1.25104
200.2000,4.57825,298.401,1.25401
200.1000,4.04378,298.893,1.25923
200.0000,3.77163,299.258,1.26311
199.9000,4.32522,299.268,1.26322
199.8000,3.34427,300.15,1.27256
199.7000,4.28227,299.984,1.2708
199.6000,3.5129,300.173,1.2728
199.5000,5.04817,300.428,1.27549
199.4000,4.80112,300.574,1.27703
199.3000,3.68155,300.848,1.27992
199.2000,4.60744,300.83,1.27973
199.1000,4.62013,301.221,1.28386
199.0000,5.25998,301.654,1.28842
198.9000,5.05772,301.892,1.29093
198.8000,4.6666,301.654,1.28842
198.7000,4.44053,302.264,1.29484
198.6000,5.23205,301.988,1.29194
198.5000,5.76329,302.537,1.29771
198.4000,5.66918,302.966,1.30222
198.3000,5.70104,303.062,1.30322
198.2000,5.99181,303.477,1.30757
198.1000,6.23829,303.61,1.30896
198.0000,5.95283,303.728,1.3102
197.9000,6.16216,304.516,1.31844
197.8000,6.84534,304.208,1.31522
197.7000,7.09067,304.671,1.32006
197.6000,7.75564,304.768,1.32107
197.5000,7.32324,304.91,1.32255
197.4000,6.11122,305.064,1.32416
197.3000,5.82364,305.404,1.3277
197.2000,6.62898,305.292,1.32654
197.1000,5.42535,306.137,1.33534
197.0000,6.69757,306.581,1.33995
196.9000,8.76303,306.649,1.34066
196.8000,8.15339,306.924,1.34351
196.7000,7.69621,307.29,1.34732
196.6000,8.2177,307.522,1.34971
196.5000,7.32447,308.072,1.35541
196.4000,8.23458,308.252,1.35727
196.3000,7.16167,308.479,1.35962
196.2000,7.93615,308.92,1.36417
196.1000,6.05325,308.881,1.36377
196.0000,8.72188,309.542,1.37059
195.9000,7.50793,310.034,1.37566
195.8000,7.78764,310.186,1.37722
195.7000,7.74022,310.536,1.38082
195.6000,7.17354,310.794,1.38347
195.5000,8.05619,311.239,1.38804
195.4000,7.50721,311.406,1.38975
195.3000,7.77828,311.898,1.39479
195.2000,7.86242,312.299,1.3989
195.1000,8.23188,312.69,1.40289
195.0000,8.43244,313.057,1.40664
194.9000,8.18398,312.942,1.40547
194.8000,8.01908,313.375,1.40989
194.7000,6.54506,313.489,1.41105
194.6000,8.23193,314.089,1.41716
194.5000,11.2077,314.501,1.42136
194.4000,9.44951,314.922,1.42563
194.3000,7.51494,315.418,1.43067
194.2000,7.24688,315.645,1.43297
194.1000,9.25542,316.466,1.44129
194.0000,9.17286,317.213,1.44883
193.9000,7.7251,317.849,1.45525
193.8000,9.59541,318.411,1.46091
193.7000,7.71262,319.066,1.4675
193.6000,7.17569,319.804,1.47491
193.5000,7.38334,320.346,1.48034
193.4000,7.2516,320.682,1.48371
193.3000,8.23658,320.824,1.48512
193.2000,9.53944,321.622,1.49309
193.1000,9.77241,322.505,1.5019
193.0000,7.55911,323.005,1.50687
192.9000,8.39899,323.339,1.5102
192.8000,8.46671,324.314,1.51987
192.7000,8.57886,325.016,1.52683
192.6000,9.21458,326.102,1.53756
192.5000,10.2658,326.654,1.543
192.4000,7.00204,327.396,1.5503
192.3000,9.72436,328.204,1.55824
192.2000,8.47834,328.584,1.56197
192.1000,8.43186,329.638,1.57229
192.0000,7.74084,330.609,1.58177
191.9000,9.46366,331.354,1.58903
191.8000,9.74164,332.078,1.59607
191.7000,8.7355,333.311,1.60803
191.6000,10.3171,334.165,1.6163
191.5000,7.98177,335.02,1.62455
191.4000,9.75567,335.71,1.6312
191.3000,9.55843,336.707,1.64079
191.2000,8.7817,337.677,1.6501
191.1000,10.2671,339.694,1.66939
191.0000,8.88693,341.014,1.68195
190.9000,6.86951,342.304,1.69419
190.8000,9.11864,344.207,1.71218
190.7000,7.42426,345.034,1.71997
190.6000,9.32603,346.802,1.73658
190.5000,8.05153,348.05,1.74825
190.4000,6.9846,349.396,1.76081
190.3000,8.02856,350.4,1.77014
190.2000,6.07269,351.682,1.78203
190.1000,8.36205,352.787,1.79226
190.0000,8.08924,354.493,1.80799

##### Extended Information
[Comments]
Sample name,class
Comment
User
Division
Company,Saint Mary's College

[Detailed Information]
Creation date,9/30/2021 4:03 PM

Data array type,Linear data array * 3
Horizontal axis,Wavelength [nm]
Vertical axis(1),CD [mdeg]
Vertical axis(2),HT [V]
Vertical axis(3),Abs
Start,290 nm
End,190 nm
Data interval,0.1 nm
Data points,1001    

[Measurement Information]
Instrument name,J-1500
Model name,J-1500
Serial No.,B051061638

Detector,PM-539
Detector S/N,B051061638
  Lock-in amp.,X mode
  HT volt,Auto

Accessory,PTC-517
Accessory S/N,B026561646
  Temperature,22.43 C
  Control sensor,Holder
  Monitor sensor,Holder

Measurement date,9/30/2021 4:00 PM

CD Overload detect,832
Photometric mode,CD, HT, Abs
Measure range,290 - 190 nm
Data pitch,0.1 nm
CD scale,20 mdeg/0.05 dOD
FL scale,20 mdeg/0.05 dOD
D.I.T.,0.125 sec
Bandwidth,1.00 nm
Start mode,Immediately
Scanning mode,Continuous
Scanning speed,50 nm/min
Baseline correction,None
Shutter control,Auto
No. of cycle,1/1
N2 Flowmeter,Manual


