TITLE,Protein_AMSS
DATA TYPE,
ORIGIN,JASCO
OWNER,
DATE,22/09/27
TIME,14:37:36
SPECTROMETER/DATA SYSTEM,
LOCALE,1033
RESOLUTION,
DELTAX,-0.1
XUNITS,NANOMETERS
YUNITS,CD [mdeg]
Y2UNITS,HT [V]
Y3UNITS,ABSORBANCE
FIRSTX,  320.0000
LASTX,  190.0000
NPOINTS,    1301
FIRSTY,     0.07880
MAXY,    35.46646
MINY,   -73.42445
XYDATA
320.0000,0.0788037,259.892,0.820979
319.9000,0.471959,257.825,0.796266
319.8000,1.98662,259.042,0.810838
319.7000,1.42632,259.903,0.821114
319.6000,1.32975,259.56,0.81702
319.5000,0.962107,258.885,0.808968
319.4000,1.77462,259.176,0.812435
319.3000,-0.413259,259.44,0.815587
319.2000,-0.94778,259.576,0.81721
319.1000,2.9562,258.41,0.803274
319.0000,0.975551,258.949,0.809727
318.9000,-1.15645,259.13,0.811894
318.8000,2.28801,258.748,0.807329
318.7000,2.72944,259.457,0.81579
318.6000,0.627064,259.98,0.822033
318.5000,-0.480466,259.027,0.810661
318.4000,4.10552,259.499,0.816291
318.3000,1.59738,259.189,0.812597
318.2000,0.865934,259.504,0.816358
318.1000,1.69487,259.034,0.810743
318.0000,0.312035,258.958,0.809835
317.9000,2.70812,259.084,0.811338
317.8000,0.250091,259.654,0.818142
317.7000,1.82265,259.24,0.813206
317.6000,4.49777,258.397,0.803125
317.5000,1.52582,259.113,0.811691
317.4000,0.698724,259.153,0.812164
317.3000,3.59724,258.821,0.808196
317.2000,0.371284,258.608,0.805648
317.1000,1.97766,258.908,0.809239
317.0000,1.85675,259.759,0.819399
316.9000,1.16883,260.485,0.828049
316.8000,1.11839,259.599,0.817494
316.7000,1.37187,259.234,0.813139
316.6000,2.30025,258.544,0.804888
316.5000,0.0814793,259.177,0.812449
316.4000,3.71561,259.245,0.813261
316.3000,-2.06252,258.946,0.809686
316.2000,-0.271902,259.596,0.817453
316.1000,3.83727,258.386,0.802989
316.0000,2.91187,259.802,0.819912
315.9000,1.14604,258.965,0.809916
315.8000,0.825008,258.882,0.808928
315.7000,1.37102,258.734,0.807153
315.6000,1.2141,258.754,0.807396
315.5000,-2.16954,258.542,0.804861
315.4000,2.19648,259.536,0.816737
315.3000,0.0733125,259.857,0.820561
315.2000,4.18673,260.104,0.823504
315.1000,1.4779,258.652,0.806176
315.0000,0.425246,258.887,0.808982
314.9000,0.879719,259.145,0.812069
314.8000,0.069927,257.903,0.797204
314.7000,1.3,259.245,0.813261
314.6000,1.254,259.667,0.818305
314.5000,6.20594,258.882,0.808928
314.4000,4.88371,259.071,0.811189
314.3000,2.50272,259.237,0.813166
314.2000,2.04787,259.767,0.819494
314.1000,3.6695,259.78,0.819642
314.0000,-1.04169,258.215,0.800939
313.9000,1.30496,258.321,0.802216
313.8000,0.324336,258.605,0.805607
313.7000,3.21472,259.57,0.817142
313.6000,1.70831,259.517,0.816507
313.5000,0.283151,258.891,0.809036
313.4000,2.63182,259.595,0.81744
313.3000,1.5187,259.219,0.812949
313.2000,0.689018,259.116,0.811718
313.1000,2.20378,258.781,0.807722
313.0000,4.52123,259.329,0.814262
312.9000,0.313706,258.402,0.803179
312.8000,0.288386,258.623,0.805824
312.7000,-0.391762,259.658,0.818197
312.6000,0.875879,258.418,0.803369
312.5000,2.99624,258.227,0.801089
312.4000,3.54823,259.364,0.814681
312.3000,-2.52283,258.522,0.804617
312.2000,1.27998,258.351,0.802568
312.1000,3.54786,258.082,0.799351
312.0000,-2.90454,257.89,0.797041
311.9000,0.0718243,259.336,0.814357
311.8000,1.06424,259.554,0.816953
311.7000,3.91801,259.591,0.817399
311.6000,-0.276988,258.933,0.809537
311.5000,3.53339,259.569,0.817129
311.4000,1.33092,258.791,0.807844
311.3000,1.13801,258.447,0.803722
311.2000,0.866914,260.25,0.825244
311.1000,1.50353,258.44,0.80364
311.0000,-2.83143,259.644,0.818021
310.9000,-2.72968,259.078,0.811271
310.8000,1.768,257.902,0.79719
310.7000,-0.587463,258.386,0.802989
310.6000,1.82523,259.247,0.813288
310.5000,0.394297,259.144,0.812056
310.4000,-0.936485,259.188,0.812584
310.3000,3.11692,258.211,0.800899
310.2000,0.629934,259.254,0.813369
310.1000,-1.94821,259.545,0.816845
310.0000,2.21545,258.009,0.798468
309.9000,3.26122,258.812,0.808088
309.8000,1.63573,259.343,0.814438
309.7000,-1.10988,259.448,0.815682
309.6000,2.53791,259.517,0.816507
309.5000,0.977076,258.708,0.806841
309.4000,-1.97054,258.87,0.808779
309.3000,2.53428,258.847,0.808508
309.2000,-0.256364,258.533,0.804753
309.1000,1.21115,258.822,0.80821
309.0000,-0.730298,258.947,0.8097
308.9000,2.74377,258.335,0.802378
308.8000,1.18939,258.934,0.809551
308.7000,-0.322981,259.514,0.81648
308.6000,0.110139,259.087,0.811379
308.5000,1.99523,258.986,0.810174
308.4000,3.41284,257.782,0.79575
308.3000,3.13589,258.984,0.810147
308.2000,1.41048,258.898,0.809117
308.1000,-1.99855,258.284,0.801768
308.0000,0.0271015,257.901,0.797177
307.9000,3.50382,259.702,0.818724
307.8000,2.22502,258.904,0.809185
307.7000,2.81876,258.026,0.798672
307.6000,0.740859,259.026,0.810648
307.5000,-0.503624,258.431,0.803532
307.4000,-0.728566,257.934,0.797571
307.3000,3.33282,257.946,0.79772
307.2000,2.77786,258.676,0.806461
307.1000,-0.936295,258.704,0.8068
307.0000,-0.327764,259.096,0.811487
306.9000,-0.0948214,259.221,0.812976
306.8000,2.09294,256.49,0.780218
306.7000,-0.804391,259.761,0.819426
306.6000,2.96203,258.509,0.804468
306.5000,0.109518,257.905,0.797231
306.4000,-1.49707,258.211,0.800899
306.3000,0.926605,258.053,0.798997
306.2000,1.68238,258.807,0.808034
306.1000,3.89728,258.218,0.80098
306.0000,-0.302801,258.056,0.799038
305.9000,-0.696757,258.89,0.809022
305.8000,1.09689,258.952,0.809768
305.7000,4.43035,258.088,0.799419
305.6000,1.93024,257.921,0.797421
305.5000,-1.07732,258.774,0.80764
305.4000,2.43386,258.968,0.809957
305.3000,2.15452,258.482,0.804142
305.2000,-0.800626,258.359,0.802663
305.1000,1.90656,258.151,0.800179
305.0000,0.982822,258.67,0.806393
304.9000,2.48771,258.892,0.80905
304.8000,1.71701,258.543,0.804875
304.7000,1.57972,258.709,0.806854
304.6000,3.56371,258.51,0.804481
304.5000,1.76818,257.61,0.793682
304.4000,3.48247,258.263,0.801523
304.3000,0.603114,258.458,0.803857
304.2000,2.77222,258.301,0.801971
304.1000,2.23058,257.771,0.795614
304.0000,0.174401,257.396,0.79111
303.9000,1.04312,258.262,0.80151
303.8000,3.5724,259.628,0.817832
303.7000,-0.0836893,258.28,0.801727
303.6000,3.77567,258.335,0.802378
303.5000,4.1884,258.978,0.810079
303.4000,1.03718,258.863,0.808697
303.3000,0.830725,258.867,0.808752
303.2000,1.46751,258.473,0.804034
303.1000,2.72779,258.643,0.806068
303.0000,3.60145,258.718,0.806963
302.9000,3.39256,258.462,0.803898
302.8000,6.70647,258.5,0.804359
302.7000,4.1351,257.883,0.796959
302.6000,-1.51346,258.071,0.799215
302.5000,1.80711,258.078,0.799296
302.4000,2.72696,258.866,0.808738
302.3000,0.456495,257.781,0.795736
302.2000,2.74462,257.658,0.794267
302.1000,2.47336,256.922,0.785416
302.0000,2.91567,257.643,0.794077
301.9000,-0.0270128,258.089,0.799432
301.8000,-0.832137,257.315,0.790144
301.7000,-1.65358,258.424,0.80345
301.6000,3.36559,259.029,0.810689
301.5000,-0.189587,257.89,0.797041
301.4000,1.20324,257.902,0.79719
301.3000,3.66147,257.768,0.795586
301.2000,0.965928,258.104,0.799609
301.1000,0.865043,258.246,0.80132
301.0000,-0.0998245,258.327,0.802283
300.9000,0.0249521,258.079,0.79931
300.8000,3.32108,257.61,0.793682
300.7000,0.469557,257.89,0.797041
300.6000,0.681028,257.24,0.789245
300.5000,3.98582,258.13,0.799921
300.4000,0.0334118,258.189,0.800627
300.3000,-1.78574,258.35,0.802555
300.2000,3.91725,259.283,0.813721
300.1000,-0.555984,257.291,0.789858
300.0000,0.821194,255.902,0.773126
299.9000,3.33039,259.12,0.811772
299.8000,3.4257,258.228,0.801102
299.7000,-0.138624,259.483,0.816101
299.6000,3.32793,257.266,0.789558
299.5000,2.82934,257.839,0.796429
299.4000,0.394998,258.694,0.806678
299.3000,4.82827,258.126,0.79988
299.2000,-2.52123,258.24,0.801238
299.1000,3.50202,258.989,0.810201
299.0000,0.19222,259.802,0.819912
298.9000,1.37195,257.728,0.795097
298.8000,-0.626521,258.946,0.809686
298.7000,4.8964,257.469,0.791995
298.6000,-0.390997,258.588,0.805404
298.5000,2.89326,257.735,0.795192
298.4000,-2.55806,257.973,0.798046
298.3000,0.974531,258.671,0.806407
298.2000,0.193643,256.521,0.780586
298.1000,0.672795,258.798,0.807925
298.0000,0.917094,258.623,0.805824
297.9000,0.817207,257.402,0.791192
297.8000,0.941964,258.185,0.800586
297.7000,2.15055,258.706,0.806827
297.6000,3.10406,258.6,0.805553
297.5000,2.48742,257.896,0.797122
297.4000,2.22021,257.768,0.795586
297.3000,-0.775987,258.091,0.799459
297.2000,1.24276,257.755,0.795423
297.1000,0.686466,257.73,0.795124
297.0000,3.49384,256.923,0.78543
296.9000,-0.0115965,257.468,0.791981
296.8000,0.972611,257.393,0.791083
296.7000,4.22592,257.469,0.791995
296.6000,-0.65332,258.178,0.800505
296.5000,1.76845,257.339,0.79043
296.4000,3.08296,258.599,0.805539
296.3000,0.540433,256.921,0.785402
296.2000,3.75403,258.636,0.805987
296.1000,2.23524,258.048,0.798943
296.0000,0.207805,258.235,0.801184
295.9000,0.49624,258.151,0.800179
295.8000,-1.22822,258.146,0.800111
295.7000,-0.846562,257.712,0.794906
295.6000,-1.92512,258.229,0.801116
295.5000,2.46929,258.425,0.803464
295.4000,-1.05765,257.001,0.78637
295.3000,-0.23767,257.478,0.792104
295.2000,1.05777,258.616,0.805743
295.1000,3.55933,257.792,0.795872
295.0000,1.4131,258.04,0.798848
294.9000,-0.991481,257.887,0.797014
294.8000,1.00126,257.929,0.797517
294.7000,2.724,258.541,0.804848
294.6000,0.96603,257.759,0.795478
294.5000,1.91434,257.985,0.798182
294.4000,0.354475,255.969,0.773933
294.3000,2.4918,258.839,0.808413
294.2000,2.13279,257.827,0.796293
294.1000,4.16794,257.652,0.794186
294.0000,-1.30635,257.079,0.787311
293.9000,2.59803,258.198,0.800736
293.8000,-1.07207,257.69,0.794648
293.7000,5.60893,257.203,0.788795
293.6000,2.83982,257.461,0.7919
293.5000,0.678151,257.433,0.79156
293.4000,-0.0927381,258.326,0.80227
293.3000,2.28447,258.128,0.799894
293.2000,-0.0882489,257.867,0.796769
293.1000,-0.275408,258.078,0.799296
293.0000,-0.737759,257.929,0.797517
292.9000,1.85113,258.024,0.798658
292.8000,2.4817,257.895,0.797109
292.7000,2.85715,257.032,0.786738
292.6000,1.74673,258.717,0.806949
292.5000,1.55143,258.93,0.809497
292.4000,-0.128012,257.492,0.792267
292.3000,2.04722,258.58,0.805309
292.2000,1.44174,258.044,0.798889
292.1000,1.56303,257.258,0.789463
292.0000,1.21575,256.986,0.786193
291.9000,1.26069,258.07,0.799201
291.8000,-0.441497,257.522,0.792635
291.7000,3.95404,257.376,0.790879
291.6000,1.15364,257.051,0.78697
291.5000,2.97863,257.36,0.790688
291.4000,1.21777,257.636,0.793995
291.3000,0.0147576,257.115,0.787733
291.2000,1.16942,257.934,0.797571
291.1000,-0.0295283,257.661,0.794294
291.0000,1.69779,256.811,0.78408
290.9000,2.74177,257.406,0.791233
290.8000,-0.809908,257.189,0.788632
290.7000,2.67352,257.534,0.792771
290.6000,4.50361,258.2,0.800763
290.5000,-0.016155,258.521,0.804603
290.4000,-0.801171,256.999,0.786343
290.3000,3.48909,257.59,0.793451
290.2000,0.617799,257.639,0.794036
290.1000,-0.694204,257.909,0.797272
290.0000,-0.443332,258.864,0.808711
289.9000,2.89246,257.843,0.796483
289.8000,0.34042,259.051,0.810946
289.7000,0.885064,259.071,0.811189
289.6000,1.01164,258.575,0.805255
289.5000,2.88236,258.099,0.799554
289.4000,5.18037,258.018,0.798576
289.3000,1.46144,258.56,0.805078
289.2000,-0.266381,258.083,0.799364
289.1000,0.266279,259.206,0.8128
289.0000,1.92904,258.554,0.804997
288.9000,-0.793093,258.172,0.800423
288.8000,2.74371,258.848,0.808521
288.7000,1.92114,258.217,0.800967
288.6000,3.07985,259.242,0.813233
288.5000,3.84761,258.62,0.805797
288.4000,5.48721,258.65,0.806149
288.3000,-0.240233,258.648,0.806122
288.2000,0.606492,259.207,0.812814
288.1000,-3.58508,258.027,0.798685
288.0000,-0.0282045,258.12,0.799799
287.9000,0.879357,259.011,0.810472
287.8000,0.173101,258.207,0.800844
287.7000,0.801656,258.874,0.808833
287.6000,-0.477038,258.112,0.799704
287.5000,0.436712,258.101,0.799582
287.4000,3.10486,257.401,0.791178
287.3000,3.94959,256.954,0.785798
287.2000,-1.92451,258.27,0.801605
287.1000,0.539017,258.173,0.800437
287.0000,3.65888,257.454,0.791818
286.9000,2.5003,258.546,0.804902
286.8000,0.31206,257.669,0.79439
286.7000,-0.292474,258.605,0.805607
286.6000,3.42744,259.501,0.816318
286.5000,3.42688,258.423,0.803437
286.4000,-0.174572,258.159,0.800274
286.3000,0.0129987,259.602,0.817521
286.2000,-0.250559,256.567,0.781146
286.1000,5.09511,258.427,0.803477
286.0000,1.76453,258.669,0.80638
285.9000,0.885983,258.418,0.803369
285.8000,0.794464,258.661,0.806285
285.7000,1.39606,259.502,0.816331
285.6000,-0.918613,256.449,0.779726
285.5000,1.72917,258.31,0.80208
285.4000,2.55284,259.194,0.812652
285.3000,1.14656,258.386,0.802989
285.2000,2.05037,259.746,0.819237
285.1000,0.776576,259.91,0.821195
285.0000,3.02531,258.163,0.800315
284.9000,0.54901,258.995,0.810282
284.8000,2.34257,258.483,0.804156
284.7000,1.30993,258.899,0.809131
284.6000,2.54273,258.235,0.801184
284.5000,-0.569251,257.49,0.79224
284.4000,3.78781,257.933,0.797557
284.3000,1.94146,258.236,0.801197
284.2000,-0.0918179,258.636,0.805987
284.1000,2.57735,257.857,0.796647
284.0000,0.193065,258.671,0.806407
283.9000,1.79432,258.412,0.803301
283.8000,0.976921,259.125,0.811826
283.7000,1.40123,257.796,0.795913
283.6000,-0.981249,259.381,0.814884
283.5000,0.260192,258.637,0.806
283.4000,0.877815,258.124,0.799853
283.3000,3.441,258.098,0.799541
283.2000,-1.30063,258.709,0.806854
283.1000,0.226827,258.122,0.799826
283.0000,4.33798,259.001,0.81035
282.9000,0.562641,257.699,0.794757
282.8000,3.39708,258.524,0.804644
282.7000,0.754235,258.677,0.806475
282.6000,0.408601,258.72,0.80699
282.5000,1.4548,258.52,0.80459
282.4000,0.484989,259.291,0.813815
282.3000,2.16211,257.749,0.795355
282.2000,0.691057,258.233,0.801157
282.1000,1.97615,257.767,0.795573
282.0000,1.0426,257.555,0.793029
281.9000,0.804816,259.13,0.811894
281.8000,3.24086,257.062,0.787106
281.7000,2.24783,259.045,0.810878
281.6000,0.111828,257.683,0.794566
281.5000,0.747931,257.992,0.798264
281.4000,0.0722572,257.237,0.789204
281.3000,1.2563,258.206,0.800831
281.2000,0.450809,258.108,0.799663
281.1000,2.79007,258.831,0.808318
281.0000,0.863267,259.274,0.813612
280.9000,-1.27707,257.5,0.792363
280.8000,1.03237,259.045,0.810878
280.7000,4.53648,258.185,0.800586
280.6000,2.51238,257.933,0.797557
280.5000,4.36126,257.942,0.797666
280.4000,1.90038,258.744,0.807274
280.3000,0.37816,257.86,0.796687
280.2000,-0.415023,258.921,0.809388
280.1000,3.84671,258.982,0.81012
280.0000,-1.55579,258.131,0.799935
279.9000,1.16397,256.462,0.779877
279.8000,2.37014,259.761,0.819426
279.7000,-2.59216,258.637,0.806
279.6000,0.0434205,258.786,0.807776
279.5000,0.814415,257.352,0.790593
279.4000,0.586366,258.636,0.805987
279.3000,1.01632,258.029,0.798712
279.2000,0.0084173,258.974,0.810025
279.1000,-0.704107,259.323,0.814194
279.0000,-1.20609,258.182,0.800546
278.9000,0.299275,258.341,0.802446
278.8000,-1.31396,257.699,0.794757
278.7000,0.604838,257.916,0.797353
278.6000,1.6281,257.121,0.787815
278.5000,3.73633,257.25,0.789368
278.4000,2.09324,258.866,0.808738
278.3000,3.33365,257.11,0.787678
278.2000,-0.163359,258.611,0.805688
278.1000,-1.11217,257.129,0.78791
278.0000,0.661934,257.814,0.79613
277.9000,0.39773,259.5,0.816304
277.8000,1.85184,257.384,0.790974
277.7000,-0.305022,258.648,0.806122
277.6000,-0.383273,258.351,0.802568
277.5000,0.518197,257.371,0.790811
277.4000,0.632979,258.027,0.798685
277.3000,1.91045,258.678,0.806488
277.2000,1.95687,257.418,0.791383
277.1000,-1.57142,258.318,0.802175
277.0000,1.2122,257.743,0.795287
276.9000,-0.0622673,257.891,0.797054
276.8000,0.696471,256.826,0.784257
276.7000,0.0847095,257.467,0.791968
276.6000,1.01545,259.202,0.812746
276.5000,0.29872,258.091,0.799459
276.4000,0.541791,257.431,0.791532
276.3000,-0.711409,257.643,0.794077
276.2000,1.3109,257.945,0.797707
276.1000,3.69232,257.509,0.792471
276.0000,2.23067,257.749,0.795355
275.9000,0.935308,258.041,0.798862
275.8000,2.1904,257.245,0.789299
275.7000,-1.16759,258.019,0.79859
275.6000,1.80898,258.269,0.801591
275.5000,-0.628117,257.056,0.787024
275.4000,3.13688,256.696,0.782702
275.3000,1.00298,257.619,0.793791
275.2000,4.96798,257.593,0.793478
275.1000,-0.780018,256.733,0.783138
275.0000,4.19541,258.148,0.800138
274.9000,-2.24306,257.485,0.792186
274.8000,-0.451767,259.019,0.810567
274.7000,1.8567,257.586,0.793397
274.6000,1.28855,258.193,0.800681
274.5000,0.300341,256.868,0.784761
274.4000,0.274771,257.797,0.795926
274.3000,-1.13807,258.087,0.799405
274.2000,3.67068,256.954,0.785798
274.1000,1.77855,257.743,0.795287
274.0000,1.30313,257.844,0.796497
273.9000,1.44755,259.403,0.815155
273.8000,1.9959,257.475,0.792063
273.7000,-1.03222,258.066,0.79916
273.6000,1.89891,257.531,0.792743
273.5000,2.88058,258.069,0.799188
273.4000,1.32272,257.916,0.797353
273.3000,0.585456,257.814,0.79613
273.2000,1.66979,258.13,0.799921
273.1000,2.94816,258.026,0.798672
273.0000,5.80117,257.493,0.792281
272.9000,-1.82038,258.139,0.80003
272.8000,0.933294,257.35,0.790566
272.7000,3.09152,258.61,0.805675
272.6000,1.77574,258.088,0.799419
272.5000,-0.226697,257.619,0.793791
272.4000,2.64402,257.592,0.793465
272.3000,1.04154,257.229,0.789109
272.2000,0.894326,257.341,0.790457
272.1000,-2.29729,257.024,0.786643
272.0000,0.345384,257.184,0.788564
271.9000,3.34989,256.98,0.786111
271.8000,1.50819,257.68,0.794526
271.7000,3.82506,257.049,0.786942
271.6000,1.41856,258.032,0.798753
271.5000,1.94138,257.449,0.79175
271.4000,1.9274,257.555,0.793029
271.3000,-0.401476,256.592,0.781447
271.2000,1.99611,257.525,0.792662
271.1000,-2.44602,257.904,0.797217
271.0000,-0.3239,257.316,0.790157
270.9000,3.83508,257.646,0.794118
270.8000,1.48792,257.831,0.796334
270.7000,0.759055,256.401,0.779139
270.6000,-1.13293,256.526,0.780655
270.5000,0.313931,257.39,0.791042
270.4000,0.621672,258.026,0.798672
270.3000,2.00771,259.206,0.8128
270.2000,0.161054,257.101,0.787569
270.1000,0.958883,257.313,0.790117
270.0000,2.08905,257.511,0.792499
269.9000,3.3687,257.326,0.79028
269.8000,0.544857,257.556,0.793043
269.7000,1.09608,257.987,0.79821
269.6000,1.03738,259.002,0.810364
269.5000,-0.712768,257.666,0.794362
269.4000,1.6018,258.808,0.808047
269.3000,-3.80616,257.065,0.787133
269.2000,0.788275,256.861,0.78468
269.1000,2.55906,257.718,0.794988
269.0000,1.99446,258.512,0.804495
268.9000,0.933119,258.208,0.800858
268.8000,-1.60488,258.907,0.809226
268.7000,1.12203,258.261,0.801496
268.6000,-1.01162,257.936,0.797598
268.5000,-1.72741,257.893,0.797082
268.4000,-1.2761,257.857,0.796647
268.3000,2.01935,257.987,0.79821
268.2000,2.61221,257.612,0.79371
268.1000,0.0382473,257.365,0.790743
268.0000,0.518267,257.725,0.79507
267.9000,-2.30498,257.994,0.798291
267.8000,-0.228959,258.662,0.806298
267.7000,-0.734435,256.309,0.778033
267.6000,-0.298194,257.96,0.797883
267.5000,4.6115,257.893,0.797082
267.4000,1.40899,257.842,0.79647
267.3000,0.445186,258.125,0.799867
267.2000,-0.0955665,257.474,0.792049
267.1000,-1.99097,257.151,0.788169
267.0000,0.572527,257.556,0.793043
266.9000,1.19851,257.655,0.794226
266.8000,1.13813,258.142,0.80007
266.7000,1.10911,257.632,0.793954
266.6000,-0.346651,258.057,0.799052
266.5000,3.79754,258.181,0.800532
266.4000,-0.2141,257.922,0.797435
266.3000,0.563286,257.943,0.79768
266.2000,1.20358,257.826,0.79628
266.1000,2.45198,257.799,0.795954
266.0000,0.638257,258.078,0.799296
265.9000,-1.28717,258.105,0.799622
265.8000,0.0597633,256.696,0.782702
265.7000,0.857514,258.375,0.802853
265.6000,-1.14812,257.922,0.797435
265.5000,2.01646,258.2,0.800763
265.4000,-0.516714,258.223,0.801034
265.3000,-1.2819,258.232,0.801143
265.2000,0.550591,258.203,0.800804
265.1000,0.789487,257.857,0.796647
265.0000,3.46751,257.835,0.796388
264.9000,1.00044,257.963,0.797924
264.8000,-0.578811,258.496,0.804305
264.7000,0.402278,258.215,0.800939
264.6000,-3.73061,257.528,0.792703
264.5000,0.0205824,258.531,0.804726
264.4000,-0.380891,258.466,0.803952
264.3000,1.77013,256.902,0.78517
264.2000,0.479447,257.518,0.79258
264.1000,2.77185,258.138,0.800016
264.0000,1.84679,258.714,0.806922
263.9000,1.17111,256.775,0.783643
263.8000,0.440268,258.646,0.806109
263.7000,1.23062,259.087,0.811379
263.6000,0.690762,258.054,0.799011
263.5000,0.517264,258.208,0.800858
263.4000,3.62618,258.734,0.807153
263.3000,0.0856901,258.092,0.799473
263.2000,-0.416787,258.702,0.806773
263.1000,-0.341115,258.378,0.802894
263.0000,1.22131,258.578,0.805295
262.9000,-2.12388,258.319,0.802188
262.8000,-2.69706,258.517,0.804563
262.7000,-2.17628,257.133,0.787951
262.6000,-1.63131,257.483,0.792158
262.5000,-0.420428,259.508,0.816399
262.4000,4.16516,257.937,0.797612
262.3000,1.27211,258.653,0.80619
262.2000,0.42982,259.099,0.811514
262.1000,-1.31004,258.413,0.803315
262.0000,-0.873771,258.873,0.808819
261.9000,0.296209,259.006,0.810404
261.8000,-2.24314,258.722,0.807017
261.7000,0.174352,258.62,0.805797
261.6000,-0.923867,258.95,0.809741
261.5000,1.35836,258.922,0.809402
261.4000,-0.666101,257.592,0.793465
261.3000,2.90332,257.919,0.797394
261.2000,-0.749704,259.256,0.813396
261.1000,0.0454563,259.05,0.810932
261.0000,-0.365783,259.373,0.814789
260.9000,-0.760421,259.049,0.810919
260.8000,1.19416,258.685,0.80657
260.7000,2.22401,259.347,0.814478
260.6000,0.836888,259.705,0.818751
260.5000,0.280758,258.706,0.806827
260.4000,2.30257,258.117,0.799772
260.3000,-2.53015,259.041,0.810824
260.2000,-1.98825,259.099,0.811514
260.1000,2.19239,259.632,0.817886
260.0000,-0.885531,259.012,0.810485
259.9000,1.75733,259.578,0.817237
259.8000,-0.337646,259.029,0.810689
259.7000,3.73633,259.563,0.817061
259.6000,-0.00246392,259.727,0.819021
259.5000,-2.04891,260.24,0.825123
259.4000,0.308017,260.012,0.822411
259.3000,-2.27068,259.348,0.814492
259.2000,3.96994,259.798,0.819858
259.1000,1.4436,260.225,0.824948
259.0000,-4.08406,260.437,0.827469
258.9000,-0.335365,258.814,0.808115
258.8000,0.393656,258.644,0.806082
258.7000,1.45446,260.064,0.823031
258.6000,-0.337653,259.749,0.819278
258.5000,0.88371,259.748,0.819264
258.4000,-2.43079,258.431,0.803532
258.3000,-0.0329314,259.911,0.821209
258.2000,-1.60691,259.237,0.813166
258.1000,-0.773224,260.162,0.824206
258.0000,0.507847,259.537,0.81675
257.9000,-0.0507452,260.855,0.83244
257.8000,0.597027,261.11,0.835468
257.7000,-0.577006,259.566,0.817102
257.6000,1.36111,260.068,0.823085
257.5000,1.54907,260.453,0.827658
257.4000,0.551273,260.019,0.822492
257.3000,0.212683,260.522,0.82848
257.2000,-1.04075,260.536,0.828656
257.1000,-0.986856,260.625,0.829706
257.0000,0.484296,260.187,0.824502
256.9000,1.0501,260.492,0.82813
256.8000,4.32745,260.968,0.833786
256.7000,3.00715,259.994,0.822195
256.6000,-0.949356,260.705,0.830663
256.5000,-1.44836,260.305,0.825905
256.4000,-3.26057,259.727,0.819021
256.3000,-2.32379,260.62,0.829653
256.2000,-0.207367,260.183,0.824448
256.1000,-1.00104,259.926,0.821385
256.0000,2.66161,260.489,0.828089
255.9000,3.23974,260.471,0.827874
255.8000,0.636815,260.504,0.828265
255.7000,0.811045,260.962,0.833719
255.6000,-0.564858,260.8,0.831794
255.5000,-0.66393,262.211,0.848521
255.4000,1.33922,260.108,0.823558
255.3000,-3.12364,260.133,0.823855
255.2000,1.28313,261.388,0.838776
255.1000,1.22486,260.956,0.833639
255.0000,-1.60091,261.307,0.837808
254.9000,-1.29298,259.275,0.813626
254.8000,2.30962,261.382,0.838695
254.7000,0.935454,260.289,0.825716
254.6000,0.930489,260.522,0.82848
254.5000,-0.837054,260.428,0.827362
254.4000,1.66416,261.478,0.839838
254.3000,2.22574,262.244,0.84891
254.2000,0.637552,260.769,0.831417
254.1000,-1.37812,259.826,0.820196
254.0000,-2.1892,261.588,0.841141
253.9000,2.6108,261.926,0.845141
253.8000,3.77871,261.06,0.834876
253.7000,-0.940046,262.171,0.848052
253.6000,-1.34444,262.185,0.848213
253.5000,4.17118,261.95,0.845436
253.4000,2.50743,262.02,0.846255
253.3000,1.35855,263.639,0.865373
253.2000,1.31816,260.174,0.824341
253.1000,1.71911,261.449,0.839488
253.0000,1.15033,263.278,0.861127
252.9000,2.3224,260.639,0.829882
252.8000,-0.310138,263.308,0.861475
252.7000,0.345344,262.416,0.850947
252.6000,2.57861,262.382,0.850545
252.5000,2.27052,261.293,0.837647
252.4000,0.348841,263.178,0.859938
252.3000,-2.37009,262.084,0.847019
252.2000,-1.69208,261.854,0.844296
252.1000,-3.17266,261.161,0.836074
252.0000,-0.27627,262.8,0.855485
251.9000,1.46445,262.493,0.851857
251.8000,0.508986,261.53,0.840456
251.7000,-0.0458814,262.392,0.850665
251.6000,1.4224,261.924,0.845128
251.5000,2.58449,260.948,0.833544
251.4000,0.792873,262.834,0.855886
251.3000,1.49981,263.07,0.858668
251.2000,-2.51946,260.9,0.832979
251.1000,-0.401263,262.315,0.849754
251.0000,-0.684535,262.386,0.850585
250.9000,-0.206663,262.17,0.848038
250.8000,-1.87307,263.053,0.858468
250.7000,-1.56488,263.287,0.861234
250.6000,0.273432,262.058,0.846711
250.5000,2.93551,262.772,0.85515
250.4000,0.751096,263.35,0.861969
250.3000,0.841998,262.897,0.856622
250.2000,2.95793,263.779,0.867028
250.1000,-0.141505,262.894,0.856595
250.0000,0.620478,262.725,0.854602
249.9000,-2.44246,262.804,0.855525
249.8000,-0.995268,263.404,0.86261
249.7000,-1.1928,263.646,0.865454
249.6000,-3.48967,261.768,0.843276
249.5000,-2.88652,262.144,0.84773
249.4000,0.617118,263.341,0.861862
249.3000,-0.112363,262.57,0.852768
249.2000,-0.285188,262.486,0.851777
249.1000,-0.261746,262.413,0.850906
249.0000,1.01886,263.682,0.86588
248.9000,2.01451,263.052,0.858454
248.8000,-0.567952,263.223,0.860473
248.7000,2.33937,262.438,0.851201
248.6000,-1.72191,262.714,0.854468
248.5000,0.0406702,261.803,0.843692
248.4000,-1.75624,263.222,0.860459
248.3000,1.50302,263.073,0.858708
248.2000,-0.499312,263.431,0.86293
248.1000,1.00374,262.497,0.851898
248.0000,-1.74739,262.139,0.847663
247.9000,-1.45258,263.187,0.860045
247.8000,-1.354,262.279,0.849325
247.7000,-3.47209,263.268,0.861007
247.6000,-2.47136,263.715,0.866267
247.5000,-0.833156,263.132,0.859403
247.4000,-1.37245,263.123,0.859296
247.3000,2.90221,262.342,0.850076
247.2000,0.113788,263.331,0.861742
247.1000,-3.29773,263.831,0.867641
247.0000,-0.355783,262.691,0.8542
246.9000,1.02487,263.409,0.862663
246.8000,1.38695,263.576,0.864639
246.7000,0.655422,263.253,0.860833
246.6000,-2.0051,263.193,0.860125
246.5000,-0.503972,263.218,0.860419
246.4000,-5.05197,264.069,0.870441
246.3000,1.60589,263.314,0.861541
246.2000,-3.55904,263.964,0.869201
246.1000,-0.939498,263.438,0.863011
246.0000,-3.61727,263.389,0.862436
245.9000,-2.54062,263.197,0.860165
245.8000,-2.04194,261.501,0.840106
245.7000,-1.97316,263.495,0.863678
245.6000,-3.35801,264.141,0.87128
245.5000,1.47382,265.145,0.883067
245.4000,-1.16043,262.931,0.857023
245.3000,-2.55554,263.845,0.867801
245.2000,-1.84549,263.47,0.863385
245.1000,-1.72972,264.168,0.8716
245.0000,-1.38302,263.899,0.868441
244.9000,-2.71636,263.877,0.868175
244.8000,-3.23082,264.067,0.870414
244.7000,-0.271938,264.227,0.872293
244.6000,-1.88994,263.554,0.864372
244.5000,-2.48918,263.896,0.868401
244.4000,-4.67778,264.791,0.878921
244.3000,-2.443,266.64,0.900558
244.2000,-4.05516,264.464,0.875076
244.1000,-0.510848,263.653,0.865547
244.0000,-1.90155,264.179,0.871733
243.9000,-2.30473,265.813,0.890895
243.8000,-0.277336,266.175,0.895121
243.7000,-2.65115,264.892,0.880104
243.6000,-4.91289,265.064,0.882124
243.5000,-2.69978,264.757,0.878522
243.4000,-2.16583,263.913,0.868601
243.3000,-4.80653,265.767,0.890351
243.2000,-2.7313,264.458,0.875009
243.1000,-4.04776,264.186,0.871813
243.0000,-2.37016,263.69,0.865974
242.9000,-6.70829,264.827,0.879346
242.8000,-1.54763,263.506,0.863812
242.7000,-2.87848,264.603,0.876713
242.6000,-2.69168,266.737,0.901682
242.5000,-2.36046,265.332,0.885258
242.4000,-5.71333,265.886,0.891743
242.3000,-4.24579,265.046,0.881911
242.2000,-6.59755,264.466,0.875102
242.1000,-1.93748,266.499,0.898905
242.0000,-9.72437,264.704,0.877896
241.9000,-1.34645,265.163,0.883279
241.8000,-3.70742,267.7,0.912898
241.7000,-9.64207,265.897,0.891876
241.6000,-2.10856,265.945,0.892432
241.5000,-3.9187,265.619,0.888628
241.4000,-7.79394,266.529,0.899262
241.3000,-7.9294,266.245,0.895941
241.2000,-7.17914,264.832,0.879399
241.1000,-6.22863,265.243,0.884222
241.0000,-6.86255,266.328,0.896908
240.9000,-7.03712,265.942,0.892406
240.8000,-8.7518,266.039,0.893532
240.7000,-6.10631,267.171,0.90674
240.6000,-6.06645,265.913,0.892061
240.5000,-7.94907,267.967,0.916007
240.4000,-4.92671,267.636,0.912161
240.3000,-4.5871,265.846,0.891279
240.2000,-9.54683,266.605,0.900148
240.1000,-8.48646,266.369,0.897397
240.0000,-6.84358,267.312,0.908389
239.9000,-6.99345,267.406,0.909484
239.8000,-9.5488,268.553,0.922807
239.7000,-8.27145,267.676,0.912622
239.6000,-10.2098,267.472,0.910249
239.5000,-4.8183,267.615,0.91191
239.4000,-10.0342,268.372,0.920704
239.3000,-8.14242,267.457,0.910078
239.2000,-10.3579,267.892,0.915138
239.1000,-9.89029,267.548,0.911132
239.0000,-7.46589,267.773,0.913755
238.9000,-11.2057,267.949,0.915796
238.8000,-12.2353,268.778,0.925422
238.7000,-11.4285,269.396,0.932572
238.6000,-13.1261,268.426,0.921335
238.5000,-12.1164,269.448,0.933175
238.4000,-9.26898,269.363,0.932192
238.3000,-6.96148,269.613,0.935088
238.2000,-12.6548,270.024,0.939827
238.1000,-12.991,268.798,0.925645
238.0000,-10.7577,269.474,0.933477
237.9000,-16.7578,269.685,0.935913
237.8000,-16.6272,270.266,0.942625
237.7000,-15.4379,270.2,0.941867
237.6000,-15.0341,270.749,0.94819
237.5000,-14.0719,269.925,0.938689
237.4000,-13.8411,270.403,0.944207
237.3000,-14.5401,269.628,0.935259
237.2000,-18.2244,270.95,0.950513
237.1000,-14.0163,271.751,0.959725
237.0000,-15.8455,270.746,0.948164
236.9000,-14.3891,271.565,0.957577
236.8000,-16.477,271.943,0.961923
236.7000,-17.3229,271.427,0.956001
236.6000,-16.1534,271.209,0.953486
236.5000,-20.2161,272.246,0.965394
236.4000,-17.9022,271.954,0.962053
236.3000,-20.2768,272.947,0.973429
236.2000,-18.1985,272.481,0.968096
236.1000,-16.7097,273.558,0.980411
236.0000,-18.0357,272.983,0.973844
235.9000,-21.2076,273.052,0.974634
235.8000,-18.8996,273.147,0.975723
235.7000,-19.8285,273.747,0.982572
235.6000,-19.0014,273.383,0.978417
235.5000,-17.3434,273.987,0.985313
235.4000,-20.3088,274.71,0.99355
235.3000,-22.5604,274.662,0.993008
235.2000,-22.4512,275.001,0.996863
235.1000,-18.1876,274.403,0.990053
235.0000,-24.1748,275.124,0.998254
234.9000,-21.6092,274.966,0.996464
234.8000,-25.4749,276.021,1.00844
234.7000,-26.2081,276.129,1.00966
234.6000,-25.1796,275.624,1.00394
234.5000,-25.828,276.623,1.01526
234.4000,-25.2088,277.309,1.02302
234.3000,-26.8329,275.488,1.0024
234.2000,-23.8797,277.298,1.02289
234.1000,-24.1739,276.626,1.0153
234.0000,-24.1202,277.907,1.02977
233.9000,-28.0394,278.297,1.03416
233.8000,-33.7115,277.543,1.02565
233.7000,-27.5907,277.91,1.0298
233.6000,-31.1506,277.817,1.02875
233.5000,-30.348,278.547,1.03697
233.4000,-30.3846,279.273,1.04513
233.3000,-31.8969,278.648,1.03811
233.2000,-34.9856,279.098,1.04317
233.1000,-31.4311,279.045,1.04257
233.0000,-27.951,279.288,1.0453
232.9000,-36.3924,280.625,1.06028
232.8000,-33.0392,278.299,1.03419
232.7000,-33.0063,279.411,1.04668
232.6000,-33.4534,280.677,1.06086
232.5000,-33.7597,280.977,1.06422
232.4000,-35.0486,282.099,1.07673
232.3000,-34.5298,281.147,1.06611
232.2000,-36.3149,281.185,1.06654
232.1000,-36.6191,282.322,1.07921
232.0000,-35.52,282.279,1.07873
231.9000,-39.1074,282.056,1.07625
231.8000,-36.5123,283.172,1.08865
231.7000,-37.8847,282.108,1.07683
231.6000,-39.5115,283.14,1.0883
231.5000,-38.1726,282.954,1.08624
231.4000,-41.3015,283.148,1.08839
231.3000,-40.8966,282.802,1.08455
231.2000,-40.6962,284.544,1.10385
231.1000,-38.9041,283.641,1.09386
231.0000,-39.9317,285.772,1.1174
230.9000,-44.7158,284.526,1.10365
230.8000,-41.0791,285.091,1.1099
230.7000,-39.2435,284.486,1.10321
230.6000,-45.9771,284.156,1.09957
230.5000,-43.6031,285.727,1.1169
230.4000,-39.2066,286.075,1.12074
230.3000,-48.1396,286.002,1.11994
230.2000,-41.4712,286.109,1.12111
230.1000,-42.5772,286.238,1.12253
230.0000,-43.7701,285.381,1.1131
229.9000,-50.6437,286.039,1.12035
229.8000,-41.9189,286.009,1.12001
229.7000,-46.1001,286.49,1.12531
229.6000,-46.8858,286.518,1.12561
229.5000,-45.599,288.044,1.14234
229.4000,-51.0176,288.385,1.14607
229.3000,-48.1052,287.899,1.14076
229.2000,-46.5837,287.703,1.13861
229.1000,-47.2414,288.135,1.14334
229.0000,-45.359,286.997,1.13087
228.9000,-47.8442,289.31,1.15617
228.8000,-48.1111,288.411,1.14636
228.7000,-47.1801,289.569,1.159
228.6000,-49.8451,289.77,1.16118
228.5000,-49.4755,288.016,1.14203
228.4000,-50.6805,290.427,1.16833
228.3000,-51.7301,291.264,1.17742
228.2000,-56.1578,291.783,1.18304
228.1000,-51.1032,291.252,1.17728
228.0000,-54.4043,291.988,1.18526
227.9000,-51.4931,290.199,1.16585
227.8000,-50.7809,291.597,1.18103
227.7000,-54.8356,291.703,1.18217
227.6000,-58.7927,292.461,1.19037
227.5000,-54.7354,291.484,1.1798
227.4000,-55.3377,293.216,1.19852
227.3000,-55.8593,293.334,1.1998
227.2000,-57.5456,294.794,1.21549
227.1000,-55.4243,294.52,1.21256
227.0000,-56.8156,295.296,1.22088
226.9000,-53.0401,294.091,1.20794
226.8000,-56.1034,294.893,1.21656
226.7000,-56.1503,294.228,1.20942
226.6000,-61.1143,294.838,1.21597
226.5000,-58.5784,295.196,1.21981
226.4000,-60.3192,295.411,1.22211
226.3000,-65.4528,296.154,1.23007
226.2000,-56.9427,296.378,1.23246
226.1000,-61.8899,296.12,1.22971
226.0000,-55.4971,297.088,1.24004
225.9000,-63.9416,297.324,1.24255
225.8000,-57.9705,296.689,1.23578
225.7000,-63.8746,297.905,1.24874
225.6000,-63.3235,297.062,1.23976
225.5000,-65.8844,298.671,1.25688
225.4000,-59.0851,297.306,1.24236
225.3000,-64.1493,299.084,1.26127
225.2000,-66.0131,298.728,1.25748
225.1000,-64.939,298.128,1.25112
225.0000,-58.5112,299.158,1.26205
224.9000,-61.6668,298.246,1.25237
224.8000,-62.0608,300.312,1.27426
224.7000,-64.5122,299.982,1.27078
224.6000,-60.7386,300.222,1.27332
224.5000,-68.0939,300.979,1.28131
224.4000,-66.5791,300.718,1.27856
224.3000,-64.7224,301.739,1.28932
224.2000,-66.2037,301.952,1.29156
224.1000,-66.0999,302.733,1.29977
224.0000,-67.8459,301.227,1.28393
223.9000,-61.13,302.224,1.29442
223.8000,-65.3034,302.949,1.30204
223.7000,-62.3391,302.388,1.29615
223.6000,-68.2323,303.484,1.30765
223.5000,-61.7697,302.535,1.29769
223.4000,-65.1909,303.39,1.30666
223.3000,-66.083,302.791,1.30037
223.2000,-67.2695,304.231,1.31546
223.1000,-63.7593,304.36,1.31681
223.0000,-67.5413,304.972,1.3232
222.9000,-67.5104,304.885,1.32229
222.8000,-67.2414,305.446,1.32814
222.7000,-64.7187,305.363,1.32728
222.6000,-69.9316,306.601,1.34016
222.5000,-62.1941,305.662,1.33039
222.4000,-66.524,306.692,1.3411
222.3000,-70.0974,307.57,1.35021
222.2000,-70.3871,308.24,1.35714
222.1000,-68.107,307.986,1.35452
222.0000,-68.4023,308.111,1.35581
221.9000,-67.5477,307.52,1.3497
221.8000,-65.1016,307.416,1.34862
221.7000,-64.5629,308.518,1.36003
221.6000,-64.3299,308.416,1.35897
221.5000,-67.4665,309.341,1.36852
221.4000,-69.0138,308.946,1.36444
221.3000,-67.8394,309.672,1.37193
221.2000,-61.5889,310.013,1.37544
221.1000,-67.3761,310.164,1.37699
221.0000,-68.9628,309.838,1.37364
220.9000,-70.1094,309.955,1.37484
220.8000,-64.3012,311.13,1.38692
220.7000,-66.3653,310.901,1.38457
220.6000,-69.1938,310.956,1.38513
220.5000,-72.9876,312.153,1.3974
220.4000,-67.6713,311.864,1.39445
220.3000,-66.469,311.965,1.39548
220.2000,-66.7311,312.354,1.39946
220.1000,-64.4222,312.489,1.40084
220.0000,-63.7732,312.168,1.39756
219.9000,-64.752,313.048,1.40655
219.8000,-66.3402,314.027,1.41654
219.7000,-72.5202,314.736,1.42374
219.6000,-65.6707,313.703,1.41323
219.5000,-61.7008,315.486,1.43135
219.4000,-65.4474,315.149,1.42794
219.3000,-68.1389,315.665,1.43317
219.2000,-69.9998,316.201,1.4386
219.1000,-66.7007,315.205,1.4285
219.0000,-59.5538,315.958,1.43614
218.9000,-66.2115,316.797,1.44463
218.8000,-65.7416,317.027,1.44695
218.7000,-64.6536,317.334,1.45005
218.6000,-68.9698,317.6,1.45274
218.5000,-65.7215,317.621,1.45296
218.4000,-60.0578,319.075,1.46759
218.3000,-67.3026,318.396,1.46077
218.2000,-67.0475,318.842,1.46525
218.1000,-65.7974,319.343,1.47028
218.0000,-63.1187,319.824,1.47511
217.9000,-68.1127,320.047,1.47735
217.8000,-68.5992,320.143,1.4783
217.7000,-65.0797,320.604,1.48292
217.6000,-71.5474,321.117,1.48805
217.5000,-72.1463,321.65,1.49337
217.4000,-72.6922,320.397,1.48086
217.3000,-64.821,321.895,1.49582
217.2000,-64.651,322.034,1.4972
217.1000,-68.2544,323.024,1.50706
217.0000,-69.1416,323.351,1.51032
216.9000,-61.5932,323.508,1.51187
216.8000,-66.2825,323.995,1.51671
216.7000,-63.6324,323.882,1.51559
216.6000,-66.929,324.703,1.52373
216.5000,-66.1369,325.008,1.52675
216.4000,-62.2446,325.382,1.53044
216.3000,-62.2155,325.906,1.53562
216.2000,-64.6157,325.469,1.53131
216.1000,-64.9323,325.517,1.53178
216.0000,-65.6202,327.054,1.54694
215.9000,-70.3547,327.522,1.55154
215.8000,-63.6787,327.996,1.5562
215.7000,-64.1489,327.774,1.55401
215.6000,-61.8134,328.028,1.55651
215.5000,-69.3894,329.25,1.56849
215.4000,-66.7333,328.467,1.56082
215.3000,-65.9919,331.452,1.58998
215.2000,-63.8646,329.484,1.57078
215.1000,-67.3599,329.476,1.5707
215.0000,-69.3951,330.487,1.58058
214.9000,-66.0356,331.477,1.59022
214.8000,-67.3257,331.622,1.59163
214.7000,-58.7678,332.008,1.59539
214.6000,-63.0115,332.735,1.60245
214.5000,-66.4331,331.962,1.59494
214.4000,-59.336,333.145,1.60642
214.3000,-64.4184,332.783,1.60292
214.2000,-68.1793,333.49,1.60977
214.1000,-65.4081,334.032,1.61501
214.0000,-57.0364,335.47,1.62889
213.9000,-68.1618,334.849,1.6229
213.8000,-61.834,335.638,1.63052
213.7000,-63.2222,335.684,1.63095
213.6000,-64.7764,336.079,1.63476
213.5000,-62.8263,336.904,1.64269
213.4000,-66.5204,337.443,1.64786
213.3000,-66.6582,337.907,1.6523
213.2000,-67.2356,338.417,1.65718
213.1000,-66.6569,338.486,1.65784
213.0000,-65.4416,339.051,1.66325
212.9000,-67.4339,339.328,1.66589
212.8000,-70.3696,339.97,1.67201
212.7000,-64.2338,339.91,1.67144
212.6000,-71.1121,340.882,1.6807
212.5000,-69.0291,341.648,1.68797
212.4000,-58.5068,341.693,1.6884
212.3000,-63.9022,342.595,1.69695
212.2000,-60.8507,343.216,1.70282
212.1000,-61.4168,342.682,1.69776
212.0000,-65.547,344.37,1.71371
211.9000,-63.2478,344.673,1.71657
211.8000,-58.5538,345.853,1.72767
211.7000,-62.8752,346.348,1.73232
211.6000,-59.7827,347.155,1.73988
211.5000,-65.7087,346.313,1.73199
211.4000,-63.9613,347.021,1.73863
211.3000,-73.4245,348.169,1.74936
211.2000,-67.3333,349.83,1.76485
211.1000,-63.1874,349.513,1.76189
211.0000,-59.6709,350.078,1.76715
210.9000,-54.0432,349.976,1.76621
210.8000,-67.6168,351.649,1.78173
210.7000,-60.5248,352.147,1.78634
210.6000,-58.4475,352.519,1.78978
210.5000,-63.8854,352.974,1.79399
210.4000,-67.7418,354.243,1.80569
210.3000,-68.6061,354.575,1.80875
210.2000,-62.1313,354.778,1.81061
210.1000,-57.0865,356.21,1.82376
210.0000,-70.5307,357.237,1.83315
209.9000,-63.0419,357.662,1.83704
209.8000,-63.6704,358.311,1.84296
209.7000,-60.8715,359.217,1.85122
209.6000,-71.9972,360.118,1.8594
209.5000,-64.0816,361.426,1.87126
209.4000,-62.368,361.456,1.87154
209.3000,-65.5766,362.79,1.88359
209.2000,-61.16,364.213,1.89641
209.1000,-57.9872,364.133,1.89569
209.0000,-63.2103,365.174,1.90504
208.9000,-61.3862,365.964,1.91213
208.8000,-66.6262,366.536,1.91725
208.7000,-62.1944,367.708,1.92772
208.6000,-64.9062,369.192,1.94094
208.5000,-60.7367,369.142,1.94049
208.4000,-62.5155,370.204,1.94993
208.3000,-51.4005,371.067,1.95758
208.2000,-57.1203,372.408,1.96943
208.1000,-56.7302,373.444,1.97857
208.0000,-56.0466,374.091,1.98427
207.9000,-54.2392,375.698,1.99837
207.8000,-58.1072,377.248,2.01193
207.7000,-57.4547,378.241,2.02059
207.6000,-67.9231,378.544,2.02324
207.5000,-59.0566,380.222,2.03782
207.4000,-59.8674,381.153,2.04588
207.3000,-62.7492,382.324,2.05601
207.2000,-57.2343,382.948,2.0614
207.1000,-49.0482,384.814,2.07745
207.0000,-57.1624,385.345,2.08201
206.9000,-59.2079,385.366,2.0822
206.8000,-46.8361,387.409,2.09968
206.7000,-51.0165,388.121,2.10576
206.6000,-57.3335,389.353,2.11624
206.5000,-44.5937,390.719,2.12785
206.4000,-49.6768,391.803,2.13703
206.3000,-48.2033,393.365,2.15022
206.2000,-48.491,395.412,2.16745
206.1000,-42.968,396.899,2.1799
206.0000,-51.5354,397.167,2.18215
205.9000,-38.5469,398.818,2.19593
205.8000,-42.2183,400.332,2.20853
205.7000,-37.9926,401.693,2.21982
205.6000,-43.6896,403.068,2.2312
205.5000,-37.7338,404.402,2.2422
205.4000,-29.6765,405.422,2.25059
205.3000,-40.1698,406.855,2.26236
205.2000,-45.304,409.806,2.28647
205.1000,-47.3218,410.866,2.29509
205.0000,-39.425,412.29,2.30666
204.9000,-40.3754,413.761,2.31856
204.8000,-40.4021,415.056,2.32901
204.7000,-33.7133,417.217,2.34638
204.6000,-25.8589,418.477,2.35648
204.5000,-23.4444,420.137,2.36975
204.4000,-36.2429,421.609,2.38147
204.3000,-29.9574,424.03,2.40068
204.2000,-25.7041,424.824,2.40696
204.1000,-18.0041,427.049,2.4245
204.0000,-32.8574,428.547,2.43627
203.9000,-16.3227,430.975,2.45528
203.8000,-23.3157,433.191,2.47254
203.7000,-20.7901,435.097,2.48733
203.6000,-22.6746,436.356,2.49707
203.5000,-3.04306,438.849,2.51629
203.4000,-25.5807,440.465,2.5287
203.3000,-14.423,441.357,2.53553
203.2000,-2.58245,443.91,2.55501
203.1000,-10.9798,446.102,2.57168
203.0000,-12.212,447.783,2.5844
202.9000,-10.2493,449.446,2.59695
202.8000,-9.86403,450.743,2.60672
202.7000,-20.2604,453.407,2.6267
202.6000,-15.3737,454.937,2.63812
202.5000,-15.8289,457.326,2.65591
202.4000,-21.667,459.011,2.6684
202.3000,-4.16239,461.021,2.68326
202.2000,-1.42931,463.803,2.70372
202.1000,-3.53186,466.096,2.72052
202.0000,-6.41417,468.917,2.74108
201.9000,3.02555,470.897,2.75545
201.8000,-6.87321,473.941,2.77744
201.7000,-4.69568,476.048,2.7926
201.6000,-6.18892,478.542,2.81046
201.5000,5.19943,480.7,2.82586
201.4000,-4.28411,483.067,2.84268
201.3000,22.3447,485.807,2.86206
201.2000,1.894,487.893,2.87676
201.1000,7.5919,490.603,2.89577
201.0000,10.4884,492.478,2.90886
200.9000,4.76635,495.64,2.93086
200.8000,4.36347,497.191,2.94161
200.7000,-8.9089,499.027,2.95429
200.6000,9.72794,501.956,2.97445
200.5000,9.51278,504.916,2.99472
200.4000,11.1386,507.911,3.01513
200.3000,1.68304,510.491,3.03262
200.2000,-7.9828,513.443,3.05255
200.1000,14.6433,516.579,3.07361
200.0000,4.2967,519.616,3.09391
199.9000,22.741,522.012,3.10985
199.8000,13.3807,525.389,3.13221
199.7000,14.72,527.645,3.14708
199.6000,14.7794,530.47,3.16563
199.5000,22.5494,532.604,3.17958
199.4000,26.0575,534.869,3.19434
199.3000,27.5176,536.952,3.20787
199.2000,12.137,539.719,3.22577
199.1000,2.42443,543.998,3.2533
199.0000,6.8763,545.395,3.26225
198.9000,22.383,547.787,3.27752
198.8000,11.6466,552.392,3.30677
198.7000,27.0819,554.891,3.32256
198.6000,24.186,558.692,3.34645
198.5000,3.65519,561.83,3.36608
198.4000,29.105,565.563,3.3893
198.3000,12.7946,568.462,3.40725
198.2000,22.042,571.229,3.42431
198.1000,24.149,573.572,3.4387
198.0000,20.7484,576.924,3.45919
197.9000,35.4665,580.09,3.47846
197.8000,19.5768,582.989,3.49603
197.7000,14.331,586.429,3.51677
197.6000,19.7143,589.461,3.53497
197.5000,10.5593,591.929,3.54973
197.4000,7.73094,594.907,3.56746
197.3000,9.03869,598.384,3.58807
197.2000,13.1504,601.599,3.60704
197.1000,20.7299,604.173,3.62217
197.0000,4.12545,608.164,3.64551
196.9000,30.3556,611.185,3.66309
196.8000,18.8753,614.819,3.68415
196.7000,30.532,618.036,3.70269
196.6000,32.9739,620.995,3.71968
196.5000,23.0461,625.508,3.74546
196.4000,8.29134,628.418,3.762
196.3000,25.1073,633.112,3.78854
196.2000,34.5038,635.073,3.79958
196.1000,12.4946,638.857,3.8208
196.0000,6.0266,642.447,3.84082
195.9000,7.01889,645.843,3.85968
195.8000,10.9125,648.724,3.87562
195.7000,14.4226,652.46,3.89619
195.6000,8.93972,654.893,3.90954
195.5000,10.5954,657.943,3.92621
195.4000,21.1594,661.613,3.94618
195.3000,17.7522,663.334,3.95551
195.2000,21.4811,665.901,3.96939
195.1000,27.5245,668.045,3.98095
195.0000,5.80625,672.393,4.00429
194.9000,16.0291,674.566,4.01591
194.8000,27.5083,675.947,4.02328
194.7000,16.5874,679.023,4.03965
194.6000,9.73065,682.028,4.05557
194.5000,1.97337,684.789,4.07015
194.4000,13.0828,686.343,4.07833
194.3000,16.5891,689.601,4.09544
194.2000,17.6141,692.995,4.11319
194.1000,15.6419,695.538,4.12644
194.0000,22.6811,698.708,4.1429
193.9000,19.0309,701.724,4.1585
193.8000,21.3262,705.694,4.17894
193.7000,7.50852,709.21,4.19696
193.6000,9.72616,711.921,4.21081
193.5000,19.2087,713.784,4.2203
193.4000,22.1538,716.672,4.23497
193.3000,11.1612,718.506,4.24426
193.2000,6.51735,720.247,4.25306
193.1000,14.3047,722.53,4.26457
193.0000,30.3815,725.701,4.28051
192.9000,11.5273,727.873,4.29139
192.8000,1.92531,730.691,4.30547
192.7000,-1.55537,732.588,4.31492
192.6000,12.8768,736.632,4.33499
192.5000,8.2884,738.658,4.34502
192.4000,16.0644,742.521,4.36406
192.3000,6.01225,744.448,4.37353
192.2000,0.00487299,746.547,4.38382
192.1000,17.3851,749.218,4.39688
192.0000,31.8784,751.062,4.40587
191.9000,1.29722,754.077,4.42053
191.8000,14.3263,757.236,4.43584
191.7000,15.1142,759.331,4.44596
191.6000,20.8644,761.309,4.4555
191.5000,25.4778,763.642,4.46672
191.4000,16.4887,766.675,4.48126
191.3000,26.3022,769.702,4.49572
191.2000,9.87949,772.291,4.50806
191.1000,18.173,775.985,4.52559
191.0000,21.4085,780.409,4.5465
190.9000,12.0505,782.997,4.55868
190.8000,10.363,786.862,4.57681
190.7000,14.4256,790.971,4.596
190.6000,20.7671,794.407,4.61199
190.5000,8.71253,797.095,4.62445
190.4000,16.8546,800.563,4.64047
190.3000,12.2356,802.171,4.64788
190.2000,3.53422,805.487,4.66313
190.1000,11.7454,807.238,4.67115
190.0000,1.17896,810.059,4.68405

##### Extended Information
[Comments]
Sample name,Protein_AMSS
Comment
User,ScharfMinor
Division
Company,Saint Mary's College

[Detailed Information]
Creation date,9/27/2022 2:37 PM

Data array type,Linear data array * 3
Horizontal axis,Wavelength [nm]
Vertical axis(1),CD [mdeg]
Vertical axis(2),HT [V]
Vertical axis(3),Abs
Start,320 nm
End,190 nm
Data interval,0.1 nm
Data points,1301    

[Measurement Information]
Instrument name,J-1500
Model name,J-1500
Serial No.,B051061638

Detector,PM-539
Detector S/N,B051061638
  Lock-in amp.,X mode
  HT volt,Auto

Accessory,PTC-517
Accessory S/N,B026561646
  Temperature,22.10 C
  Control sensor,Holder
  Monitor sensor,Holder

Measurement date,9/27/2022 2:37 PM

CD Overload detect,846
Photometric mode,CD, HT, Abs
Measure range,320 - 190 nm
Data pitch,0.1 nm
CD scale,20 mdeg/0.05 dOD
FL scale,20 mdeg/0.05 dOD
D.I.T.,8 msec
Bandwidth,1.00 nm
Start mode,Immediately
Scanning mode,Continuous
Scanning speed,50 nm/min
Baseline correction,None
Shutter control,Auto
No. of cycle,1/1
N2 Flowmeter,Manual

Solvent,NaPO4 buffer

