TITLE,Protein+Additive_AMSS
DATA TYPE,
ORIGIN,JASCO
OWNER,
DATE,22/09/27
TIME,14:56:44
SPECTROMETER/DATA SYSTEM,
LOCALE,1033
RESOLUTION,
DELTAX,-0.1
XUNITS,NANOMETERS
YUNITS,CD [mdeg]
Y2UNITS,HT [V]
Y3UNITS,ABSORBANCE
FIRSTX,  320.0000
LASTX,  190.0000
NPOINTS,    1301
FIRSTY,     4.07799
MAXY,    39.19051
MINY,   -66.39903
XYDATA
320.0000,4.07799,257.479,0.792118
319.9000,0.57162,258.368,0.802772
319.8000,1.82417,258.325,0.802256
319.7000,4.51341,258.539,0.80482
319.6000,2.93307,257.615,0.79375
319.5000,3.54325,258.006,0.79844
319.4000,0.492012,257.868,0.796783
319.3000,0.623235,258.054,0.799011
319.2000,-0.81055,258.064,0.799133
319.1000,0.710169,257.207,0.78885
319.0000,0.556798,258.641,0.806041
318.9000,2.61076,258.351,0.802568
318.8000,3.51273,259.012,0.810485
318.7000,0.487253,257.988,0.798223
318.6000,3.11461,258.293,0.801876
318.5000,1.35315,257.647,0.794131
318.4000,1.7754,257.356,0.790634
318.3000,3.83473,259.007,0.810418
318.2000,4.03637,258.184,0.800573
318.1000,3.39554,258.345,0.8025
318.0000,1.23891,258.512,0.804495
317.9000,6.11245,256.983,0.786152
317.8000,2.89394,258.147,0.800125
317.7000,3.77533,258.465,0.803939
317.6000,2.58996,258.904,0.809185
317.5000,0.910594,258.446,0.803708
317.4000,3.2047,258.088,0.799419
317.3000,-1.16266,257.926,0.797476
317.2000,3.16243,259.015,0.810512
317.1000,1.73028,258.582,0.805336
317.0000,0.684173,258.403,0.803192
316.9000,0.829515,257.944,0.797693
316.8000,4.06755,258.948,0.809713
316.7000,2.56871,258.016,0.798563
316.6000,1.96015,257.954,0.797815
316.5000,3.20445,258.508,0.804454
316.4000,1.00144,258.432,0.803545
316.3000,1.53924,258.117,0.799772
316.2000,3.07167,257.408,0.79126
316.1000,1.7651,258.048,0.798943
316.0000,1.13337,257.984,0.798169
315.9000,1.76784,258.689,0.806624
315.8000,4.01032,257.797,0.795926
315.7000,-0.171861,258.216,0.800953
315.6000,1.94538,258.467,0.803966
315.5000,1.15983,258.644,0.806082
315.4000,3.48521,258.027,0.798685
315.3000,1.35943,257.502,0.79239
315.2000,3.01319,258.615,0.805729
315.1000,3.62632,258.436,0.803586
315.0000,1.93477,257.58,0.793329
314.9000,3.07496,259.289,0.813788
314.8000,0.850458,257.605,0.793628
314.7000,2.24864,258.233,0.801157
314.6000,-0.627798,257.947,0.797734
314.5000,-0.372563,257.841,0.796456
314.4000,2.32912,257.394,0.791097
314.3000,1.89121,258.126,0.79988
314.2000,3.26027,257.512,0.792512
314.1000,3.14181,256.616,0.781733
314.0000,1.56996,258.822,0.80821
313.9000,1.77918,258.753,0.807383
313.8000,0.726767,256.899,0.785143
313.7000,-0.0575702,258.195,0.800709
313.6000,2.85393,257.491,0.792254
313.5000,0.659037,258.171,0.80041
313.4000,1.48078,258.742,0.807247
313.3000,4.19171,258.16,0.800288
313.2000,-0.537533,257.39,0.791042
313.1000,-1.95938,257.497,0.792335
313.0000,2.1791,257.633,0.793968
312.9000,-0.212974,257.709,0.794879
312.8000,3.01967,256.822,0.784216
312.7000,-0.778434,257.893,0.797082
312.6000,4.16945,257.38,0.79092
312.5000,0.950928,257.367,0.79077
312.4000,1.00237,257.177,0.788482
312.3000,1.11881,256.906,0.785225
312.2000,-2.16109,257.486,0.792199
312.1000,2.17244,257.561,0.793097
312.0000,1.13669,256.942,0.785661
311.9000,2.41434,258.338,0.802419
311.8000,4.55607,257.221,0.789014
311.7000,-0.0769334,258.657,0.806231
311.6000,-0.907469,257.403,0.791206
311.5000,3.77384,257.094,0.787488
311.4000,2.72991,258.345,0.8025
311.3000,-0.550642,257.201,0.788768
311.2000,0.762302,258.467,0.803966
311.1000,0.244278,258.112,0.799704
311.0000,-0.570922,258.35,0.802555
310.9000,1.85418,257.202,0.788782
310.8000,1.68392,257.502,0.79239
310.7000,1.5719,258.276,0.801673
310.6000,-0.309499,258.388,0.803016
310.5000,-0.0358552,258.139,0.80003
310.4000,2.10644,258.839,0.808413
310.3000,2.24911,257.699,0.794757
310.2000,-1.20016,256.807,0.784039
310.1000,0.140966,258.002,0.798386
310.0000,5.32636,258.152,0.800193
309.9000,7.41663,257.924,0.797449
309.8000,0.283046,257.266,0.789558
309.7000,-1.64443,258.634,0.80596
309.6000,1.87036,258.297,0.801931
309.5000,0.663007,258.503,0.804386
309.4000,-0.411216,257.944,0.797693
309.3000,1.98704,258.137,0.800002
309.2000,4.98789,258.936,0.809578
309.1000,3.91184,258.031,0.798739
309.0000,0.437863,257.311,0.790089
308.9000,2.49556,258.012,0.798508
308.8000,0.472023,256.933,0.785552
308.7000,0.73557,258.899,0.809131
308.6000,-0.794914,256.986,0.786193
308.5000,1.48661,257.908,0.797258
308.4000,-1.88882,258.167,0.800369
308.3000,2.92196,257.556,0.793043
308.2000,1.85715,257.64,0.79405
308.1000,0.198617,258.428,0.803491
308.0000,-0.0333493,257.291,0.789858
307.9000,0.100568,257.086,0.787392
307.8000,-0.459196,257.79,0.795845
307.7000,5.43389,258.463,0.803912
307.6000,0.713413,256.991,0.786247
307.5000,3.30123,257.52,0.792607
307.4000,4.70215,258.202,0.80079
307.3000,-0.151657,257.531,0.792743
307.2000,-0.650127,256.838,0.784407
307.1000,-0.405019,257.627,0.793886
307.0000,2.35927,257.367,0.79077
306.9000,3.19794,257.61,0.793682
306.8000,1.8231,257.526,0.792675
306.7000,4.78121,258.156,0.800233
306.6000,-1.77108,257.841,0.796456
306.5000,-2.8659,257.181,0.788537
306.4000,2.88456,256.462,0.779877
306.3000,0.536497,257.35,0.790566
306.2000,3.00126,257.922,0.797435
306.1000,1.205,258.078,0.799296
306.0000,1.34403,256.695,0.782688
305.9000,0.0310898,257.541,0.792852
305.8000,3.57772,257.137,0.788005
305.7000,2.16319,257.277,0.789681
305.6000,2.48168,259.391,0.815006
305.5000,-1.49117,256.851,0.784557
305.4000,0.512771,257.267,0.789572
305.3000,-0.311072,258.016,0.798563
305.2000,1.23614,257.602,0.793587
305.1000,1.25046,256.498,0.780313
305.0000,1.31616,258.1,0.799568
304.9000,3.55068,258.325,0.802256
304.8000,1.37718,256.798,0.78393
304.7000,-0.718431,256.38,0.778893
304.6000,2.91599,256.991,0.786247
304.5000,-1.47661,256.895,0.785089
304.4000,-3.64342,257.308,0.790062
304.3000,0.419327,256.94,0.785634
304.2000,1.24471,257.173,0.788441
304.1000,0.822324,257.317,0.790171
304.0000,2.69567,256.682,0.782524
303.9000,2.35172,257.51,0.792485
303.8000,3.69424,257.277,0.789681
303.7000,2.76345,257.119,0.787787
303.6000,-0.732443,257.969,0.797992
303.5000,3.52761,257.226,0.789068
303.4000,-2.01634,257.835,0.796388
303.3000,2.89084,256.543,0.78086
303.2000,0.947161,257.503,0.792403
303.1000,-2.23615,257.301,0.78998
303.0000,3.2115,256.307,0.778005
302.9000,-0.639388,256.695,0.782688
302.8000,1.50425,257.895,0.797109
302.7000,2.13108,257.57,0.793206
302.6000,0.278989,256.8,0.783943
302.5000,3.01331,257.509,0.792471
302.4000,0.905029,257.084,0.787365
302.3000,3.2218,256.545,0.780873
302.2000,2.47369,257.397,0.791124
302.1000,2.78552,257.924,0.797449
302.0000,4.59816,256.333,0.77832
301.9000,-0.216297,256.287,0.777773
301.8000,2.70993,256.541,0.780832
301.7000,1.48629,258.199,0.800749
301.6000,2.62289,257.229,0.789109
301.5000,2.21892,256.514,0.780505
301.4000,2.19172,257.607,0.793655
301.3000,1.28355,256.897,0.785116
301.2000,2.57333,257.024,0.786643
301.1000,0.566137,255.875,0.772797
301.0000,2.51547,256.057,0.774999
300.9000,1.73491,256.72,0.782988
300.8000,0.977723,257.587,0.79341
300.7000,1.507,257.325,0.790266
300.6000,-0.553226,257.478,0.792104
300.5000,5.29584,256.191,0.776612
300.4000,0.000552115,257.563,0.793125
300.3000,0.235958,257.356,0.790634
300.2000,3.6199,257.551,0.792975
300.1000,1.46517,256.428,0.779467
300.0000,0.0142599,257.254,0.789408
299.9000,1.92978,256.709,0.782852
299.8000,1.86031,256.814,0.784121
299.7000,2.63361,256.513,0.780491
299.6000,0.444972,256.372,0.778798
299.5000,0.257277,257.213,0.788918
299.4000,0.864509,256.429,0.779481
299.3000,0.0673181,257.813,0.796117
299.2000,0.598323,256.447,0.779699
299.1000,0.696472,256.828,0.784284
299.0000,1.96673,256.834,0.784352
298.9000,-1.46358,256.574,0.781228
298.8000,-0.60256,257.212,0.788904
298.7000,2.1897,256.835,0.784366
298.6000,1.53864,257.022,0.786615
298.5000,0.197884,256.775,0.783643
298.4000,-0.630469,255.819,0.772127
298.3000,2.44695,256.357,0.778607
298.2000,-0.29229,256.831,0.784325
298.1000,2.74386,257.009,0.786465
298.0000,1.431,256.358,0.77862
297.9000,1.79702,257.052,0.786983
297.8000,3.57984,256.581,0.78131
297.7000,1.97603,257.466,0.791954
297.6000,2.05923,257.837,0.796416
297.5000,1.91439,257.682,0.794553
297.4000,4.25386,256.472,0.779999
297.3000,-0.518505,256.617,0.781747
297.2000,0.341302,256.59,0.781419
297.1000,3.14757,257.467,0.791968
297.0000,0.868044,256.432,0.779521
296.9000,3.69863,256.355,0.778593
296.8000,-0.400132,257.218,0.788973
296.7000,1.38241,256.955,0.785811
296.6000,-1.27088,255.84,0.772373
296.5000,1.69415,256.128,0.775847
296.4000,4.07577,257.357,0.790648
296.3000,0.227903,257.364,0.790729
296.2000,3.89009,256.735,0.783166
296.1000,0.777764,256.879,0.784898
296.0000,-0.215256,257.109,0.787665
295.9000,1.61644,256.857,0.784639
295.8000,2.28221,256.861,0.78468
295.7000,6.41765,256.179,0.776462
295.6000,0.511315,256.86,0.784666
295.5000,2.33274,257.879,0.796919
295.4000,2.70147,256.695,0.782688
295.3000,0.518873,256.298,0.777896
295.2000,2.02164,256.554,0.780982
295.1000,0.538722,255.847,0.772455
295.0000,1.11007,255.443,0.767582
294.9000,-0.957094,256.925,0.785457
294.8000,2.65292,257.025,0.786656
294.7000,3.17601,256.581,0.78131
294.6000,0.505659,256.627,0.78187
294.5000,0.470215,256.302,0.777951
294.4000,4.13901,256.823,0.78423
294.3000,-0.748863,256.735,0.783166
294.2000,1.91264,256.567,0.781146
294.1000,-0.101919,257.473,0.792036
294.0000,2.34464,256.839,0.78442
293.9000,2.6717,256.861,0.78468
293.8000,1.00904,256.516,0.780532
293.7000,-0.430949,256.662,0.782293
293.6000,2.42496,255.775,0.771593
293.5000,-0.0864673,256.895,0.785089
293.4000,5.04607,256.536,0.780764
293.3000,2.27148,257.307,0.790048
293.2000,2.82685,256.547,0.780901
293.1000,-1.31248,255.622,0.769745
293.0000,-2.11451,256.223,0.776994
292.9000,0.0993652,256.42,0.779371
292.8000,2.24604,255.949,0.773686
292.7000,-0.832228,256.214,0.776885
292.6000,1.90962,256.923,0.78543
292.5000,0.244705,256.426,0.77944
292.4000,1.18309,256.383,0.778921
292.3000,1.86571,256.545,0.780873
292.2000,2.03424,254.796,0.759751
292.1000,1.56076,256.563,0.781091
292.0000,1.67651,256.3,0.777924
291.9000,2.42972,255.979,0.774055
291.8000,0.277804,256.35,0.778525
291.7000,0.303227,256.338,0.778388
291.6000,3.49216,256.176,0.776434
291.5000,4.12173,255.829,0.772236
291.4000,3.40244,256.233,0.777117
291.3000,-1.18594,255.77,0.771525
291.2000,1.32256,255.378,0.766787
291.1000,2.89422,256.078,0.775245
291.0000,-1.97616,255.708,0.770786
290.9000,2.76692,255.843,0.772414
290.8000,0.287876,256.515,0.780518
290.7000,0.39328,256.295,0.777869
290.6000,0.913538,255.96,0.773823
290.5000,1.78378,255.571,0.769129
290.4000,3.25017,256.431,0.779508
290.3000,3.19349,256.581,0.78131
290.2000,-0.0187683,256.551,0.780955
290.1000,-0.356953,255.708,0.770786
290.0000,0.816079,256.941,0.785648
289.9000,-0.112469,256.405,0.779194
289.8000,0.0497593,256.949,0.785743
289.7000,0.0605017,257.649,0.794158
289.6000,0.694302,257.234,0.789163
289.5000,-1.42263,256.497,0.7803
289.4000,-0.432961,256.325,0.778224
289.3000,2.48573,256.597,0.781501
289.2000,1.18878,255.986,0.774138
289.1000,1.23704,257.448,0.791737
289.0000,4.31112,256.66,0.782265
288.9000,2.61778,256.283,0.777719
288.8000,-1.8664,257.51,0.792485
288.7000,1.18499,256.6,0.781542
288.6000,-1.15669,255.772,0.771552
288.5000,2.26899,257.071,0.787215
288.4000,0.19489,256.581,0.78131
288.3000,2.7202,256.627,0.78187
288.2000,2.99051,256.954,0.785798
288.1000,-0.0754827,256.617,0.781747
288.0000,2.78645,256.832,0.784339
287.9000,-1.08688,256.547,0.780901
287.8000,3.31346,256.809,0.784052
287.7000,2.51858,256.837,0.784393
287.6000,2.44312,256.496,0.780286
287.5000,2.42191,256.807,0.784039
287.4000,-1.08613,256.422,0.779399
287.3000,1.23702,257.631,0.793941
287.2000,1.48992,257.428,0.791505
287.1000,-2.43129,257.303,0.789994
287.0000,-1.0219,257.088,0.787419
286.9000,1.60098,256.999,0.786343
286.8000,2.89761,257.392,0.79107
286.7000,0.425397,256.692,0.782647
286.6000,-1.43788,256.682,0.782524
286.5000,1.7678,256.827,0.784271
286.4000,1.28945,255.583,0.769266
286.3000,0.905158,256.371,0.778784
286.2000,-1.77462,256.23,0.777077
286.1000,2.17935,256.6,0.781542
286.0000,-0.218304,256.959,0.785866
285.9000,0.201018,257.391,0.791056
285.8000,0.228831,256.251,0.777336
285.7000,0.479771,256.457,0.779822
285.6000,0.273252,256.979,0.786098
285.5000,-1.11839,256.82,0.784189
285.4000,1.8371,256.517,0.780545
285.3000,1.00551,256.809,0.784052
285.2000,3.82158,257.933,0.797557
285.1000,1.80184,257.38,0.79092
285.0000,0.238321,257.897,0.797136
284.9000,2.14082,256.642,0.782047
284.8000,2.58876,255.712,0.770827
284.7000,2.66131,256.659,0.782251
284.6000,-2.33269,256.434,0.779535
284.5000,2.26369,257.156,0.788237
284.4000,0.670652,257.04,0.786834
284.3000,2.41747,258.05,0.79897
284.2000,3.07849,256.255,0.777377
284.1000,2.86662,257.002,0.786384
284.0000,-0.0942141,255.416,0.767253
283.9000,0.508065,256.819,0.784175
283.8000,0.595358,257.413,0.791314
283.7000,-1.24817,257.228,0.789095
283.6000,2.05971,256.709,0.782852
283.5000,0.127699,256.932,0.785539
283.4000,-0.309826,256.815,0.784134
283.3000,-0.454731,257.013,0.786506
283.2000,0.435563,256.208,0.776817
283.1000,-1.24862,256.942,0.785661
283.0000,0.784251,255.189,0.764512
282.9000,1.68638,257.288,0.789817
282.8000,2.42487,256.985,0.786179
282.7000,-0.0568974,255.841,0.772387
282.6000,3.30562,256.759,0.783452
282.5000,-0.801736,256.427,0.779453
282.4000,0.505705,258.067,0.799174
282.3000,1.75298,256.241,0.777213
282.2000,0.309802,255.412,0.767198
282.1000,-1.88853,256.478,0.780068
282.0000,2.2718,256.464,0.779904
281.9000,1.38163,257.25,0.789368
281.8000,-0.621885,256.245,0.777268
281.7000,0.3097,257.04,0.786834
281.6000,0.2701,256.844,0.784475
281.5000,0.299218,255.478,0.768006
281.4000,2.37207,257.826,0.79628
281.3000,2.67664,256.538,0.780791
281.2000,3.42734,256.642,0.782047
281.1000,1.4011,256.958,0.785852
281.0000,2.44087,256.821,0.784202
280.9000,1.1667,254.723,0.758859
280.8000,-0.591814,258.527,0.804685
280.7000,0.387072,256.516,0.780532
280.6000,2.24823,255.944,0.773632
280.5000,1.00434,257.258,0.789463
280.4000,0.556492,256.163,0.77627
280.3000,-0.468982,257.145,0.788101
280.2000,1.39645,257.502,0.79239
280.1000,-0.242603,256.674,0.782429
280.0000,-2.14352,256.828,0.784284
279.9000,2.3355,256.641,0.782033
279.8000,-2.33277,256.869,0.784775
279.7000,2.0333,256.644,0.782074
279.6000,0.936406,257.202,0.788782
279.5000,-0.466392,256.849,0.784543
279.4000,2.38967,255.099,0.763415
279.3000,-2.13442,257.836,0.796402
279.2000,0.46792,255.336,0.76628
279.1000,1.9531,256.446,0.779685
279.0000,1.80053,256.617,0.781747
278.9000,2.64455,257.128,0.787896
278.8000,-1.46665,256.21,0.776844
278.7000,1.49665,255.749,0.771278
278.6000,-1.23179,256.514,0.780505
278.5000,0.204885,256.028,0.774643
278.4000,1.51521,255.826,0.772209
278.3000,2.71438,256.354,0.778579
278.2000,2.03468,257.221,0.789014
278.1000,2.05643,257.601,0.793574
278.0000,-0.27113,254.511,0.75629
277.9000,1.10437,256.99,0.786234
277.8000,0.391606,257.274,0.789654
277.7000,-2.59265,256.346,0.778484
277.6000,-0.0719704,256.423,0.779412
277.5000,2.06637,255.85,0.772496
277.4000,-2.18034,256.319,0.778156
277.3000,0.027297,256.814,0.784121
277.2000,2.22633,256.108,0.775614
277.1000,0.825134,256.147,0.776079
277.0000,-2.63137,257.64,0.79405
276.9000,0.443008,257.214,0.788932
276.8000,1.10641,256.547,0.780901
276.7000,2.18331,256.218,0.77694
276.6000,-1.7926,256.557,0.781023
276.5000,-1.54064,256.055,0.774972
276.4000,-0.997466,255.57,0.769115
276.3000,0.854431,256.616,0.781733
276.2000,-0.910164,256.36,0.778648
276.1000,1.10604,256.81,0.784066
276.0000,2.78601,256.557,0.781023
275.9000,1.73573,257.024,0.786643
275.8000,1.97537,256.488,0.780191
275.7000,3.26847,257.231,0.789136
275.6000,-1.93894,256.582,0.781324
275.5000,-0.486849,255.721,0.770936
275.4000,0.97053,257.024,0.786643
275.3000,1.2407,256.215,0.776899
275.2000,4.03956,256.119,0.775737
275.1000,-0.951009,256.303,0.777965
275.0000,2.92122,255.85,0.772496
274.9000,2.41226,256.826,0.784257
274.8000,1.66766,256.125,0.775819
274.7000,2.46307,255.784,0.771703
274.6000,-0.0254357,255.427,0.76739
274.5000,0.728925,255.806,0.771963
274.4000,-0.736607,256.395,0.779071
274.3000,1.79738,256.316,0.778115
274.2000,3.48038,257.196,0.788714
274.1000,-0.344164,255.053,0.762866
274.0000,-0.549103,256.311,0.77806
273.9000,3.03091,255.474,0.767951
273.8000,4.05739,256.158,0.776216
273.7000,-0.689504,256.133,0.775915
273.6000,0.802456,256.217,0.776926
273.5000,-0.477064,256.262,0.777473
273.4000,-1.06756,255.446,0.767609
273.3000,3.28034,255.825,0.772195
273.2000,-0.114496,255.821,0.77214
273.1000,-0.440521,255.992,0.774206
273.0000,1.34381,256.056,0.774985
272.9000,1.31738,255.356,0.766526
272.8000,-1.43274,255.9,0.773098
272.7000,-0.462307,257.188,0.788618
272.6000,-1.63179,255.527,0.768595
272.5000,3.96771,256.37,0.77877
272.4000,-0.864279,256.105,0.775573
272.3000,1.2391,255.546,0.768828
272.2000,0.776995,254.417,0.75515
272.1000,2.47384,254.229,0.752867
272.0000,-0.0828282,256.255,0.777377
271.9000,2.85483,256.003,0.774343
271.8000,1.97492,256.627,0.78187
271.7000,-1.24106,255.978,0.774042
271.6000,-0.904966,255.913,0.773262
271.5000,-2.20544,256.496,0.780286
271.4000,1.67537,255.968,0.773919
271.3000,3.72929,254.403,0.754985
271.2000,4.69092,255.941,0.773591
271.1000,0.410926,257.275,0.789667
271.0000,2.41425,256.532,0.780723
270.9000,1.96826,256.009,0.774411
270.8000,4.64335,255.405,0.767116
270.7000,1.87608,255.154,0.764087
270.6000,-0.432053,254.598,0.757348
270.5000,1.06745,256.684,0.782552
270.4000,-2.06058,255.018,0.762441
270.3000,3.12059,256.013,0.774466
270.2000,-1.98871,255.176,0.764347
270.1000,0.716237,255.515,0.768444
270.0000,1.62223,255.39,0.766937
269.9000,0.440674,254.94,0.761494
269.8000,2.13523,256.278,0.777664
269.7000,-0.500412,255.988,0.774165
269.6000,1.29606,254.581,0.757142
269.5000,-1.52494,254.763,0.759353
269.4000,1.62204,255.674,0.770375
269.3000,1.67132,255.329,0.766198
269.2000,2.2315,255.696,0.770635
269.1000,-0.0137418,255.976,0.774015
269.0000,1.34782,255.098,0.763401
268.9000,0.371807,255.819,0.772127
268.8000,1.36014,256.565,0.781119
268.7000,3.30984,256.123,0.775792
268.6000,0.187605,254.539,0.756634
268.5000,0.666436,256.133,0.775915
268.4000,0.587891,256.027,0.77463
268.3000,1.26217,256.089,0.775382
268.2000,0.245275,255.7,0.77069
268.1000,-0.170512,255.884,0.772907
268.0000,-1.55605,257.304,0.790008
267.9000,-0.41176,256.165,0.776298
267.8000,-0.421548,256.008,0.774397
267.7000,0.449561,256.18,0.776475
267.6000,1.68629,256.239,0.777186
267.5000,-2.91469,255.69,0.770567
267.4000,1.53773,255.252,0.765266
267.3000,-3.05925,256.669,0.782374
267.2000,-0.656849,255.627,0.7698
267.1000,-1.04658,256.138,0.775969
267.0000,-1.4353,256.228,0.777063
266.9000,0.149483,256.227,0.777049
266.8000,2.04664,256.925,0.785457
266.7000,-0.484185,255.291,0.765745
266.6000,1.10195,255.873,0.77277
266.5000,2.25186,256.065,0.775095
266.4000,1.45884,255.901,0.773112
266.3000,0.676027,256.361,0.778661
266.2000,-0.0120979,256.404,0.77918
266.1000,0.0583933,256.532,0.780723
266.0000,-0.230768,255.554,0.768924
265.9000,0.3017,256.174,0.776407
265.8000,0.045389,256.424,0.779426
265.7000,-2.2179,257.033,0.786752
265.6000,3.14995,256.264,0.777487
265.5000,-1.31733,257.03,0.786711
265.4000,0.803895,256.385,0.778948
265.3000,3.37409,256.817,0.784148
265.2000,-1.63519,256.565,0.781119
265.1000,-1.7737,255.901,0.773112
265.0000,-0.339879,256.854,0.784598
264.9000,2.81587,255.926,0.773413
264.8000,-0.661775,257.175,0.788455
264.7000,1.30924,256.243,0.77724
264.6000,0.345429,256.188,0.776571
264.5000,-0.0131183,256.003,0.774343
264.4000,1.37098,257.15,0.788155
264.3000,-1.05738,256.64,0.78202
264.2000,-0.397272,257.195,0.7887
264.1000,-1.82575,256.547,0.780901
264.0000,-0.159238,255.008,0.762317
263.9000,0.22257,256.207,0.776803
263.8000,-1.05958,256.942,0.785661
263.7000,3.29914,255.855,0.772551
263.6000,0.0182613,255.51,0.76839
263.5000,-1.49928,257.518,0.79258
263.4000,0.768288,256.073,0.77519
263.3000,0.193565,256.463,0.77989
263.2000,3.15497,257.134,0.787964
263.1000,-0.961337,257.048,0.786929
263.0000,2.19754,257.366,0.790756
262.9000,-0.0382068,257.283,0.789763
262.8000,-1.42903,256.691,0.782634
262.7000,0.000698679,256.358,0.77862
262.6000,-0.337511,257.584,0.79337
262.5000,0.345736,257.069,0.787188
262.4000,1.33472,256.49,0.780218
262.3000,0.656886,258.413,0.803315
262.2000,-1.9702,257.202,0.788782
262.1000,0.759396,256.411,0.779262
262.0000,3.08329,257.049,0.786942
261.9000,3.32716,256.802,0.783971
261.8000,-0.311791,256.856,0.784625
261.7000,-1.92221,257.007,0.786438
261.6000,1.27117,257.168,0.788373
261.5000,4.68925,257.066,0.787147
261.4000,1.27412,256.991,0.786247
261.3000,-0.209736,257.041,0.786847
261.2000,-1.36405,258.185,0.800586
261.1000,-0.290732,256.993,0.786275
261.0000,-1.11107,257.155,0.788223
260.9000,0.628175,257.398,0.791138
260.8000,-0.133237,256.455,0.779795
260.7000,-1.80793,257.085,0.787379
260.6000,1.57107,257.443,0.791682
260.5000,1.80362,257.433,0.79156
260.4000,-0.537611,256.483,0.780136
260.3000,-1.47847,256.744,0.783275
260.2000,2.31023,257.639,0.794036
260.1000,0.838799,256.63,0.781897
260.0000,-0.500493,258.708,0.806841
259.9000,3.48389,258.112,0.799704
259.8000,3.91301,255.969,0.773933
259.7000,-0.471205,258.075,0.799269
259.6000,-2.53438,257.88,0.796932
259.5000,1.55573,257.286,0.78979
259.4000,5.29545,256.498,0.780313
259.3000,0.262368,257.555,0.793029
259.2000,1.83968,258.02,0.798604
259.1000,-0.347189,257.448,0.791737
259.0000,0.516213,258.328,0.802297
258.9000,-2.06701,259.496,0.816263
258.8000,0.39575,257.859,0.796674
258.7000,2.84271,258.249,0.801347
258.6000,0.360522,256.945,0.785689
258.5000,-1.10611,258.203,0.800804
258.4000,1.83426,258.291,0.801849
258.3000,-4.65732,257.885,0.796987
258.2000,1.33392,257.997,0.798332
258.1000,-1.75779,258.171,0.80041
258.0000,3.49354,258.201,0.800777
257.9000,-0.613498,258.736,0.80718
257.8000,-2.11186,257.818,0.796184
257.7000,-0.329882,258.108,0.799663
257.6000,1.23056,257.621,0.793818
257.5000,0.713475,257.857,0.796647
257.4000,-2.38084,258.167,0.800369
257.3000,0.283054,258.419,0.803383
257.2000,-0.282305,258.133,0.799962
257.1000,-3.46168,257.655,0.794226
257.0000,-0.357504,258.322,0.802229
256.9000,3.40066,257.409,0.791274
256.8000,0.899822,258.6,0.805553
256.7000,0.302628,258.48,0.804115
256.6000,0.100947,258.063,0.79912
256.5000,0.043805,258.812,0.808088
256.4000,-1.07941,257.541,0.792852
256.3000,0.933542,257.944,0.797693
256.2000,0.355971,258.881,0.808914
256.1000,0.725879,258.573,0.805227
256.0000,-2.09585,258.341,0.802446
255.9000,0.584425,259.22,0.812963
255.8000,2.41449,258.344,0.802487
255.7000,1.59646,258.103,0.799595
255.6000,1.07364,258.575,0.805255
255.5000,-0.865343,258.217,0.800967
255.4000,-0.633722,259.217,0.812936
255.3000,-2.35063,258.882,0.808928
255.2000,-2.65397,258.726,0.807058
255.1000,2.45076,258.245,0.801306
255.0000,2.84366,259.459,0.815817
254.9000,0.343494,258.806,0.80802
254.8000,1.20351,259.591,0.817399
254.7000,1.00126,259.347,0.814478
254.6000,-1.46354,258.637,0.806
254.5000,-1.10328,258.391,0.803057
254.4000,1.28723,258.808,0.808047
254.3000,-3.20758,258.992,0.810242
254.2000,3.07307,259.082,0.811311
254.1000,0.514806,259.095,0.811474
254.0000,-3.69818,259.319,0.814154
253.9000,0.958103,259.668,0.818318
253.8000,0.422095,259.519,0.816534
253.7000,-0.613705,258.989,0.810201
253.6000,0.664414,259.278,0.813653
253.5000,0.0988545,259.393,0.815033
253.4000,0.0751575,258.73,0.807112
253.3000,1.84367,259.616,0.817696
253.2000,2.05284,260.073,0.823139
253.1000,-2.27506,259.905,0.821141
253.0000,1.0962,259.46,0.815831
252.9000,-0.319222,259.144,0.812056
252.8000,-0.720365,259.519,0.816534
252.7000,0.698803,258.95,0.809741
252.6000,0.326345,259.07,0.811176
252.5000,-3.25275,259.305,0.813978
252.4000,2.12359,259.61,0.817615
252.3000,1.87945,259.505,0.816372
252.2000,-1.54056,259.785,0.81971
252.1000,1.26732,260.641,0.829895
252.0000,-1.05308,259.465,0.815885
251.9000,-0.366198,259.755,0.819345
251.8000,2.78199,259.898,0.82106
251.7000,0.775722,260.155,0.824111
251.6000,-0.794488,260.82,0.832023
251.5000,2.48175,259.876,0.82079
251.4000,-0.0975649,260.238,0.825109
251.3000,4.57839,259.593,0.817413
251.2000,1.34822,260.332,0.826229
251.1000,-0.820637,259.267,0.813531
251.0000,-0.682321,259.679,0.81844
250.9000,0.684258,260.624,0.829693
250.8000,-0.107686,259.86,0.820601
250.7000,1.71504,259.619,0.817724
250.6000,-0.235618,260.46,0.827752
250.5000,0.812889,260.238,0.825109
250.4000,-0.0959003,259.232,0.813112
250.3000,-1.83832,259.462,0.815858
250.2000,-1.58841,260.296,0.825797
250.1000,0.112058,259.664,0.818264
250.0000,2.41942,260.277,0.825568
249.9000,2.20708,259.828,0.820223
249.8000,1.29672,260.455,0.827685
249.7000,-1.5694,260.659,0.830111
249.6000,1.18385,259.781,0.819656
249.5000,-1.76834,260.499,0.828211
249.4000,-2.25558,259.991,0.822168
249.3000,-0.250707,260.619,0.829639
249.2000,-3.00685,259.878,0.820817
249.1000,-1.82681,260.667,0.830205
249.0000,-1.24063,261.186,0.836369
248.9000,-0.449655,260.656,0.830084
248.8000,-1.67668,260.592,0.829316
248.7000,2.73451,261.186,0.836369
248.6000,-0.00259323,260.475,0.827928
248.5000,0.603684,260.528,0.828561
248.4000,-1.56993,259.16,0.812246
248.3000,0.0651979,259.785,0.81971
248.2000,-2.61007,261.034,0.834567
248.1000,-0.936379,260.053,0.822896
248.0000,1.48616,259.935,0.821493
247.9000,-2.01637,261.098,0.835334
247.8000,-3.43489,258.842,0.808454
247.7000,-4.24546,260.882,0.832764
247.6000,0.900459,260.528,0.828561
247.5000,-3.73872,260.031,0.82264
247.4000,-1.34163,260.575,0.829114
247.3000,-3.59452,261.015,0.834338
247.2000,-1.87878,260.939,0.833437
247.1000,-1.3395,260.17,0.8243
247.0000,-0.322549,262.088,0.84706
246.9000,-2.83469,259.448,0.815682
246.8000,-1.07528,260.892,0.832885
246.7000,-5.41796,260.585,0.829235
246.6000,0.843142,260.971,0.833827
246.5000,-0.0464318,260.751,0.831202
246.4000,0.676812,260.82,0.832023
246.3000,-0.539106,261.196,0.836491
246.2000,-2.42647,260.689,0.830474
246.1000,-1.02076,260.656,0.830084
246.0000,-2.676,261.224,0.836827
245.9000,0.527662,260.749,0.831188
245.8000,0.54293,260.69,0.830488
245.7000,-0.0613047,260.421,0.827281
245.6000,-2.22201,261.903,0.844873
245.5000,-5.44058,259.721,0.81894
245.4000,-3.43532,260.404,0.827078
245.3000,0.663963,261.356,0.838386
245.2000,-4.30268,261.049,0.834742
245.1000,-2.04297,260.904,0.833019
245.0000,-3.16886,261.32,0.83797
244.9000,1.13448,260.666,0.830192
244.8000,-2.57595,260.777,0.831511
244.7000,-1.69774,261.565,0.840872
244.6000,-2.7002,260.654,0.830057
244.5000,-1.63527,260.923,0.833248
244.4000,-2.92376,261.077,0.835078
244.3000,1.13623,261.583,0.841087
244.2000,-1.05512,261.972,0.845691
244.1000,0.16404,261.507,0.840187
244.0000,-3.93764,261.882,0.844631
243.9000,2.40364,262.38,0.850518
243.8000,0.100825,262.346,0.850116
243.7000,-1.93527,261.796,0.843611
243.6000,-1.96414,261.973,0.845705
243.5000,1.43153,261.877,0.844564
243.4000,-0.763347,262.268,0.849191
243.3000,-2.93412,262.523,0.852205
243.2000,-0.298556,261.831,0.844027
243.1000,-6.15918,261.711,0.842605
243.0000,-0.533975,262.151,0.84781
242.9000,-2.60284,261.963,0.845584
242.8000,-6.06034,262.11,0.847328
242.7000,-1.68626,261.855,0.844309
242.6000,-3.15853,262.109,0.847314
242.5000,-3.43898,262.533,0.852326
242.4000,-4.33096,260.558,0.828912
242.3000,-2.25853,262.303,0.849607
242.2000,-0.3218,262.423,0.851027
242.1000,-6.53458,262.052,0.846644
242.0000,-6.29329,262.026,0.846335
241.9000,-4.74411,262.736,0.854722
241.8000,-3.8168,262.9,0.856662
241.7000,-4.8126,262.415,0.850933
241.6000,-6.36176,263.05,0.858427
241.5000,-3.15559,262.988,0.857706
241.4000,-4.62314,262.553,0.852567
241.3000,-4.02361,263.379,0.862316
241.2000,-2.2501,263.366,0.862156
241.1000,-5.16407,263.017,0.85804
241.0000,-4.64818,263.209,0.860312
240.9000,-8.68729,263.213,0.860352
240.8000,-6.85705,263.825,0.867561
240.7000,-5.79325,263.059,0.858535
240.6000,-5.58012,262.908,0.856756
240.5000,-5.95306,263.94,0.868922
240.4000,-3.65204,264.672,0.877524
240.3000,-7.32713,263.598,0.864893
240.2000,-3.85904,264.12,0.871041
240.1000,-9.17983,263.685,0.865921
240.0000,-8.08511,263.711,0.866227
239.9000,-2.71256,264.022,0.869881
239.8000,-4.41621,264.344,0.873665
239.7000,-8.22619,264.74,0.878322
239.6000,-9.10254,264.431,0.87469
239.5000,-5.49571,264.327,0.873465
239.4000,-9.03529,264.286,0.872986
239.3000,-5.87574,266.06,0.893783
239.2000,-8.52836,264.101,0.870814
239.1000,-7.95772,264.591,0.876566
239.0000,-6.81956,264.722,0.878109
238.9000,-9.76155,265.064,0.882124
238.8000,-9.52894,265.234,0.884116
238.7000,-11.446,265.924,0.892194
238.6000,-6.41988,265.694,0.889503
238.5000,-7.65651,266.143,0.89475
238.4000,-11.0848,266.243,0.895915
238.3000,-10.3297,265.881,0.89169
238.2000,-7.20973,266.576,0.899804
238.1000,-10.2888,266.839,0.902871
238.0000,-11.8385,267.062,0.905473
237.9000,-11.0047,266.928,0.903914
237.8000,-14.636,267.66,0.912437
237.7000,-12.7239,267.473,0.910262
237.6000,-10.7256,266.832,0.902792
237.5000,-11.8304,266.609,0.900188
237.4000,-11.6335,267.319,0.908469
237.3000,-10.7984,268.164,0.918297
237.2000,-11.8033,268.543,0.922689
237.1000,-12.8089,267.967,0.916007
237.0000,-14.3168,267.923,0.915493
236.9000,-14.2539,267.351,0.908838
236.8000,-14.9432,268.143,0.918047
236.7000,-15.599,268.455,0.921677
236.6000,-14.3829,268.844,0.926183
236.5000,-13.2414,268.781,0.925448
236.4000,-14.044,268.468,0.921822
236.3000,-15.7655,268.344,0.920389
236.2000,-15.456,268.927,0.927142
236.1000,-14.1853,269.314,0.931628
236.0000,-17.046,270.485,0.945148
235.9000,-16.6892,269.405,0.932677
235.8000,-18.1754,269.441,0.933097
235.7000,-16.1425,270.918,0.950135
235.6000,-14.9235,270.269,0.942665
235.5000,-17.0613,270.78,0.948556
235.4000,-15.2167,270.472,0.945004
235.3000,-15.4219,269.622,0.935193
235.2000,-19.2918,271.176,0.953108
235.1000,-16.9945,270.218,0.942077
235.0000,-19.369,271.37,0.955337
234.9000,-22.0415,271.34,0.954998
234.8000,-21.8295,271.831,0.960636
234.7000,-21.1424,272.019,0.962795
234.6000,-19.5199,271.772,0.959959
234.5000,-19.6973,271.818,0.960492
234.4000,-25.164,272.129,0.964056
234.3000,-21.2476,272.784,0.971561
234.2000,-24.7988,272.618,0.969667
234.1000,-19.4292,273.522,0.98001
234.0000,-21.0222,272.379,0.966927
233.9000,-21.4497,274.658,0.992957
233.8000,-20.9801,273.172,0.976008
233.7000,-23.2933,273.611,0.981019
233.6000,-22.8603,274.661,0.992995
233.5000,-19.9637,274.693,0.993357
233.4000,-23.982,273.691,0.981938
233.3000,-27.9742,275.625,1.00396
233.2000,-26.379,275.001,0.996863
233.1000,-25.1925,274.912,0.995845
233.0000,-22.7609,275.812,1.00608
232.9000,-29.0855,275.295,1.0002
232.8000,-25.143,275.352,1.00086
232.7000,-29.9729,275.214,0.999285
232.6000,-27.7246,274.778,0.994324
232.5000,-30.841,275.096,0.997945
232.4000,-28.585,277.015,1.01969
232.3000,-28.6152,276.993,1.01945
232.2000,-30.3093,276.616,1.01518
232.1000,-28.7582,277.893,1.0296
232.0000,-31.3489,277.003,1.01956
231.9000,-29.2468,276.746,1.01665
231.8000,-29.2759,277.193,1.0217
231.7000,-34.5283,278.391,1.03522
231.6000,-36.7332,277.978,1.03056
231.5000,-34.2034,279.102,1.04321
231.4000,-34.9487,278.762,1.03939
231.3000,-35.6953,278.72,1.03892
231.2000,-33.8193,279.514,1.04784
231.1000,-33.8762,279.291,1.04533
231.0000,-34.4061,279.37,1.04622
230.9000,-33.8951,279.114,1.04335
230.8000,-37.137,279.239,1.04475
230.7000,-36.3984,280.304,1.05669
230.6000,-34.9912,280.774,1.06195
230.5000,-37.0356,279.643,1.04929
230.4000,-36.6686,279.97,1.05295
230.3000,-34.0517,280.958,1.064
230.2000,-33.6871,280.469,1.05854
230.1000,-33.801,280.552,1.05947
230.0000,-36.8229,280.877,1.0631
229.9000,-39.3765,281.326,1.06811
229.8000,-38.2613,281.638,1.07159
229.7000,-39.2574,280.661,1.06068
229.6000,-41.6641,280.923,1.06361
229.5000,-39.9961,281.678,1.07204
229.4000,-42.5299,283.018,1.08694
229.3000,-43.3323,281.257,1.06734
229.2000,-41.3421,283.475,1.09202
229.1000,-37.9189,282.648,1.08284
229.0000,-42.6862,284.083,1.09875
228.9000,-44.634,284.155,1.09955
228.8000,-40.9224,283.731,1.09486
228.7000,-41.9086,284.173,1.09975
228.6000,-44.8398,283.827,1.09591
228.5000,-42.137,285.307,1.11228
228.4000,-44.1265,284.957,1.10842
228.3000,-45.8403,285.175,1.11082
228.2000,-44.2162,285.049,1.10943
228.1000,-48.1028,285.448,1.11383
228.0000,-44.4123,285.956,1.11943
227.9000,-45.7868,287.254,1.13369
227.8000,-47.4398,286.555,1.12602
227.7000,-46.598,286.966,1.13054
227.6000,-48.1682,287.272,1.13389
227.5000,-48.1436,287.091,1.1319
227.4000,-47.3413,287.577,1.13723
227.3000,-53.2209,287.582,1.13728
227.2000,-46.3188,288.444,1.14672
227.1000,-51.9173,287.642,1.13794
227.0000,-45.8409,288.553,1.14791
226.9000,-52.124,288.523,1.14759
226.8000,-49.0236,289.458,1.15779
226.7000,-49.5276,289.474,1.15796
226.6000,-54.2382,288.131,1.1433
226.5000,-48.4328,289.589,1.15922
226.4000,-50.4463,289.87,1.16228
226.3000,-50.9047,289.692,1.16034
226.2000,-49.157,289.443,1.15763
226.1000,-48.5216,290.296,1.16691
226.0000,-49.5294,290.308,1.16704
225.9000,-48.6522,290.788,1.17226
225.8000,-51.5136,290.965,1.17417
225.7000,-55.12,291.295,1.17775
225.6000,-53.8996,291.953,1.18488
225.5000,-54.2356,290.983,1.17437
225.4000,-57.4031,291.133,1.17599
225.3000,-49.1026,293.121,1.1975
225.2000,-54.8146,292.991,1.19609
225.1000,-57.7987,293.154,1.19785
225.0000,-57.8068,293.817,1.20499
224.9000,-52.4705,292.629,1.19219
224.8000,-51.1744,293.04,1.19662
224.7000,-54.506,293.681,1.20353
224.6000,-57.7123,293.643,1.20313
224.5000,-62.8101,294.258,1.20973
224.4000,-54.1012,294.215,1.20927
224.3000,-52.3595,294.707,1.21457
224.2000,-55.7206,294.875,1.21637
224.1000,-59.224,295.989,1.2283
224.0000,-54.0443,295.82,1.22649
223.9000,-56.5724,296.627,1.23512
223.8000,-54.0996,295.868,1.227
223.7000,-54.4855,296.414,1.23284
223.6000,-55.0778,296.417,1.23288
223.5000,-55.5432,296.102,1.22951
223.4000,-54.6638,295.908,1.22744
223.3000,-55.8313,296.622,1.23507
223.2000,-60.3921,297.087,1.24003
223.1000,-53.3713,297.231,1.24156
223.0000,-54.5558,297.584,1.24533
222.9000,-57.1133,298.024,1.25001
222.8000,-61.1651,297.607,1.24557
222.7000,-52.3335,297.845,1.2481
222.6000,-59.5737,298.742,1.25764
222.5000,-60.642,298.427,1.2543
222.4000,-57.8512,299.395,1.26456
222.3000,-58.3029,299.634,1.26709
222.2000,-57.1709,299.534,1.26604
222.1000,-58.194,300.172,1.27279
222.0000,-57.0347,301.738,1.28931
221.9000,-52.6216,300.252,1.27363
221.8000,-55.7096,301.638,1.28826
221.7000,-58.6282,300.906,1.28054
221.6000,-61.1166,301.332,1.28504
221.5000,-56.5628,302.009,1.29216
221.4000,-57.74,301.797,1.28993
221.3000,-58.136,302.386,1.29613
221.2000,-58.3691,303.098,1.3036
221.1000,-56.7954,300.587,1.27717
221.0000,-58.6515,304.311,1.3163
220.9000,-59.4561,303.136,1.304
220.8000,-56.4596,303.386,1.30661
220.7000,-53.171,303.553,1.30837
220.6000,-57.6747,304.028,1.31334
220.5000,-57.3851,304.254,1.3157
220.4000,-58.9125,304.774,1.32113
220.3000,-62.2397,303.881,1.3118
220.2000,-54.9917,303.962,1.31265
220.1000,-52.8725,304.631,1.31964
220.0000,-59.5975,305.538,1.32911
219.9000,-58.6959,305.119,1.32474
219.8000,-58.4566,306.081,1.33476
219.7000,-62.8358,305.588,1.32963
219.6000,-57.4138,305.293,1.32654
219.5000,-50.5447,306.905,1.34332
219.4000,-54.3454,306.975,1.34405
219.3000,-59.9063,306.97,1.34399
219.2000,-59.1384,307.229,1.34668
219.1000,-49.429,307.827,1.35288
219.0000,-51.4392,306.749,1.34169
218.9000,-51.6195,309.416,1.36929
218.8000,-57.4618,308.1,1.3557
218.7000,-53.1449,307.846,1.35308
218.6000,-59.811,309.615,1.37134
218.5000,-56.454,308.54,1.36025
218.4000,-53.2919,309.926,1.37454
218.3000,-55.3945,310.131,1.37665
218.2000,-55.0097,309.719,1.37242
218.1000,-59.137,310.474,1.38018
218.0000,-54.085,310.509,1.38054
217.9000,-53.5797,310.575,1.38122
217.8000,-54.4724,310.524,1.38069
217.7000,-61.4634,310.617,1.38165
217.6000,-57.3461,311.365,1.38933
217.5000,-59.3406,312.001,1.39585
217.4000,-55.394,313.167,1.40777
217.3000,-58.7956,312.106,1.39692
217.2000,-59.8603,312.478,1.40073
217.1000,-54.6792,312.84,1.40443
217.0000,-54.5193,313.488,1.41104
216.9000,-52.2641,313.165,1.40775
216.8000,-60.8261,313.746,1.41367
216.7000,-48.1126,315.186,1.42832
216.6000,-53.9451,314.828,1.42468
216.5000,-55.592,314.944,1.42586
216.4000,-61.0475,315.103,1.42747
216.3000,-50.2529,315.489,1.43139
216.2000,-57.3041,315.742,1.43395
216.1000,-56.835,316.347,1.44008
216.0000,-55.011,315.906,1.43562
215.9000,-54.5064,315.904,1.43559
215.8000,-58.7996,316.759,1.44425
215.7000,-55.4398,316.723,1.44388
215.6000,-57.4728,317.957,1.45634
215.5000,-57.2637,317.801,1.45476
215.4000,-57.3191,319.27,1.46955
215.3000,-55.4164,318.955,1.46639
215.2000,-57.8802,318.411,1.46091
215.1000,-49.7259,319.344,1.47029
215.0000,-56.5591,319.602,1.47288
214.9000,-54.1584,320.005,1.47693
214.8000,-55.2909,319.613,1.473
214.7000,-59.3723,320.831,1.4852
214.6000,-47.4055,320.695,1.48384
214.5000,-53.9448,321.312,1.49
214.4000,-60.037,321.674,1.49362
214.3000,-55.2572,321.942,1.49629
214.2000,-52.4221,321.774,1.49462
214.1000,-48.7323,321.272,1.4896
214.0000,-54.892,322.002,1.49689
213.9000,-59.9679,322.753,1.50437
213.8000,-58.1225,324.511,1.52182
213.7000,-50.8336,324.483,1.52155
213.6000,-51.519,324.352,1.52025
213.5000,-57.2416,324.107,1.51782
213.4000,-60.2471,324.963,1.5263
213.3000,-61.5609,324.837,1.52505
213.2000,-61.4072,325.887,1.53543
213.1000,-56.1297,326.47,1.54118
213.0000,-48.8601,326.143,1.53796
212.9000,-58.2111,326.43,1.54079
212.8000,-59.2338,327.421,1.55055
212.7000,-60.4377,326.811,1.54454
212.6000,-52.7646,328.328,1.55945
212.5000,-56.5837,328.935,1.56541
212.4000,-54.4321,329.762,1.5735
212.3000,-54.9638,329.678,1.57268
212.2000,-61.4347,329.379,1.56976
212.1000,-61.899,330.103,1.57683
212.0000,-58.2175,330.345,1.57919
211.9000,-55.0237,331.968,1.595
211.8000,-61.2483,331.128,1.58682
211.7000,-51.9018,332.465,1.59983
211.6000,-60.6411,332.989,1.60492
211.5000,-52.6998,333.109,1.60608
211.4000,-61.1008,333.135,1.60633
211.3000,-66.399,334.672,1.6212
211.2000,-58.3965,333.021,1.60522
211.1000,-56.7318,335.235,1.62663
211.0000,-56.66,336.804,1.64173
210.9000,-56.0987,335.888,1.63292
210.8000,-60.0167,335.586,1.63001
210.7000,-61.3486,336.575,1.63953
210.6000,-57.1999,337.027,1.64387
210.5000,-59.7854,338.328,1.65634
210.4000,-48.4943,338.998,1.66274
210.3000,-57.9484,338.697,1.65986
210.2000,-58.558,340.253,1.67471
210.1000,-58.7953,339.464,1.66718
210.0000,-56.7178,341.586,1.68738
209.9000,-56.744,340.917,1.68103
209.8000,-52.9791,342.108,1.69233
209.7000,-57.6667,342.842,1.69929
209.6000,-57.3008,344.36,1.71362
209.5000,-52.7743,344.59,1.71578
209.4000,-60.0982,345.239,1.7219
209.3000,-48.5073,345.463,1.72401
209.2000,-54.4524,346.457,1.73334
209.1000,-60.7867,346.656,1.73521
209.0000,-58.0628,347.349,1.74169
208.9000,-48.75,347.912,1.74696
208.8000,-63.4462,349.097,1.75802
208.7000,-58.1515,349.453,1.76133
208.6000,-53.2261,349.559,1.76233
208.5000,-56.9491,351.264,1.77817
208.4000,-61.9041,351.235,1.7779
208.3000,-55.5312,353.118,1.79532
208.2000,-61.737,352.51,1.7897
208.1000,-57.0654,352.701,1.79147
208.0000,-58.3292,355.767,1.8197
207.9000,-58.7831,355.234,1.8148
207.8000,-55.9963,357.152,1.83238
207.7000,-52.0264,357.042,1.83137
207.6000,-59.3142,358.496,1.84464
207.5000,-54.9981,359.964,1.85801
207.4000,-46.8657,359.335,1.85229
207.3000,-46.1894,361.168,1.86892
207.2000,-48.0701,361.504,1.87197
207.1000,-63.4559,362.077,1.87715
207.0000,-55.3601,362.066,1.87705
206.9000,-49.4123,365.256,1.90578
206.8000,-42.5149,364.304,1.89723
206.7000,-45.9212,366.02,1.91263
206.6000,-46.5242,366.766,1.91931
206.5000,-42.0215,369.375,1.94257
206.4000,-42.9186,366.67,1.91844
206.3000,-55.3132,369.604,1.9446
206.2000,-47.9386,372.443,1.96974
206.1000,-37.1291,372.166,1.9673
206.0000,-47.7124,371.557,1.96191
205.9000,-57.0353,374.577,1.98854
205.8000,-34.1183,376.684,2.007
205.7000,-39.0299,376.57,2.00601
205.6000,-34.5814,377.199,2.01151
205.5000,-51.5748,377.621,2.01519
205.4000,-38.257,380.418,2.03952
205.3000,-46.8659,381.042,2.04492
205.2000,-34.6292,382.521,2.05772
205.1000,-31.3819,383.546,2.06655
205.0000,-40.1545,385.62,2.08437
204.9000,-31.8907,385.99,2.08754
204.8000,-42.8434,387.77,2.10276
204.7000,-37.9942,388.42,2.10831
204.6000,-27.89,388.642,2.1102
204.5000,-30.4008,390.96,2.12989
204.4000,-41.5661,393.072,2.14775
204.3000,-32.7362,394.145,2.1568
204.2000,-25.9326,397.468,2.18466
204.1000,-26.5465,397.246,2.18281
204.0000,-28.8634,397.532,2.1852
203.9000,-26.4744,399.742,2.20362
203.8000,-28.8262,402.301,2.22486
203.7000,-19.7888,402.637,2.22763
203.6000,-21.7253,404.129,2.23995
203.5000,-12.8331,404.763,2.24518
203.4000,-24.3953,407.663,2.26897
203.3000,-14.1868,408.333,2.27445
203.2000,-16.9601,408.879,2.27891
203.1000,-7.0892,411.731,2.30212
203.0000,-10.6266,412.523,2.30854
202.9000,-23.8458,413.864,2.31939
202.8000,-17.6592,414.489,2.32443
202.7000,-9.32995,416.221,2.33838
202.6000,-6.01799,417.821,2.35123
202.5000,-0.730024,419.485,2.36454
202.4000,-2.16758,421.227,2.37843
202.3000,-1.65437,423.886,2.39954
202.2000,-30.447,425.663,2.41358
202.1000,-7.67211,426.95,2.42373
202.0000,-9.40162,430.27,2.44977
201.9000,-2.19559,430.392,2.45073
201.8000,-7.77112,434.408,2.48199
201.7000,6.52478,434.675,2.48406
201.6000,2.64794,436.538,2.49848
201.5000,-5.61167,438.873,2.51647
201.4000,-0.307547,441.128,2.53377
201.3000,5.0574,441.58,2.53723
201.2000,11.1211,443.905,2.55498
201.1000,13.184,444.372,2.55853
201.0000,0.00787553,447.936,2.58556
200.9000,4.90813,450.878,2.60773
200.8000,-0.0327366,451.431,2.61189
200.7000,15.1464,453.238,2.62543
200.6000,4.54843,455.125,2.63953
200.5000,17.2747,458.594,2.66531
200.4000,7.64917,460.332,2.67817
200.3000,3.21151,460.846,2.68196
200.2000,0.153692,463.646,2.70257
200.1000,27.9375,466.037,2.72009
200.0000,7.27919,469.666,2.74652
199.9000,9.40646,470.861,2.75519
199.8000,24.2754,473.252,2.77248
199.7000,29.7984,474.529,2.78168
199.6000,4.63493,475.473,2.78847
199.5000,19.1916,478.608,2.81093
199.4000,18.2957,481.032,2.82823
199.3000,27.775,481.865,2.83415
199.2000,32.4887,483.607,2.8465
199.1000,29.8447,486.785,2.86896
199.0000,14.0464,489.042,2.88483
198.9000,18.6532,489.902,2.89086
198.8000,32.899,493.799,2.91807
198.7000,16.2657,494.477,2.92279
198.6000,34.4542,498.35,2.94963
198.5000,22.462,500.206,2.96242
198.4000,13.982,503.117,2.98241
198.3000,21.4762,505.082,2.99585
198.2000,23.6112,508.257,3.01747
198.1000,32.5384,510.039,3.02956
198.0000,30.4252,511.28,3.03795
197.9000,23.2932,515.112,3.06377
197.8000,7.80558,517.538,3.08003
197.7000,27.6353,519.867,3.09558
197.6000,19.6279,521.992,3.10971
197.5000,16.7552,523.715,3.12114
197.4000,28.7185,526.231,3.13777
197.3000,29.8057,528.839,3.15493
197.2000,19.7037,531.449,3.17204
197.1000,23.7334,532.87,3.18132
197.0000,17.1181,535.104,3.19587
196.9000,35.4303,538.367,3.21703
196.8000,9.52043,541.054,3.23438
196.7000,25.6731,543.858,3.2524
196.6000,17.5429,544.479,3.25638
196.5000,30.0849,548.644,3.28298
196.4000,18.3753,552.394,3.30679
196.3000,28.8721,553.885,3.31621
196.2000,39.1905,556.749,3.33426
196.1000,36.4572,558.618,3.34599
196.0000,23.1885,561.758,3.36563
195.9000,28.0603,563.857,3.37871
195.8000,34.5014,566.024,3.39216
195.7000,26.7661,568.896,3.40993
195.6000,19.0343,570.685,3.42096
195.5000,30.0829,573.947,3.441
195.4000,38.4813,575.723,3.45186
195.3000,30.0259,577.624,3.46346
195.2000,29.7146,579.421,3.4744
195.1000,17.4966,580.444,3.48061
195.0000,38.1679,583.927,3.50169
194.9000,35.4465,584.059,3.50249
194.8000,26.3825,585.27,3.50979
194.7000,29.409,589.004,3.53223
194.6000,28.8347,590.123,3.53893
194.5000,13.7583,592.049,3.55044
194.4000,34.8964,593.92,3.56159
194.3000,17.3336,597.753,3.58434
194.2000,22.814,598.547,3.58904
194.1000,21.694,601.567,3.60685
194.0000,34.3047,602.393,3.61171
193.9000,26.6954,604.018,3.62126
193.8000,21.6606,608.266,3.6461
193.7000,32.0722,610.43,3.6587
193.6000,38.383,612.267,3.66937
193.5000,19.7438,615.695,3.6892
193.4000,16.8547,614.542,3.68254
193.3000,19.8966,615.861,3.69016
193.2000,19.0454,617.982,3.70238
193.1000,3.87484,619.545,3.71137
193.0000,30.2107,621.221,3.72098
192.9000,6.17032,624.343,3.73882
192.8000,18.3822,625.956,3.74801
192.7000,25.1483,628.365,3.7617
192.6000,33.4747,629.19,3.76637
192.5000,20.4144,632.786,3.7867
192.4000,20.6887,633.713,3.79193
192.3000,11.4486,636.777,3.80914
192.2000,10.5961,637.97,3.81583
192.1000,29.0469,639.781,3.82596
192.0000,-1.11239,641.567,3.83592
191.9000,22.9582,643.658,3.84756
191.8000,20.033,644.787,3.85383
191.7000,20.9383,645.388,3.85717
191.6000,32.8409,650.861,3.8874
191.5000,32.8929,649.821,3.88167
191.4000,25.1119,652.216,3.89485
191.3000,21.2769,654.369,3.90667
191.2000,31.7645,656.177,3.91657
191.1000,18.326,659.011,3.93203
191.0000,33.5294,661.855,3.94749
190.9000,12.6689,663.903,3.95859
190.8000,22.1925,665.36,3.96647
190.7000,13.5201,668.73,3.98463
190.6000,15.1499,671.826,4.00126
190.5000,7.6685,673.944,4.01259
190.4000,23.6772,675.384,4.02028
190.3000,18.4815,677.172,4.02981
190.2000,13.9022,679.978,4.04471
190.1000,24.2901,681.349,4.05197
190.0000,21.0002,682.279,4.0569

##### Extended Information
[Comments]
Sample name,Protein+Additive_AMSS
Comment
User,ScharfMinor
Division
Company,Saint Mary's College

[Detailed Information]
Creation date,9/27/2022 2:56 PM

Data array type,Linear data array * 3
Horizontal axis,Wavelength [nm]
Vertical axis(1),CD [mdeg]
Vertical axis(2),HT [V]
Vertical axis(3),Abs
Start,320 nm
End,190 nm
Data interval,0.1 nm
Data points,1301    

[Measurement Information]
Instrument name,J-1500
Model name,J-1500
Serial No.,B051061638

Detector,PM-539
Detector S/N,B051061638
  Lock-in amp.,X mode
  HT volt,Auto

Accessory,PTC-517
Accessory S/N,B026561646
  Temperature,22.07 C
  Control sensor,Holder
  Monitor sensor,Holder

Measurement date,9/27/2022 2:56 PM

CD Overload detect,861
Photometric mode,CD, HT, Abs
Measure range,320 - 190 nm
Data pitch,0.1 nm
CD scale,20 mdeg/0.05 dOD
FL scale,20 mdeg/0.05 dOD
D.I.T.,8 msec
Bandwidth,1.00 nm
Start mode,Immediately
Scanning mode,Continuous
Scanning speed,50 nm/min
Baseline correction,None
Shutter control,Auto
No. of cycle,1/1
N2 Flowmeter,Manual

Solvent,NaPO4 buffer

