TITLE,Protein+Additive_AMSS
DATA TYPE,
ORIGIN,JASCO
OWNER,
DATE,22/09/27
TIME,14:53:39
SPECTROMETER/DATA SYSTEM,
LOCALE,1033
RESOLUTION,
DELTAX,-0.1
XUNITS,NANOMETERS
YUNITS,CD [mdeg]
Y2UNITS,HT [V]
Y3UNITS,ABSORBANCE
FIRSTX,  320.0000
LASTX,  190.0000
NPOINTS,    1301
FIRSTY,     2.06910
MAXY,    37.26032
MINY,   -66.77203
XYDATA
320.0000,2.0691,258.223,0.801034
319.9000,2.35196,257.558,0.793056
319.8000,2.53024,259.248,0.813301
319.7000,2.47357,258.665,0.806325
319.6000,0.305726,257.307,0.790048
319.5000,1.57348,258.313,0.80212
319.4000,-0.105533,258.403,0.803192
319.3000,-0.57727,258.687,0.806597
319.2000,2.56439,258.891,0.809036
319.1000,0.666004,258.324,0.802243
319.0000,0.629675,257.537,0.792812
318.9000,-1.5905,258.002,0.798386
318.8000,0.819598,257.935,0.797585
318.7000,2.36246,257.986,0.798196
318.6000,-1.10668,257.167,0.78836
318.5000,0.366259,256.866,0.784748
318.4000,2.78327,257.948,0.797747
318.3000,0.411749,258.227,0.801089
318.2000,3.44168,258.026,0.798672
318.1000,0.243871,258.193,0.800681
318.0000,1.09618,258.862,0.808684
317.9000,-1.50006,258.611,0.805688
317.8000,-1.5152,258.176,0.800478
317.7000,1.06145,258.111,0.79969
317.6000,1.64081,258.304,0.802012
317.5000,2.84829,258.097,0.799527
317.4000,-0.11958,258.257,0.801442
317.3000,-2.68973,258.893,0.809063
317.2000,4.06265,257.596,0.793519
317.1000,2.96537,257.168,0.788373
317.0000,0.847152,257.831,0.796334
316.9000,3.38866,257.704,0.794811
316.8000,2.36023,258.518,0.804576
316.7000,-1.21804,257.439,0.791628
316.6000,-1.65268,258.521,0.804603
316.5000,1.32888,257.488,0.792226
316.4000,2.41232,259.599,0.817494
316.3000,1.85137,257.999,0.798359
316.2000,0.900236,257.66,0.794281
316.1000,0.601892,258.237,0.801211
316.0000,1.14038,258.142,0.80007
315.9000,2.2847,258.738,0.807207
315.8000,0.769361,258.909,0.809253
315.7000,0.999739,258.941,0.809632
315.6000,1.70918,257.921,0.797421
315.5000,-0.0550892,259.105,0.811596
315.4000,0.163701,258.235,0.801184
315.3000,5.38631,258.055,0.799025
315.2000,-0.471829,257.06,0.787079
315.1000,-1.32444,257.869,0.796796
315.0000,2.97432,258.554,0.804997
314.9000,3.86513,257.839,0.796429
314.8000,2.16328,258.26,0.801482
314.7000,1.71006,258.736,0.80718
314.6000,2.14154,258.091,0.799459
314.5000,4.12328,257.835,0.796388
314.4000,2.49427,257.614,0.793737
314.3000,4.84944,258.699,0.806732
314.2000,2.0282,258.215,0.800939
314.1000,1.27025,257.261,0.78949
314.0000,4.09718,257.977,0.798087
313.9000,1.87632,257.46,0.791886
313.8000,1.6619,257.725,0.79507
313.7000,0.158902,256.858,0.784652
313.6000,1.64294,257.686,0.794594
313.5000,1.67773,257.202,0.788782
313.4000,2.07962,257.432,0.791546
313.3000,-0.0104583,258.233,0.801157
313.2000,2.32774,257.209,0.788863
313.1000,0.695627,256.418,0.779344
313.0000,1.39091,257.573,0.793247
312.9000,0.302748,257.394,0.791097
312.8000,3.11464,257.442,0.791669
312.7000,1.18442,257.541,0.792852
312.6000,1.65636,257.817,0.796171
312.5000,1.36428,258.433,0.803559
312.4000,1.48537,256.898,0.78513
312.3000,-1.82969,258.523,0.80463
312.2000,4.04663,257.779,0.795709
312.1000,0.499612,258.629,0.805905
312.0000,1.15626,257.92,0.797408
311.9000,0.246232,257.492,0.792267
311.8000,1.00855,257.547,0.792934
311.7000,1.10473,257.145,0.788101
311.6000,4.26859,258.121,0.799812
311.5000,2.48587,258.049,0.798957
311.4000,0.830855,257.381,0.790933
311.3000,-1.64689,257.141,0.788046
311.2000,-0.739542,257.582,0.793356
311.1000,1.90416,257.245,0.789299
311.0000,2.49776,257.58,0.793329
310.9000,2.11551,258.14,0.800043
310.8000,-0.512751,257.06,0.787079
310.7000,5.63296,256.55,0.780941
310.6000,0.657655,257.696,0.794716
310.5000,3.74099,258.057,0.799052
310.4000,0.24637,257.125,0.787856
310.3000,-1.04383,258.011,0.798495
310.2000,4.43982,257.629,0.793914
310.1000,1.41643,257.291,0.789858
310.0000,2.19443,258.608,0.805648
309.9000,1.42348,258.527,0.804685
309.8000,2.43678,257.783,0.795763
309.7000,1.04688,257.721,0.795015
309.6000,2.57906,258.039,0.798834
309.5000,3.1352,257.738,0.795219
309.4000,0.894659,257.962,0.79791
309.3000,0.0572078,257.948,0.797747
309.2000,3.16485,257.653,0.794199
309.1000,1.05648,257.831,0.796334
309.0000,-1.12746,258.274,0.801645
308.9000,-0.104384,256.732,0.783125
308.8000,2.18528,257.509,0.792471
308.7000,0.913733,256.814,0.784121
308.6000,0.651712,257.29,0.789844
308.5000,1.39927,257.76,0.795491
308.4000,-0.538811,258.035,0.79878
308.3000,3.79892,257.487,0.792213
308.2000,2.00214,256.971,0.786002
308.1000,4.3281,257.801,0.795981
308.0000,0.715213,257.716,0.794961
307.9000,2.75223,257.773,0.795641
307.8000,0.831572,257.308,0.790062
307.7000,2.8531,257.749,0.795355
307.6000,2.25243,257.828,0.796307
307.5000,1.84496,257.843,0.796483
307.4000,1.6778,257.303,0.789994
307.3000,3.00482,257.607,0.793655
307.2000,-1.25492,256.904,0.785198
307.1000,-1.22606,257.507,0.792444
307.0000,5.38398,259.23,0.813085
306.9000,1.30999,258.133,0.799962
306.8000,-0.312579,256.973,0.786029
306.7000,0.670433,257.859,0.796674
306.6000,1.90111,257.766,0.795559
306.5000,-0.111038,256.971,0.786002
306.4000,-0.746567,257.556,0.793043
306.3000,2.45863,257.759,0.795478
306.2000,1.67502,257.368,0.790784
306.1000,-0.532189,257.122,0.787828
306.0000,2.34947,256.381,0.778907
305.9000,0.392541,257.677,0.794485
305.8000,1.75566,257.951,0.797775
305.7000,1.86487,257.713,0.79492
305.6000,0.171306,257.603,0.793601
305.5000,1.9308,257.598,0.793546
305.4000,1.16768,256.716,0.782934
305.3000,0.23342,256.693,0.782661
305.2000,0.747226,257.286,0.78979
305.1000,2.83516,257.633,0.793968
305.0000,1.50665,257.899,0.797149
304.9000,-1.31458,257.689,0.794634
304.8000,3.76583,257.454,0.791818
304.7000,-0.606279,257.624,0.793859
304.6000,-2.07888,257.218,0.788973
304.5000,1.99009,257.2,0.788755
304.4000,1.45978,257.255,0.789422
304.3000,1.66962,258.354,0.802609
304.2000,0.926406,256.899,0.785143
304.1000,2.74026,256.465,0.779917
304.0000,0.377866,257.209,0.788863
303.9000,2.95283,257.338,0.790416
303.8000,2.44822,256.892,0.785062
303.7000,0.379891,256.649,0.782129
303.6000,5.04307,256.377,0.778853
303.5000,-3.93349,257.03,0.786711
303.4000,1.73485,256.841,0.784448
303.3000,-1.23522,257.444,0.791696
303.2000,1.51762,257.427,0.791492
303.1000,-1.31321,257.376,0.790879
303.0000,-1.46791,257.249,0.789354
302.9000,2.76741,257.295,0.789899
302.8000,2.39993,257.135,0.787978
302.7000,-0.444598,257.146,0.788114
302.6000,1.63981,256.7,0.782743
302.5000,2.24848,257.352,0.790593
302.4000,-2.63307,257.492,0.792267
302.3000,1.28691,257.116,0.787747
302.2000,1.03006,257.175,0.788455
302.1000,-2.67529,256.939,0.78562
302.0000,2.45263,257.391,0.791056
301.9000,0.00406918,257.257,0.789449
301.8000,1.24445,257.048,0.786929
301.7000,2.69575,256.967,0.785961
301.6000,2.88759,256.736,0.783179
301.5000,1.80599,257.144,0.788087
301.4000,2.54993,257.74,0.795246
301.3000,-0.33841,256.773,0.78363
301.2000,-0.611517,256.996,0.786302
301.1000,2.72982,256.499,0.780327
301.0000,3.21109,256.845,0.784489
300.9000,-0.459108,257.019,0.786588
300.8000,3.38728,257.756,0.795437
300.7000,-0.94746,256.834,0.784352
300.6000,1.34056,256.789,0.78382
300.5000,2.34388,256.556,0.78101
300.4000,-1.4066,256.311,0.77806
300.3000,1.61336,256.092,0.775423
300.2000,2.20722,257.234,0.789163
300.1000,3.08973,256.635,0.781965
300.0000,1.19013,258.021,0.798617
299.9000,4.06265,256.525,0.780641
299.8000,0.0578237,256.673,0.782415
299.7000,1.88873,257.431,0.791532
299.6000,-0.439189,256.83,0.784312
299.5000,0.274085,257.158,0.788251
299.4000,2.08318,257.077,0.787283
299.3000,0.415598,256.75,0.783343
299.2000,4.7809,257.376,0.790879
299.1000,0.959372,256.355,0.778593
299.0000,3.7827,257.028,0.786697
298.9000,-0.513134,256.647,0.782101
298.8000,2.72318,256.657,0.782224
298.7000,1.84311,256.596,0.781487
298.6000,1.56945,256.673,0.782415
298.5000,0.702222,256.517,0.780545
298.4000,1.74047,257.009,0.786465
298.3000,0.953572,256.385,0.778948
298.2000,1.74752,256.915,0.785334
298.1000,3.08672,257.023,0.786629
298.0000,2.92043,256.523,0.780614
297.9000,0.829329,257.015,0.786534
297.8000,1.43958,256.985,0.786179
297.7000,1.98245,256.702,0.78277
297.6000,2.30797,256.001,0.774315
297.5000,3.66051,256.803,0.783984
297.4000,-0.371076,257.092,0.78746
297.3000,3.34628,256.98,0.786111
297.2000,3.92513,256.449,0.779726
297.1000,0.485991,256.604,0.781583
297.0000,4.17166,256.621,0.781788
296.9000,-1.41571,256.465,0.779917
296.8000,1.67262,255.688,0.770539
296.7000,1.79319,257.206,0.788836
296.6000,1.62358,256.414,0.779303
296.5000,2.57826,257.126,0.787869
296.4000,1.26721,256.164,0.776284
296.3000,1.8028,256.325,0.778224
296.2000,4.6077,256.149,0.776106
296.1000,-1.6827,256.802,0.783971
296.0000,-0.132927,256.374,0.778811
295.9000,2.34134,256.369,0.778757
295.8000,-0.183364,257.101,0.787569
295.7000,1.8141,257.348,0.790539
295.6000,3.04528,256.157,0.776202
295.5000,-0.370833,257.058,0.787052
295.4000,-0.515465,256.113,0.775669
295.3000,4.03123,256.706,0.782811
295.2000,3.39482,256.896,0.785102
295.1000,1.87791,256.17,0.776352
295.0000,3.0899,255.892,0.773002
294.9000,1.32662,256.377,0.778853
294.8000,3.2731,256.357,0.778607
294.7000,2.37561,256.487,0.780177
294.6000,1.28813,256.362,0.778675
294.5000,0.489854,256.352,0.778552
294.4000,1.41524,256.103,0.775546
294.3000,1.54067,256.334,0.778333
294.2000,2.51095,256.7,0.782743
294.1000,2.07447,257.014,0.78652
294.0000,0.934361,255.915,0.773276
293.9000,-0.947834,256.072,0.775177
293.8000,0.555084,256.571,0.781187
293.7000,0.506815,256.67,0.782388
293.6000,0.27896,257.307,0.790048
293.5000,0.389021,256.013,0.774466
293.4000,3.21172,257.042,0.786861
293.3000,-2.15022,256.763,0.783507
293.2000,1.97265,257.054,0.787011
293.1000,5.57937,256.312,0.778074
293.0000,-0.0940589,256.858,0.784652
292.9000,3.16576,256.82,0.784189
292.8000,0.130154,255.634,0.769882
292.7000,0.284349,257.006,0.786425
292.6000,3.80312,256.335,0.778347
292.5000,0.311036,257.494,0.792295
292.4000,3.8918,255.299,0.765841
292.3000,2.12133,257.335,0.790389
292.2000,2.03193,254.654,0.758021
292.1000,2.26803,256.821,0.784202
292.0000,1.25844,258.013,0.798522
291.9000,3.92862,255.626,0.769786
291.8000,1.45754,256.723,0.783016
291.7000,2.2622,256.085,0.775327
291.6000,-2.43653,255.89,0.772975
291.5000,1.43569,254.903,0.761041
291.4000,0.649515,255.576,0.769184
291.3000,2.19324,256.625,0.781842
291.2000,1.48601,256.594,0.781474
291.1000,1.91972,255.847,0.772455
291.0000,1.99954,255.821,0.77214
290.9000,-0.834772,256.079,0.775259
290.8000,2.11648,256.907,0.785239
290.7000,-0.364537,256.86,0.784666
290.6000,2.48506,255.345,0.766389
290.5000,1.80347,256.251,0.777336
290.4000,0.860718,256.073,0.77519
290.3000,2.0491,256.662,0.782293
290.2000,-0.210301,256.83,0.784312
290.1000,1.49854,256.303,0.777965
290.0000,0.761271,257.11,0.787678
289.9000,2.00288,256.306,0.777992
289.8000,1.49672,256.755,0.783411
289.7000,0.898443,256.377,0.778853
289.6000,1.10211,256.656,0.782211
289.5000,-0.475745,256.776,0.783657
289.4000,0.281149,256.583,0.781337
289.3000,1.11819,256.593,0.78146
289.2000,-1.61321,256.625,0.781842
289.1000,0.978822,256.497,0.7803
289.0000,-0.161476,256.474,0.780027
288.9000,-0.969805,256.801,0.783957
288.8000,-1.1137,256.98,0.786111
288.7000,4.85274,256.562,0.781078
288.6000,1.86928,256.431,0.779508
288.5000,3.77965,257.001,0.78637
288.4000,2.07639,257.701,0.794784
288.3000,-1.09051,256.922,0.785416
288.2000,1.21677,255.135,0.763853
288.1000,1.06845,257.248,0.78934
288.0000,2.46641,256.902,0.78517
287.9000,2.06774,255.92,0.773344
287.8000,1.66946,256.766,0.783534
287.7000,1.48362,257.13,0.787924
287.6000,0.906533,256.615,0.78172
287.5000,-0.154383,257.425,0.791464
287.4000,3.18167,256.289,0.777787
287.3000,1.58957,256.516,0.780532
287.2000,4.20625,256.964,0.78592
287.1000,1.4117,256.044,0.774835
287.0000,1.91618,256.922,0.785416
286.9000,2.93866,256.811,0.78408
286.8000,3.06531,256.509,0.78045
286.7000,-0.0514299,256.72,0.782988
286.6000,3.03803,256.728,0.783084
286.5000,1.05894,257.469,0.791995
286.4000,2.77038,257.433,0.79156
286.3000,2.24326,256.559,0.781051
286.2000,2.67523,256.306,0.777992
286.1000,3.91959,256.837,0.784393
286.0000,0.925756,257.169,0.788387
285.9000,2.27566,256.378,0.778866
285.8000,-0.533608,256.881,0.784925
285.7000,3.18794,256.964,0.78592
285.6000,1.41714,256.71,0.782865
285.5000,4.76081,256.74,0.78322
285.4000,3.06998,256.585,0.781364
285.3000,2.17715,256.312,0.778074
285.2000,1.25837,256.307,0.778005
285.1000,-0.625733,257.034,0.786766
285.0000,2.02272,256.31,0.778047
284.9000,1.514,257.422,0.791423
284.8000,1.4352,256.871,0.784802
284.7000,1.65431,256.303,0.777965
284.6000,-2.45662,257.23,0.789122
284.5000,1.5558,256.397,0.779098
284.4000,1.87468,256.78,0.783711
284.3000,-3.53439,256.408,0.779221
284.2000,0.685662,257.187,0.788605
284.1000,1.69452,256.378,0.778866
284.0000,-0.489705,256.772,0.783616
283.9000,2.41731,256.934,0.785566
283.8000,2.70474,256.58,0.781296
283.7000,1.09087,256.673,0.782415
283.6000,0.982316,256.341,0.778415
283.5000,-0.305215,256.872,0.784816
283.4000,0.0653345,255.336,0.76628
283.3000,-0.442342,257.211,0.788891
283.2000,-0.0310043,257.578,0.793302
283.1000,1.50389,256.435,0.779549
283.0000,1.33574,257.269,0.789585
282.9000,0.822952,257.312,0.790103
282.8000,2.16888,257.245,0.789299
282.7000,1.94089,256.275,0.777623
282.6000,-0.603818,256.767,0.783548
282.5000,3.09579,256.69,0.78262
282.4000,-0.901795,257.015,0.786534
282.3000,2.4624,256.55,0.780941
282.2000,3.35369,256.78,0.783711
282.1000,1.82059,257.409,0.791274
282.0000,4.01216,256.511,0.780464
281.9000,3.1038,257.048,0.786929
281.8000,0.0788229,256.431,0.779508
281.7000,2.13186,256.001,0.774315
281.6000,-0.398682,256.94,0.785634
281.5000,2.08735,256.392,0.77903
281.4000,0.77682,256.313,0.778087
281.3000,2.47928,256.172,0.776379
281.2000,1.88057,257.047,0.786915
281.1000,-0.656199,255.826,0.772209
281.0000,2.06311,256.991,0.786247
280.9000,0.656071,256.843,0.784461
280.8000,0.218728,256.234,0.777131
280.7000,1.42125,256.111,0.775642
280.6000,0.477563,255.813,0.772045
280.5000,-2.50434,256.979,0.786098
280.4000,4.85898,256.294,0.777855
280.3000,2.48431,256.659,0.782251
280.2000,-0.881871,256.426,0.77944
280.1000,1.08392,256.361,0.778661
280.0000,2.5346,256.925,0.785457
279.9000,0.86339,256.557,0.781023
279.8000,2.80129,256.46,0.779849
279.7000,4.16469,256.548,0.780914
279.6000,3.22374,256.911,0.78528
279.5000,0.597784,255.847,0.772455
279.4000,2.64779,256.81,0.784066
279.3000,-1.26992,255.831,0.772264
279.2000,0.0154974,256.682,0.782524
279.1000,-1.0214,256.176,0.776434
279.0000,0.107009,256.78,0.783711
278.9000,0.99623,256.472,0.779999
278.8000,0.267028,256.517,0.780545
278.7000,1.69251,256.318,0.778142
278.6000,0.313899,256.807,0.784039
278.5000,1.44177,256.683,0.782538
278.4000,-0.366416,256.916,0.785348
278.3000,1.9092,256.452,0.779754
278.2000,1.43418,256.591,0.781433
278.1000,0.427638,256.294,0.777855
278.0000,-0.680814,256.897,0.785116
277.9000,-0.793801,256.717,0.782948
277.8000,0.682483,256.753,0.783384
277.7000,-0.684711,256.474,0.780027
277.6000,3.37915,257.018,0.786575
277.5000,0.737023,256.725,0.783043
277.4000,0.95129,256.635,0.781965
277.3000,1.08521,255.653,0.770115
277.2000,2.544,256.465,0.779917
277.1000,0.939307,256.601,0.781556
277.0000,1.55914,256.21,0.776844
276.9000,0.129957,256.482,0.780122
276.8000,-3.34498,256.277,0.77765
276.7000,2.91237,256.275,0.777623
276.6000,1.55413,256.528,0.780668
276.5000,-1.9868,256.555,0.780996
276.4000,-0.145979,256.419,0.779358
276.3000,1.7423,256.597,0.781501
276.2000,0.0237594,256.207,0.776803
276.1000,1.55248,256.549,0.780928
276.0000,-1.54586,257.379,0.790906
275.9000,1.74503,256.072,0.775177
275.8000,0.921304,256.279,0.777678
275.7000,-0.372021,256.441,0.779631
275.6000,1.35599,256.609,0.781651
275.5000,1.1459,256.604,0.781583
275.4000,2.20052,256.492,0.780245
275.3000,2.60878,255.987,0.774151
275.2000,2.96693,256.693,0.782661
275.1000,-1.06433,256.574,0.781228
275.0000,2.38657,256.396,0.779085
274.9000,3.45203,256.43,0.779494
274.8000,2.30805,255.651,0.770087
274.7000,3.01392,255.682,0.770471
274.6000,-0.781155,256.105,0.775573
274.5000,-0.132323,256.194,0.776653
274.4000,2.71858,256.174,0.776407
274.3000,0.816828,255.79,0.771771
274.2000,1.87788,254.967,0.761824
274.1000,-0.634483,255.242,0.765142
274.0000,1.12015,255.765,0.77147
273.9000,0.177261,256.547,0.780901
273.8000,-2.48141,255.847,0.772455
273.7000,0.223739,256.202,0.776749
273.6000,-0.453668,256.095,0.77545
273.5000,-1.25924,256.418,0.779344
273.4000,-2.6076,255.935,0.773522
273.3000,2.88692,256.04,0.774794
273.2000,-1.2424,255.363,0.766609
273.1000,0.818216,256.79,0.783834
273.0000,-0.327109,255.553,0.76891
272.9000,2.99739,255.953,0.773741
272.8000,1.54661,256.759,0.783452
272.7000,-1.05637,256.5,0.780341
272.6000,0.477225,255.957,0.773782
272.5000,-1.78613,254.931,0.761384
272.4000,2.10312,256.137,0.775956
272.3000,-0.798219,256.486,0.780163
272.2000,1.40339,255.84,0.772373
272.1000,2.37265,255.274,0.76554
272.0000,1.69975,256.238,0.777172
271.9000,0.942252,255.406,0.767129
271.8000,1.09762,256.328,0.778265
271.7000,0.778067,255.783,0.771689
271.6000,-2.89208,255.795,0.771826
271.5000,0.932574,255.791,0.771785
271.4000,-1.5049,256.75,0.783343
271.3000,0.336408,255.322,0.766115
271.2000,-1.59487,255.757,0.771374
271.1000,3.55809,256.645,0.782088
271.0000,3.53904,255.663,0.770238
270.9000,0.35271,256.729,0.783098
270.8000,-3.01895,255.583,0.769266
270.7000,-0.871727,256.768,0.783561
270.6000,0.176624,255.312,0.765992
270.5000,-2.99764,256.321,0.778183
270.4000,2.14749,256.174,0.776407
270.3000,-3.00252,256.533,0.780737
270.2000,1.31722,256.32,0.77817
270.1000,-0.157986,256.19,0.776598
270.0000,-1.08476,255.558,0.768965
269.9000,-0.156654,255.932,0.773481
269.8000,1.12947,255.046,0.76277
269.7000,-0.763587,255.433,0.767458
269.6000,1.71271,256.751,0.783357
269.5000,-3.30001,255.581,0.769252
269.4000,-1.74098,256.956,0.785825
269.3000,0.993731,256.517,0.780545
269.2000,1.36686,255.907,0.77318
269.1000,-0.978792,256.947,0.785716
269.0000,-1.96924,256.057,0.774999
268.9000,-0.120121,256.362,0.778675
268.8000,0.0818376,255.908,0.773194
268.7000,-4.02439,256.351,0.778538
268.6000,1.50301,256.447,0.779699
268.5000,0.911331,256.449,0.779726
268.4000,0.26909,256.038,0.774767
268.3000,0.311256,256.002,0.774329
268.2000,1.48004,256.175,0.776421
268.1000,1.40431,256.679,0.782497
268.0000,4.12327,256.907,0.785239
267.9000,0.600345,256.432,0.779521
267.8000,1.23916,256.141,0.776011
267.7000,0.479225,256.403,0.779166
267.6000,1.8863,256.755,0.783411
267.5000,-0.405742,255.941,0.773591
267.4000,-0.290717,256.234,0.777131
267.3000,0.169824,256.78,0.783711
267.2000,1.32264,256.622,0.781801
267.1000,1.73253,256.283,0.777719
267.0000,3.45777,255.43,0.767417
266.9000,-0.0629995,255.932,0.773481
266.8000,-2.19396,256.562,0.781078
266.7000,1.22618,256.148,0.776092
266.6000,3.44666,257.314,0.79013
266.5000,0.157629,255.289,0.765718
266.4000,-1.10719,256.519,0.780559
266.3000,0.404085,256.902,0.78517
266.2000,-3.8044,257.178,0.788496
266.1000,0.0838685,256.018,0.77452
266.0000,1.15316,256.025,0.774602
265.9000,-0.458542,255.393,0.766979
265.8000,1.63278,256.006,0.774384
265.7000,2.88242,257.207,0.78885
265.6000,-1.95157,256.664,0.782306
265.5000,0.101961,256.677,0.78247
265.4000,1.00196,256.979,0.786098
265.3000,4.46431,256.255,0.777377
265.2000,-0.339932,255.733,0.771087
265.1000,-1.75177,256.235,0.777145
265.0000,2.46718,256.86,0.784666
264.9000,-1.51063,256.851,0.784557
264.8000,2.39382,255.285,0.765663
264.7000,2.26355,256.036,0.774739
264.6000,1.06637,257.107,0.787637
264.5000,1.51694,256.389,0.779003
264.4000,0.287856,256.861,0.78468
264.3000,-0.510748,255.833,0.772291
264.2000,1.79068,256.92,0.785389
264.1000,2.57053,256.624,0.781829
264.0000,0.839848,256.811,0.78408
263.9000,0.351757,256.806,0.784025
263.8000,3.60121,256.422,0.779399
263.7000,-0.00863478,256.933,0.785552
263.6000,1.26958,257.151,0.788169
263.5000,-1.03126,257.146,0.788114
263.4000,-2.41919,256.999,0.786343
263.3000,2.97295,256.38,0.778893
263.2000,1.2393,255.941,0.773591
263.1000,-0.855102,255.219,0.764868
263.0000,1.11096,257.163,0.788319
262.9000,0.193532,256.741,0.783234
262.8000,-0.308662,257.682,0.794553
262.7000,1.3904,257.075,0.787256
262.6000,-2.3183,256.965,0.785934
262.5000,2.9221,257.246,0.789313
262.4000,-1.56254,257.076,0.78727
262.3000,0.6301,257.083,0.787351
262.2000,-1.35429,256.87,0.784789
262.1000,2.1307,257.197,0.788727
262.0000,2.04397,257.139,0.788033
261.9000,-0.0992905,256.176,0.776434
261.8000,-0.681127,256.54,0.780818
261.7000,-0.243759,256.532,0.780723
261.6000,0.52481,256.656,0.782211
261.5000,-0.850281,256.971,0.786002
261.4000,2.92762,256.923,0.78543
261.3000,-0.712357,256.885,0.784966
261.2000,0.739945,256.588,0.781392
261.1000,3.67734,257.539,0.792839
261.0000,-0.467934,257.857,0.796647
260.9000,1.517,257.124,0.787842
260.8000,-0.974539,256.832,0.784339
260.7000,1.11813,256.771,0.783602
260.6000,1.92396,257.375,0.790865
260.5000,-3.52354,257.255,0.789422
260.4000,-2.54789,257.667,0.794376
260.3000,-1.03464,256.69,0.78262
260.2000,-1.61045,257.709,0.794879
260.1000,0.363104,257.257,0.789449
260.0000,4.31934,257.194,0.788687
259.9000,0.41956,257.698,0.794743
259.8000,1.48204,258.111,0.79969
259.7000,1.25102,258.355,0.802623
259.6000,3.25968,258.823,0.808223
259.5000,-3.54277,257.451,0.791777
259.4000,1.29603,258.242,0.801265
259.3000,0.548188,257.675,0.794471
259.2000,-0.47077,257.334,0.790375
259.1000,2.20359,257.272,0.789626
259.0000,0.787017,256.836,0.78438
258.9000,-2.18666,258.106,0.799636
258.8000,0.475795,258.232,0.801143
258.7000,-1.0676,257.869,0.796796
258.6000,0.414528,258.343,0.802473
258.5000,-0.627641,258.257,0.801442
258.4000,-0.623592,258.096,0.799514
258.3000,0.700546,257.546,0.79292
258.2000,-2.9669,258.037,0.798807
258.1000,-2.5101,258.088,0.799419
258.0000,-2.69034,257.76,0.795491
257.9000,-0.693215,258.117,0.799772
257.8000,-1.03753,258.367,0.802758
257.7000,0.00975967,259.346,0.814465
257.6000,-1.41825,257.307,0.790048
257.5000,-0.730634,257.555,0.793029
257.4000,-1.84874,257.615,0.79375
257.3000,0.410257,258.104,0.799609
257.2000,0.688348,258.891,0.809036
257.1000,3.92644,259.273,0.813599
257.0000,-0.211805,258.549,0.804942
256.9000,1.62855,258.622,0.80581
256.8000,-0.966368,258.386,0.802989
256.7000,-1.81866,258.356,0.802636
256.6000,-1.27241,258.56,0.805078
256.5000,1.52454,258.731,0.807125
256.4000,-1.2124,260.101,0.823477
256.3000,2.45353,258.168,0.800383
256.2000,-0.476868,258.233,0.801157
256.1000,0.972352,258.014,0.798536
256.0000,-0.422403,258.385,0.802975
255.9000,2.30105,258.704,0.8068
255.8000,2.24843,258.644,0.806082
255.7000,2.42358,258.492,0.804264
255.6000,1.0402,258.288,0.801822
255.5000,-0.236513,258.943,0.809659
255.4000,1.06222,258.65,0.806149
255.3000,1.88879,258.552,0.804983
255.2000,0.00385087,258.035,0.79878
255.1000,-1.64741,259.611,0.817629
255.0000,0.889587,258.842,0.808454
254.9000,1.43533,259.528,0.816642
254.8000,-2.52708,259.014,0.810499
254.7000,-0.0377266,259.229,0.813071
254.6000,0.679077,258.586,0.80539
254.5000,1.5725,258.932,0.809524
254.4000,0.407533,259.089,0.811406
254.3000,1.37416,258.478,0.804088
254.2000,-1.81461,259.264,0.813491
254.1000,0.739079,259.879,0.820831
254.0000,4.09949,259.04,0.810811
253.9000,-2.09751,259.306,0.813991
253.8000,2.16221,258.842,0.808454
253.7000,0.923409,259.398,0.815087
253.6000,0.724883,258.737,0.807193
253.5000,-1.93635,259.448,0.815682
253.4000,-0.241906,259.911,0.821209
253.3000,-2.33239,258.876,0.80886
253.2000,1.61808,259.798,0.819858
253.1000,-0.956418,259.533,0.816696
253.0000,-0.503474,258.947,0.8097
252.9000,1.13835,258.99,0.810215
252.8000,1.40172,259.274,0.813612
252.7000,2.24986,258.806,0.80802
252.6000,1.45127,259.429,0.815466
252.5000,-0.417233,259.84,0.820358
252.4000,-1.53786,260.505,0.828278
252.3000,-1.63238,260.741,0.831094
252.2000,2.3486,260.187,0.824502
252.1000,1.2489,259.863,0.820642
252.0000,1.67945,259.707,0.818778
251.9000,-1.54057,260.258,0.825339
251.8000,-1.01367,258.957,0.809822
251.7000,-4.66584,260.701,0.830609
251.6000,-1.10178,260.175,0.824354
251.5000,-1.43494,259.909,0.821182
251.4000,3.37516,260.553,0.828858
251.3000,-0.915969,260.058,0.822964
251.2000,0.854935,259.792,0.819791
251.1000,-1.05103,259.536,0.816737
251.0000,-1.70588,260.417,0.82724
250.9000,-1.35549,259.454,0.815763
250.8000,-2.55523,259.528,0.816642
250.7000,-1.00109,260.799,0.831781
250.6000,-2.29316,260.031,0.82264
250.5000,-0.908353,260.101,0.823477
250.4000,-0.142713,260.627,0.829733
250.3000,0.714249,259.45,0.815709
250.2000,-0.659376,259.951,0.821681
250.1000,2.64924,261.088,0.835213
250.0000,1.65574,260.391,0.82693
249.9000,-1.39622,260.642,0.829908
249.8000,1.93048,260.25,0.825244
249.7000,-1.9995,259.656,0.818169
249.6000,-0.999127,260.584,0.829221
249.5000,0.717916,259.824,0.820169
249.4000,0.0819668,260.232,0.825029
249.3000,-1.47234,258.513,0.804509
249.2000,1.07027,259.868,0.820696
249.1000,-1.35774,261.242,0.837042
249.0000,0.120952,260.253,0.825285
248.9000,1.1695,260.193,0.82457
248.8000,-3.76047,260.289,0.825716
248.7000,1.62001,260.555,0.828871
248.6000,3.04586,260.16,0.824178
248.5000,1.22472,260.301,0.825851
248.4000,2.46647,260.604,0.829464
248.3000,0.753038,260.054,0.82291
248.2000,-0.0107995,260.562,0.828965
248.1000,0.543828,260.219,0.82488
248.0000,-1.45976,260.068,0.823085
247.9000,-1.47991,259.766,0.81948
247.8000,0.705956,260.727,0.830919
247.7000,-1.20773,260.286,0.825676
247.6000,-0.629245,259.518,0.81652
247.5000,0.824297,260.491,0.828116
247.4000,3.0101,259.675,0.818399
247.3000,-1.21562,260.395,0.826971
247.2000,-2.6867,260.266,0.825433
247.1000,-1.62158,260.944,0.833504
247.0000,0.194783,260.518,0.82844
246.9000,-1.61917,260.446,0.827577
246.8000,0.148733,260.605,0.829477
246.7000,-1.02241,262.116,0.847395
246.6000,0.761007,261.574,0.84098
246.5000,0.76923,260.96,0.833692
246.4000,0.946128,260.382,0.826822
246.3000,1.87438,260.988,0.834029
246.2000,0.604433,261.197,0.836504
246.1000,0.104059,260.737,0.83104
246.0000,-3.52866,260.662,0.830151
245.9000,1.54895,260.158,0.824152
245.8000,-2.1076,260.866,0.832575
245.7000,-2.79449,260.226,0.824961
245.6000,-4.50906,260.718,0.830811
245.5000,-0.243313,260.885,0.832804
245.4000,0.310287,261.024,0.834446
245.3000,-2.77205,261.379,0.838669
245.2000,0.911651,260.277,0.825568
245.1000,-1.62106,260.174,0.824341
245.0000,-1.19819,260.891,0.832871
244.9000,0.308119,260.712,0.830744
244.8000,2.66677,261.25,0.837136
244.7000,-1.29437,260.983,0.833962
244.6000,-4.53967,261.217,0.836746
244.5000,0.208716,261.776,0.84337
244.4000,-1.66055,260.326,0.826148
244.3000,-0.837819,261.451,0.839515
244.2000,-3.682,261.426,0.83922
244.1000,-1.60394,260.914,0.83314
244.0000,-0.85599,261.015,0.834338
243.9000,-2.71882,261.205,0.836598
243.8000,0.366736,262.003,0.846054
243.7000,-3.51678,262.022,0.846282
243.6000,-3.78368,261.669,0.842108
243.5000,1.41717,261.286,0.837566
243.4000,-2.04201,262.427,0.851081
243.3000,-2.35913,262.02,0.846255
243.2000,-3.03283,262.026,0.846335
243.1000,-1.89078,261.79,0.843531
243.0000,-7.55331,262.004,0.846067
242.9000,-3.46621,262.446,0.851295
242.8000,-3.18477,261.282,0.837512
242.7000,-5.80881,261.658,0.841974
242.6000,-4.5137,262.264,0.849151
242.5000,-2.55114,262.591,0.853009
242.4000,-1.65503,262.014,0.846188
242.3000,-7.53345,261.999,0.846013
242.2000,-4.69011,262.392,0.850665
242.1000,-5.00003,261.793,0.843571
242.0000,-4.03612,262.258,0.849071
241.9000,-4.34926,261.954,0.845477
241.8000,-5.86212,263.001,0.857853
241.7000,-5.71511,262.072,0.846872
241.6000,-4.48222,263.357,0.862049
241.5000,-6.21606,263.315,0.861555
241.4000,-5.46604,262.373,0.850437
241.3000,-2.26016,263.059,0.858535
241.2000,-4.98059,262.864,0.856234
241.1000,-3.95356,263.172,0.859871
241.0000,-7.82868,263.098,0.859002
240.9000,-5.17646,263.964,0.869201
240.8000,-7.4634,262.789,0.855351
240.7000,-8.64241,262.212,0.848534
240.6000,-5.76253,264.714,0.878016
240.5000,-5.40395,263.881,0.868228
240.4000,-6.18846,263.964,0.869201
240.3000,-2.55149,263.164,0.859778
240.2000,-6.4355,263.419,0.862784
240.1000,-9.51783,263.214,0.860366
240.0000,-5.92682,262.696,0.854254
239.9000,-8.63999,264.432,0.874703
239.8000,-5.67766,263.826,0.867575
239.7000,-7.58746,263.557,0.864412
239.6000,-5.59276,263.232,0.86058
239.5000,-3.21931,264.022,0.869881
239.4000,-8.26324,264.733,0.878242
239.3000,-9.57989,265.242,0.884209
239.2000,-11.6712,264.872,0.879864
239.1000,-6.84547,264.081,0.870574
239.0000,-7.48517,265.615,0.888575
238.9000,-15.6577,265.455,0.886704
238.8000,-8.72147,265.827,0.891054
238.7000,-9.5784,265.13,0.882894
238.6000,-10.1435,265.237,0.884156
238.5000,-11.7186,265.773,0.890431
238.4000,-11.1036,265.481,0.88701
238.3000,-13.6057,266.444,0.89827
238.2000,-12.5392,267.046,0.905288
238.1000,-13.4365,265.58,0.888164
238.0000,-10.2811,266.91,0.903703
237.9000,-12.1441,266.679,0.901008
237.8000,-12.9932,266.962,0.904311
237.7000,-7.52524,266.806,0.902488
237.6000,-13.7664,266.816,0.902607
237.5000,-13.9135,266.814,0.90258
237.4000,-10.113,266.919,0.903809
237.3000,-8.99164,267.146,0.906449
237.2000,-12.1691,267.814,0.914229
237.1000,-11.0992,267.626,0.912042
237.0000,-13.9317,267.952,0.915836
236.9000,-11.1576,267.648,0.912292
236.8000,-14.6562,267.827,0.914374
236.7000,-18.2227,268.775,0.925382
236.6000,-13.2779,267.848,0.914624
236.5000,-18.1751,267.987,0.916244
236.4000,-15.7857,269.577,0.934669
236.3000,-14.082,268.369,0.920678
236.2000,-19.0404,269.344,0.931969
236.1000,-14.4156,269.007,0.928074
236.0000,-14.8082,269.326,0.931759
235.9000,-18.115,269.713,0.936241
235.8000,-13.8587,269.016,0.928179
235.7000,-17.7482,269.796,0.937196
235.6000,-18.2582,270.763,0.94836
235.5000,-20.4007,270.635,0.946885
235.4000,-17.6105,270.59,0.946362
235.3000,-16.4056,270.68,0.947394
235.2000,-18.4035,270.872,0.949613
235.1000,-17.6409,271.473,0.956522
235.0000,-18.0947,270.43,0.944521
234.9000,-18.487,271.129,0.952574
234.8000,-19.6869,271.756,0.959777
234.7000,-22.5077,271.544,0.957343
234.6000,-22.619,271.671,0.958801
234.5000,-20.1622,271.236,0.953799
234.4000,-19.9274,272.761,0.971302
234.3000,-22.9715,272.539,0.968758
234.2000,-22.0945,272.721,0.970848
234.1000,-20.6034,272.703,0.97064
234.0000,-23.4372,273.772,0.982856
233.9000,-25.1805,272.878,0.972638
233.8000,-25.8355,273.475,0.979466
233.7000,-22.3878,274.135,0.987006
233.6000,-31.3026,274.071,0.986269
233.5000,-22.778,274.037,0.985882
233.4000,-25.9773,273.702,0.982054
233.3000,-22.1812,274.926,0.996012
233.2000,-29.0272,274.103,0.986631
233.1000,-26.4659,274.765,0.994182
233.0000,-26.7208,274.618,0.992505
232.9000,-27.6166,275.235,0.999516
232.8000,-29.2532,275.499,1.00252
232.7000,-27.7166,275.074,0.997688
232.6000,-28.4703,275.988,1.00807
232.5000,-29.4953,277.04,1.01997
232.4000,-26.9937,276.821,1.0175
232.3000,-32.2231,276.05,1.00878
232.2000,-28.1411,276.202,1.0105
232.1000,-31.9525,276.916,1.01858
232.0000,-33.1969,277.795,1.0285
231.9000,-31.0847,277.153,1.02125
231.8000,-30.908,277.974,1.03052
231.7000,-31.7042,277.843,1.02904
231.6000,-30.014,279.005,1.04213
231.5000,-34.8259,278.645,1.03808
231.4000,-30.7289,278.5,1.03644
231.3000,-34.4743,278.922,1.04118
231.2000,-31.1697,279.103,1.04322
231.1000,-37.1851,278.95,1.0415
231.0000,-35.6173,279.051,1.04264
230.9000,-34.2623,279.629,1.04912
230.8000,-36.0829,279.844,1.05154
230.7000,-37.8418,280.102,1.05443
230.6000,-35.8891,279.553,1.04827
230.5000,-40.109,280.461,1.05845
230.4000,-34.0346,280.452,1.05835
230.3000,-34.7466,280.363,1.05735
230.2000,-35.1256,280.879,1.06313
230.1000,-36.0953,280.109,1.05451
230.0000,-37.9004,280.749,1.06167
229.9000,-36.0856,280.432,1.05812
229.8000,-40.1764,281.65,1.07173
229.7000,-39.3505,281.95,1.07507
229.6000,-39.8554,280.937,1.06377
229.5000,-43.2379,281.753,1.07288
229.4000,-40.1699,282.124,1.077
229.3000,-44.2544,282.253,1.07844
229.2000,-39.7946,282.946,1.08615
229.1000,-44.3848,283.339,1.09051
229.0000,-42.2569,282.943,1.08611
228.9000,-42.9265,282.721,1.08364
228.8000,-42.1181,283.588,1.09327
228.7000,-46.0301,285.204,1.11115
228.6000,-41.3397,284.697,1.10554
228.5000,-46.0017,284.603,1.1045
228.4000,-47.0515,284.696,1.10553
228.3000,-45.7731,284.691,1.10548
228.2000,-45.5265,285.416,1.11348
228.1000,-39.6999,286.122,1.12126
228.0000,-48.4646,285.609,1.11561
227.9000,-42.1898,286.136,1.12141
227.8000,-45.7479,286.435,1.1247
227.7000,-45.3389,287.663,1.13818
227.6000,-48.0071,287.527,1.13669
227.5000,-50.484,287.776,1.13942
227.4000,-44.9533,287.361,1.13486
227.3000,-56.7198,288.817,1.15079
227.2000,-43.7497,289.254,1.15556
227.1000,-49.5628,288.406,1.14631
227.0000,-45.9314,288.815,1.15078
226.9000,-46.0844,288.179,1.14382
226.8000,-51.0648,289.127,1.15418
226.7000,-48.7365,288.898,1.15168
226.6000,-50.2365,289.035,1.15318
226.5000,-52.8297,289.617,1.15951
226.4000,-48.0167,290.763,1.17198
226.3000,-48.9776,289.834,1.16188
226.2000,-53.2658,289.801,1.16153
226.1000,-57.3495,289.679,1.16019
226.0000,-50.7336,290.25,1.16641
225.9000,-51.9074,290.423,1.16829
225.8000,-49.1436,291.612,1.18119
225.7000,-51.4912,291.135,1.17602
225.6000,-54.7483,292.106,1.18653
225.5000,-53.2014,291.367,1.17854
225.4000,-51.3935,291.778,1.18299
225.3000,-50.368,293.314,1.19958
225.2000,-54.3478,292.879,1.19488
225.1000,-53.0078,292.989,1.19607
225.0000,-57.8021,293.522,1.20182
224.9000,-53.079,293.194,1.19828
224.8000,-52.124,294.172,1.20881
224.7000,-58.8061,293.421,1.20074
224.6000,-55.6354,294.134,1.20841
224.5000,-53.6926,293.826,1.20509
224.4000,-51.2703,294.684,1.21431
224.3000,-56.4301,295.262,1.22051
224.2000,-59.9295,294.838,1.21597
224.1000,-56.4687,295.547,1.22357
224.0000,-53.3674,294.886,1.21649
223.9000,-58.0902,295.268,1.22058
223.8000,-57.291,296.304,1.23167
223.7000,-53.5419,296.268,1.23128
223.6000,-60.4537,296.501,1.23378
223.5000,-56.7693,296.46,1.23334
223.4000,-58.5574,296.502,1.23379
223.3000,-54.7575,296.702,1.23592
223.2000,-58.6359,296.554,1.23434
223.1000,-54.4502,296.434,1.23306
223.0000,-58.8263,297.755,1.24715
222.9000,-58.1103,297.192,1.24115
222.8000,-59.5647,297.933,1.24904
222.7000,-56.1868,298.149,1.25133
222.6000,-56.604,298.056,1.25034
222.5000,-56.6676,297.928,1.24898
222.4000,-63.2611,298.939,1.25973
222.3000,-55.3002,298.722,1.25742
222.2000,-49.7033,299.258,1.26311
222.1000,-60.0624,299.883,1.26973
222.0000,-56.0622,300.574,1.27704
221.9000,-58.7796,299.522,1.26591
221.8000,-59.7106,299.622,1.26696
221.7000,-57.5621,302.017,1.29224
221.6000,-54.4816,300.569,1.27698
221.5000,-56.727,300.504,1.2763
221.4000,-59.2389,301.2,1.28364
221.3000,-51.627,302.062,1.29272
221.2000,-57.1997,300.629,1.27761
221.1000,-53.7904,301.957,1.29161
221.0000,-57.4929,302.146,1.2936
220.9000,-60.3396,302.289,1.2951
220.8000,-58.5513,303.08,1.30341
220.7000,-57.0488,304.155,1.31467
220.6000,-56.3328,304.678,1.32014
220.5000,-60.5612,304.767,1.32106
220.4000,-59.725,303.754,1.31047
220.3000,-57.1741,304.121,1.31431
220.2000,-53.5434,304.847,1.3219
220.1000,-57.0856,304.542,1.31872
220.0000,-53.216,304.787,1.32127
219.9000,-59.096,304.831,1.32173
219.8000,-56.307,304.711,1.32048
219.7000,-55.5175,305.216,1.32574
219.6000,-59.1407,305.067,1.32419
219.5000,-52.6222,306.519,1.3393
219.4000,-55.9053,306.524,1.33936
219.3000,-56.1914,307.919,1.35383
219.2000,-47.6854,307.358,1.34802
219.1000,-59.7214,307.11,1.34544
219.0000,-54.1916,307.36,1.34804
218.9000,-52.7718,308.139,1.3561
218.8000,-61.8698,308.849,1.36344
218.7000,-52.8889,308.493,1.35977
218.6000,-57.3502,308.628,1.36116
218.5000,-63.2506,308.51,1.35994
218.4000,-59.5507,308.473,1.35956
218.3000,-61.0405,310.402,1.37944
218.2000,-59.5168,311.169,1.38732
218.1000,-52.8117,309.043,1.36544
218.0000,-56.2746,309.976,1.37505
217.9000,-62.8472,310.78,1.38333
217.8000,-54.9052,310.641,1.38189
217.7000,-55.8993,311.757,1.39334
217.6000,-59.0756,311.242,1.38807
217.5000,-53.7893,311.811,1.3939
217.4000,-51.4394,311.835,1.39415
217.3000,-63.2776,311.778,1.39357
217.2000,-60.8037,313.504,1.4112
217.1000,-56.0176,313.025,1.40631
217.0000,-53.7325,313.753,1.41374
216.9000,-54.6678,313.692,1.41312
216.8000,-61.207,314.383,1.42016
216.7000,-54.3213,314.371,1.42003
216.6000,-59.6992,314.759,1.42398
216.5000,-54.251,314.11,1.41738
216.4000,-54.6424,315.339,1.42987
216.3000,-51.0809,314.235,1.41865
216.2000,-49.5789,315.771,1.43425
216.1000,-50.6717,315.611,1.43263
216.0000,-49.3076,316.025,1.43682
215.9000,-51.5389,316.18,1.43839
215.8000,-57.2639,317.706,1.45381
215.7000,-50.1826,316.9,1.44567
215.6000,-60.9275,317.955,1.45632
215.5000,-60.1227,317.556,1.45229
215.4000,-60.1292,318.122,1.45801
215.3000,-51.1631,318.353,1.46033
215.2000,-51.2351,318.662,1.46343
215.1000,-57.1096,319.066,1.4675
215.0000,-54.8392,319.587,1.47273
214.9000,-56.0186,319.189,1.46873
214.8000,-55.5814,320.581,1.48269
214.7000,-52.8333,319.693,1.47379
214.6000,-55.2049,320.891,1.4858
214.5000,-55.5123,321.094,1.48783
214.4000,-55.533,322.033,1.49719
214.3000,-51.7754,321.192,1.4888
214.2000,-49.2058,321.917,1.49604
214.1000,-54.2812,322.743,1.50427
214.0000,-53.4075,322.644,1.50329
213.9000,-54.18,323.089,1.50771
213.8000,-52.6517,323.384,1.51065
213.7000,-55.8625,325.844,1.53501
213.6000,-58.5051,323.959,1.51635
213.5000,-51.2127,324.729,1.52399
213.4000,-62.8891,324.066,1.51742
213.3000,-53.3361,323.913,1.5159
213.2000,-51.0823,325.79,1.53447
213.1000,-62.8368,325.615,1.53275
213.0000,-53.5341,325.343,1.53006
212.9000,-51.5455,326.643,1.54289
212.8000,-51.9981,327.327,1.54963
212.7000,-54.6041,326.414,1.54063
212.6000,-59.6102,327.139,1.54778
212.5000,-48.8834,327.773,1.554
212.4000,-55.5677,328.184,1.55804
212.3000,-54.0469,329.591,1.57183
212.2000,-60.9683,329.068,1.56671
212.1000,-59.3368,330.894,1.58455
212.0000,-61.3999,329.665,1.57255
211.9000,-55.5753,331.064,1.58621
211.8000,-61.2224,332.247,1.59771
211.7000,-50.9361,332.474,1.59991
211.6000,-50.4532,333.063,1.60563
211.5000,-55.8605,333.031,1.60532
211.4000,-59.635,334.518,1.61971
211.3000,-49.1608,334.011,1.61481
211.2000,-66.772,333.568,1.61053
211.1000,-57.6601,336.011,1.6341
211.0000,-58.8506,335.541,1.62958
210.9000,-52.9263,335.586,1.63001
210.8000,-53.1314,335.783,1.63191
210.7000,-61.3707,336.811,1.64179
210.6000,-56.5343,337.621,1.64957
210.5000,-48.7717,338.089,1.65405
210.4000,-59.8543,338.864,1.66146
210.3000,-52.4266,338.868,1.66149
210.2000,-59.37,339.642,1.66888
210.1000,-62.9353,339.987,1.67218
210.0000,-54.9478,341.254,1.68423
209.9000,-57.218,340.482,1.67689
209.8000,-60.9237,341.269,1.68437
209.7000,-59.5515,341.962,1.69095
209.6000,-60.773,343.508,1.70558
209.5000,-52.8435,344.581,1.7157
209.4000,-56.1797,344.608,1.71595
209.3000,-57.7647,345.766,1.72685
209.2000,-66.0351,346.111,1.73009
209.1000,-58.6139,346.993,1.73836
209.0000,-64.7566,348.7,1.75432
208.9000,-57.2558,346.507,1.7338
208.8000,-59.1766,349.207,1.75904
208.7000,-54.784,349.43,1.76112
208.6000,-61.0712,350.808,1.77393
208.5000,-64.1856,351.039,1.77608
208.4000,-51.1356,352.256,1.78735
208.3000,-49.8478,352.887,1.79318
208.2000,-53.7627,352.966,1.79392
208.1000,-52.7272,352.904,1.79334
208.0000,-56.3922,354.686,1.80977
207.9000,-62.4667,355.664,1.81875
207.8000,-61.1172,357.491,1.83547
207.7000,-50.7009,357.831,1.83858
207.6000,-53.5279,358.065,1.84072
207.5000,-59.5823,359.038,1.84959
207.4000,-46.2299,360.893,1.86644
207.3000,-51.4895,361.518,1.87209
207.2000,-45.6278,361.623,1.87304
207.1000,-49.2894,361.374,1.87079
207.0000,-44.0083,364.606,1.89995
206.9000,-52.8049,364.118,1.89556
206.8000,-48.3278,365.013,1.9036
206.7000,-51.669,366.42,1.91621
206.6000,-46.8017,367.346,1.92449
206.5000,-51.1417,367.839,1.92889
206.4000,-44.824,369.567,1.94427
206.3000,-41.9478,370.982,1.95683
206.2000,-41.2535,370.284,1.95064
206.1000,-42.4655,372.428,1.96961
206.0000,-41.9132,372.04,1.96619
205.9000,-40.5631,374.646,1.98915
205.8000,-46.9929,377.186,2.01139
205.7000,-51.8397,376.661,2.0068
205.6000,-43.1448,376.938,2.00922
205.5000,-39.051,378.896,2.02629
205.4000,-34.36,379.923,2.03522
205.3000,-42.2855,381.014,2.04469
205.2000,-42.6303,383.488,2.06605
205.1000,-35.6647,383.999,2.07045
205.0000,-36.8268,384.961,2.07872
204.9000,-34.1785,385.119,2.08008
204.8000,-29.5609,387.543,2.10083
204.7000,-26.582,389.012,2.11334
204.6000,-25.8863,389.117,2.11424
204.5000,-22.8973,391.724,2.13636
204.4000,-28.377,393.382,2.15036
204.3000,-33.609,393.576,2.152
204.2000,-17.5185,397.065,2.1813
204.1000,-16.8691,395.194,2.16561
204.0000,-25.3357,398.359,2.19211
203.9000,-24.126,398.692,2.19489
203.8000,-28.8138,401.541,2.21856
203.7000,-30.1363,402.394,2.22563
203.6000,-19.0851,405.007,2.24718
203.5000,-25.2809,405.991,2.25527
203.4000,-16.1235,405.719,2.25303
203.3000,-13.8597,408.412,2.2751
203.2000,-19.5094,409.298,2.28233
203.1000,-7.48433,411.83,2.30293
203.0000,-20.5323,413.144,2.31356
202.9000,-10.5414,414.644,2.32568
202.8000,-18.4951,415.483,2.33245
202.7000,-13.3245,417.322,2.34723
202.6000,-6.6527,417.812,2.35115
202.5000,-3.84682,420.07,2.36921
202.4000,-5.24723,421.614,2.38151
202.3000,-11.0756,423.503,2.39651
202.2000,1.3183,426.811,2.42263
202.1000,-12.9438,426.898,2.42332
202.0000,-7.35328,429.851,2.44649
201.9000,7.87338,431.597,2.46013
201.8000,5.98356,434.102,2.47962
201.7000,-1.00066,435.056,2.48701
201.6000,9.17854,436.765,2.50023
201.5000,-4.09079,438.447,2.5132
201.4000,-3.21811,441.127,2.53377
201.3000,13.3505,440.219,2.52681
201.2000,2.44423,442.716,2.54591
201.1000,9.71429,445.303,2.56561
201.0000,2.92046,447.635,2.58329
200.9000,18.6552,449.711,2.59895
200.8000,7.97923,450.974,2.60846
200.7000,5.85431,453.434,2.6269
200.6000,5.84279,454.956,2.63827
200.5000,7.75501,457.2,2.65497
200.4000,17.9683,458.134,2.6619
200.3000,16.9292,462.634,2.69513
200.2000,12.9972,462.775,2.69617
200.1000,15.8028,466.099,2.72053
200.0000,17.1717,467.819,2.73309
199.9000,11.5071,469.369,2.74436
199.8000,22.8903,472.94,2.77023
199.7000,36.1787,473.698,2.7757
199.6000,20.0115,477.785,2.80505
199.5000,12.2829,479.045,2.81406
199.4000,20.3604,480.513,2.82453
199.3000,17.9478,480.466,2.82419
199.2000,15.7851,485.867,2.86249
199.1000,30.2981,485.408,2.85925
199.0000,7.57402,488.434,2.88055
198.9000,16.3119,491.099,2.89923
198.8000,24.7288,493.361,2.91502
198.7000,23.7829,495.872,2.93248
198.6000,30.8313,498.848,2.95306
198.5000,33.5779,501.575,2.97184
198.4000,5.21614,503.925,2.98794
198.3000,12.7414,505.197,2.99664
198.2000,21.5673,506.439,3.00511
198.1000,27.4288,508.989,3.02244
198.0000,22.3524,512.664,3.0473
197.9000,21.0103,514.496,3.05964
197.8000,11.1926,517.564,3.0802
197.7000,22.5965,520.079,3.09699
197.6000,36.856,521.986,3.10968
197.5000,34.9946,523.55,3.12005
197.4000,30.5643,526.515,3.13964
197.3000,24.6001,528.674,3.15385
197.2000,23.5414,531.323,3.17121
197.1000,28.7557,533.966,3.18847
197.0000,23.3016,536.069,3.20214
196.9000,37.2603,538.275,3.21644
196.8000,31.5614,540.975,3.23387
196.7000,12.2275,541.803,3.2392
196.6000,13.6979,547.477,3.27555
196.5000,29.6785,548.657,3.28307
196.4000,17.6314,551.6,3.30176
196.3000,30.3526,554.924,3.32277
196.2000,34.4847,557.246,3.33738
196.1000,18.6872,559.484,3.35142
196.0000,33.3477,562.423,3.36978
195.9000,29.4663,563.095,3.37396
195.8000,26.6677,566.526,3.39527
195.7000,24.6475,569.617,3.41438
195.6000,32.2886,571.6,3.42659
195.5000,36.878,573.421,3.43777
195.4000,11.5503,575.101,3.44806
195.3000,27.7374,576.882,3.45894
195.2000,27.3948,580.188,3.47906
195.1000,32.487,580.281,3.47962
195.0000,13.3667,582.297,3.49184
194.9000,24.9164,585.405,3.51061
194.8000,31.1938,586.393,3.51655
194.7000,19.7922,588.389,3.52855
194.6000,28.7342,590.447,3.54087
194.5000,29.3323,592.606,3.55376
194.4000,18.2662,594.363,3.56423
194.3000,29.1885,596.933,3.57948
194.2000,22.5769,598.602,3.58936
194.1000,16.6308,601.446,3.60614
194.0000,17.0322,603.66,3.61915
193.9000,20.5548,605.059,3.62736
193.8000,29.5562,608.035,3.64475
193.7000,26.0108,610.705,3.6603
193.6000,25.1429,612.364,3.66993
193.5000,19.2409,615.065,3.68557
193.4000,21.0437,615.258,3.68668
193.3000,24.4579,617.389,3.69897
193.2000,18.2564,619.492,3.71106
193.1000,10.8889,619.979,3.71386
193.0000,8.4487,623.212,3.73236
192.9000,16.027,623.611,3.73464
192.8000,27.1466,626.625,3.75181
192.7000,22.8836,626.729,3.75241
192.6000,32.5741,630.945,3.77631
192.5000,14.4423,632.176,3.78326
192.4000,17.7305,634.843,3.79828
192.3000,36.4468,637.701,3.81432
192.2000,12.1005,637.522,3.81332
192.1000,19.0904,639.418,3.82393
192.0000,6.52666,641.522,3.83567
191.9000,24.011,642.908,3.84339
191.8000,27.1007,645.327,3.85683
191.7000,-2.97611,647.397,3.86829
191.6000,15.1686,648.852,3.87633
191.5000,32.2909,651.305,3.88985
191.4000,26.4306,652.553,3.8967
191.3000,11.194,654.799,3.90902
191.2000,19.7438,656.47,3.91816
191.1000,23.1326,660.547,3.94038
191.0000,11.8094,661.149,3.94366
190.9000,24.5887,663.828,3.95818
190.8000,6.30816,667.351,3.97721
190.7000,22.94,669.46,3.98856
190.6000,6.83581,672.227,4.00341
190.5000,18.1351,673.208,4.00865
190.4000,24.9757,675.716,4.02205
190.3000,23.6858,677.667,4.03244
190.2000,12.9258,679.414,4.04172
190.1000,29.9204,680.118,4.04545
190.0000,23.867,683.173,4.06162

##### Extended Information
[Comments]
Sample name,Protein+Additive_AMSS
Comment
User,ScharfMinor
Division
Company,Saint Mary's College

[Detailed Information]
Creation date,9/27/2022 2:53 PM

Data array type,Linear data array * 3
Horizontal axis,Wavelength [nm]
Vertical axis(1),CD [mdeg]
Vertical axis(2),HT [V]
Vertical axis(3),Abs
Start,320 nm
End,190 nm
Data interval,0.1 nm
Data points,1301    

[Measurement Information]
Instrument name,J-1500
Model name,J-1500
Serial No.,B051061638

Detector,PM-539
Detector S/N,B051061638
  Lock-in amp.,X mode
  HT volt,Auto

Accessory,PTC-517
Accessory S/N,B026561646
  Temperature,22.07 C
  Control sensor,Holder
  Monitor sensor,Holder

Measurement date,9/27/2022 2:53 PM

CD Overload detect,871
Photometric mode,CD, HT, Abs
Measure range,320 - 190 nm
Data pitch,0.1 nm
CD scale,20 mdeg/0.05 dOD
FL scale,20 mdeg/0.05 dOD
D.I.T.,8 msec
Bandwidth,1.00 nm
Start mode,Immediately
Scanning mode,Continuous
Scanning speed,50 nm/min
Baseline correction,None
Shutter control,Auto
No. of cycle,1/1
N2 Flowmeter,Manual

Solvent,NaPO4 buffer

