TITLE,proteinbuffer_RMCT
DATA TYPE,
ORIGIN,JASCO
OWNER,
DATE,22/09/27
TIME,13:38:18
SPECTROMETER/DATA SYSTEM,
LOCALE,1033
RESOLUTION,
DELTAX,-0.1
XUNITS,NANOMETERS
YUNITS,CD [mdeg]
Y2UNITS,HT [V]
Y3UNITS,ABSORBANCE
FIRSTX,  320.0000
LASTX,  190.0000
NPOINTS,    1301
FIRSTY,     3.96748
MAXY,    41.34846
MINY,   -69.44334
XYDATA
320.0000,3.96748,257.345,0.790498
319.9000,2.8914,256.397,0.779098
319.8000,4.71859,256.173,0.776393
319.7000,1.13764,256.72,0.782988
319.6000,1.23675,257.428,0.791505
319.5000,3.02712,257.042,0.786861
319.4000,0.347137,256.75,0.783343
319.3000,1.44965,257.129,0.78791
319.2000,0.847308,255.389,0.766924
319.1000,1.25405,257.254,0.789408
319.0000,2.97827,256.401,0.779139
318.9000,0.156431,256.191,0.776612
318.8000,-1.34309,258.37,0.802799
318.7000,3.74938,257.681,0.794539
318.6000,-1.12388,256.553,0.780969
318.5000,-1.38096,256.303,0.777965
318.4000,3.38088,257.305,0.790021
318.3000,5.55882,256.805,0.784011
318.2000,-0.157919,256.53,0.780696
318.1000,2.78699,255.759,0.771402
318.0000,2.36141,257.003,0.786397
317.9000,0.329591,255.217,0.764841
317.8000,2.80617,258.407,0.803247
317.7000,-0.00831667,258.097,0.799527
317.6000,2.36013,255.849,0.772482
317.5000,-1.95382,256.403,0.779166
317.4000,1.87506,256.15,0.77612
317.3000,2.82403,256.936,0.785579
317.2000,2.45109,256.813,0.784107
317.1000,1.43773,256.273,0.777596
317.0000,3.36779,256.532,0.780723
316.9000,2.12979,256.096,0.775464
316.8000,1.36376,255.468,0.767883
316.7000,3.12028,256.44,0.779617
316.6000,0.557083,256.818,0.784161
316.5000,-0.433889,255.267,0.765444
316.4000,0.672992,256.268,0.777541
316.3000,2.17446,257.25,0.789368
316.2000,1.80777,256.9,0.785157
316.1000,2.44221,256.064,0.775081
316.0000,2.64641,256.187,0.776557
315.9000,2.19464,257.303,0.789994
315.8000,0.334795,255.077,0.763154
315.7000,2.85035,256.168,0.776339
315.6000,0.0713694,256.936,0.785579
315.5000,1.9765,255.731,0.77106
315.4000,0.731352,255.543,0.768787
315.3000,2.77089,255.419,0.767294
315.2000,6.89647,255.089,0.763291
315.1000,0.289232,256.255,0.777377
315.0000,1.19691,256.443,0.779644
314.9000,-3.71073,256.992,0.786261
314.8000,4.02851,255.351,0.766472
314.7000,4.93107,256.738,0.783207
314.6000,0.854227,257.355,0.79062
314.5000,1.96215,255.006,0.76229
314.4000,1.59579,257.041,0.786847
314.3000,1.08461,255.666,0.770279
314.2000,0.278077,255.543,0.768787
314.1000,1.96519,257.572,0.793233
314.0000,0.640475,256.551,0.780955
313.9000,4.71551,258.082,0.799351
313.8000,1.44504,256.177,0.776448
313.7000,0.868493,256.389,0.779003
313.6000,-3.13437,255.149,0.764018
313.5000,0.050519,255.791,0.771785
313.4000,-1.4199,255.981,0.774083
313.3000,2.68414,256.189,0.776584
313.2000,2.5431,255.254,0.765293
313.1000,3.17808,256.533,0.780737
313.0000,-0.288616,256.582,0.781324
312.9000,4.89294,256.336,0.778361
312.8000,4.51428,256.347,0.778497
312.7000,0.537105,256.342,0.778429
312.6000,-1.69843,256.159,0.776229
312.5000,-0.228281,256.863,0.784707
312.4000,0.349747,255.714,0.770854
312.3000,1.31804,255.127,0.763758
312.2000,0.980767,256.427,0.779453
312.1000,0.196858,256.675,0.782443
312.0000,3.2378,256.532,0.780723
311.9000,4.35642,256.262,0.777473
311.8000,4.45658,256.576,0.781255
311.7000,1.42094,257.229,0.789109
311.6000,1.63118,257.126,0.787869
311.5000,2.28318,256.321,0.778183
311.4000,2.37679,257.071,0.787215
311.3000,1.76867,255.95,0.7737
311.2000,2.68115,256.811,0.78408
311.1000,2.97588,256.462,0.779877
311.0000,3.94019,255.971,0.77396
310.9000,4.11451,256.752,0.78337
310.8000,-2.04961,255.903,0.773139
310.7000,0.465623,256.468,0.779945
310.6000,1.57074,255.783,0.771689
310.5000,-1.05792,256.605,0.781597
310.4000,1.71516,256.64,0.78202
310.3000,-0.384632,255.325,0.766157
310.2000,1.86491,254.975,0.761919
310.1000,1.10662,255.867,0.772702
310.0000,-0.0690734,257.448,0.791737
309.9000,-0.355787,256.793,0.783861
309.8000,-2.14776,256.215,0.776899
309.7000,4.27047,256.172,0.776379
309.6000,-1.53192,256.413,0.779289
309.5000,2.95624,256.461,0.779863
309.4000,1.64537,256.704,0.782797
309.3000,2.20515,256.707,0.782825
309.2000,3.84095,256.952,0.785784
309.1000,1.0204,256.123,0.775792
309.0000,1.25079,256.313,0.778087
308.9000,0.992948,255.359,0.766568
308.8000,2.10856,257.112,0.787706
308.7000,2.66332,255.359,0.766568
308.6000,0.507922,255.337,0.766294
308.5000,-0.392324,257.458,0.791859
308.4000,5.03933,255.487,0.768116
308.3000,1.97368,257.082,0.787338
308.2000,0.50239,255.021,0.762468
308.1000,3.36604,255.978,0.774042
308.0000,3.1553,256.25,0.777322
307.9000,-1.59465,255.509,0.768376
307.8000,3.4371,256.487,0.780177
307.7000,4.06691,256.521,0.780586
307.6000,0.0939212,255.613,0.769636
307.5000,0.897636,256.334,0.778333
307.4000,3.17068,255.548,0.768842
307.3000,1.40078,255.791,0.771785
307.2000,2.47853,255.508,0.768362
307.1000,3.48424,255.994,0.774233
307.0000,0.899949,254.983,0.762016
306.9000,-1.88462,256.138,0.775969
306.8000,0.425051,255.869,0.772729
306.7000,-2.97385,255.798,0.771867
306.6000,0.593897,255.73,0.771046
306.5000,-0.488391,256.606,0.78161
306.4000,1.96889,255.392,0.766965
306.3000,2.88926,256.758,0.783439
306.2000,1.85397,255.681,0.770457
306.1000,-0.581745,255.672,0.770348
306.0000,1.59039,256.524,0.780628
305.9000,0.86807,256.249,0.777309
305.8000,1.17821,254.974,0.761906
305.7000,-1.64751,255.72,0.770923
305.6000,2.06313,256.3,0.777924
305.5000,4.17246,256.293,0.777842
305.4000,1.90168,255.831,0.772264
305.3000,1.54309,255.866,0.772688
305.2000,-0.998774,255.485,0.768088
305.1000,1.58492,256.279,0.777678
305.0000,-1.44197,255.596,0.76943
304.9000,1.1964,255.413,0.767212
304.8000,2.70445,255.401,0.767075
304.7000,3.49604,255.954,0.773755
304.6000,1.26706,254.545,0.756702
304.5000,1.19038,255.592,0.769376
304.4000,-0.888883,254.737,0.759037
304.3000,1.27796,255.732,0.771073
304.2000,4.00056,255.814,0.772058
304.1000,4.45693,254.786,0.759628
304.0000,-0.685574,255.574,0.769157
303.9000,1.6971,255.676,0.770389
303.8000,2.97106,254.971,0.761865
303.7000,2.6817,255.375,0.76676
303.6000,-0.346807,254.72,0.758831
303.5000,2.05023,255.295,0.765787
303.4000,-1.777,255.476,0.767979
303.3000,-0.0517381,255.289,0.765718
303.2000,0.511075,256.431,0.779508
303.1000,-1.50628,254.297,0.753692
303.0000,1.7405,256.749,0.783329
302.9000,1.79458,255.882,0.772879
302.8000,3.07919,255.79,0.771771
302.7000,-1.88353,255.47,0.76791
302.6000,1.3193,255.552,0.768896
302.5000,-0.24619,256.009,0.774411
302.4000,0.414159,255.453,0.767705
302.3000,-0.0203437,256.023,0.774589
302.2000,1.9105,254.539,0.756634
302.1000,-0.294024,255.259,0.765348
302.0000,-1.05704,255.62,0.769718
301.9000,2.58734,256.059,0.775013
301.8000,1.78391,253.974,0.749771
301.7000,1.50053,255.404,0.767102
301.6000,2.1402,255.089,0.763291
301.5000,3.81524,255.223,0.764923
301.4000,-0.856936,254.901,0.761014
301.3000,-0.702909,255.672,0.770348
301.2000,2.63547,255.91,0.773221
301.1000,3.74335,256.802,0.783971
301.0000,0.899942,255.136,0.763867
300.9000,1.37954,255.383,0.766855
300.8000,-0.613944,254.227,0.752853
300.7000,1.54761,256.31,0.778047
300.6000,3.1594,253.537,0.744468
300.5000,2.69078,256.088,0.775368
300.4000,-0.737624,255.62,0.769718
300.3000,-1.24144,254.983,0.762016
300.2000,4.14769,254.835,0.760218
300.1000,0.0815659,254.8,0.759792
300.0000,2.81677,255.056,0.762893
299.9000,0.905541,255.514,0.768431
299.8000,3.47518,255.321,0.766102
299.7000,2.69628,256.238,0.777172
299.6000,2.24346,254.823,0.760081
299.5000,3.32258,255.418,0.76728
299.4000,-0.0518678,254.197,0.752482
299.3000,-0.884546,254.978,0.761947
299.2000,2.12725,254.278,0.753472
299.1000,-0.546764,255.489,0.76813
299.0000,0.740047,255.322,0.766115
298.9000,-0.816172,254.796,0.759751
298.8000,1.49256,255.348,0.766431
298.7000,0.615196,254.599,0.757362
298.6000,0.358952,256.245,0.777268
298.5000,0.229098,255.063,0.762976
298.4000,6.01172,254.983,0.762016
298.3000,0.403409,254.358,0.754435
298.2000,2.37718,253.765,0.747238
298.1000,0.538378,255.783,0.771689
298.0000,3.26954,255.426,0.767376
297.9000,2.06558,255.307,0.765937
297.8000,2.68121,255.17,0.764279
297.7000,1.32345,256.653,0.782183
297.6000,1.10954,255.22,0.764882
297.5000,3.28865,255.094,0.76336
297.4000,2.91517,254.437,0.755397
297.3000,0.933042,255.221,0.764896
297.2000,1.13093,255.276,0.765553
297.1000,-1.18622,254.997,0.76218
297.0000,2.3186,255.311,0.765978
296.9000,2.3503,256.076,0.775218
296.8000,1.65065,254.673,0.758255
296.7000,1.4437,254.741,0.759079
296.6000,-0.65838,254.894,0.760932
296.5000,0.723922,255.782,0.771675
296.4000,0.371459,255.444,0.767595
296.3000,0.0184024,255.077,0.763154
296.2000,3.60688,254.918,0.76122
296.1000,0.660407,255.337,0.766294
296.0000,3.2764,255.458,0.76776
295.9000,1.80137,255.719,0.770909
295.8000,5.32501,254.83,0.760163
295.7000,3.38141,255.123,0.763703
295.6000,1.11789,255.089,0.763291
295.5000,1.88133,255.707,0.770772
295.4000,3.81592,254.408,0.75504
295.3000,2.42627,255.052,0.762852
295.2000,3.57719,254.316,0.753926
295.1000,0.919642,254.745,0.759134
295.0000,-0.149245,254.139,0.751781
294.9000,-0.415496,254.925,0.761316
294.8000,2.4861,254.48,0.755919
294.7000,4.99203,255.134,0.76384
294.6000,3.7777,254.826,0.760108
294.5000,0.919513,254.581,0.757142
294.4000,1.9644,254.521,0.756414
294.3000,-0.250996,255.233,0.765033
294.2000,1.22277,254.82,0.76004
294.1000,0.847817,254.127,0.751629
294.0000,-0.0243706,254.799,0.759779
293.9000,-2.2123,254.53,0.756524
293.8000,-0.861177,255.35,0.766458
293.7000,-0.724635,254.998,0.762194
293.6000,1.07544,255.098,0.763401
293.5000,0.475044,254.715,0.758763
293.4000,0.396264,254.826,0.760108
293.3000,1.20848,254.898,0.760987
293.2000,3.20203,254.808,0.759889
293.1000,-0.715402,254.414,0.755122
293.0000,1.67661,253.782,0.747445
292.9000,1.23621,254.924,0.761302
292.8000,1.72976,255.562,0.76902
292.7000,-0.859195,254.648,0.757952
292.6000,1.79588,254.437,0.755397
292.5000,-1.88928,254.269,0.753362
292.4000,2.2036,254.983,0.762016
292.3000,0.325009,255.097,0.763387
292.2000,-0.978194,254.309,0.753844
292.1000,2.18293,254.515,0.756345
292.0000,2.58866,255.112,0.763579
291.9000,0.283578,254.374,0.754627
291.8000,-0.17337,254.052,0.750721
291.7000,1.97815,254.35,0.754339
291.6000,3.49159,254.521,0.756414
291.5000,-0.435147,254.641,0.75787
291.4000,1.11913,253.857,0.748354
291.3000,4.9351,254.317,0.75394
291.2000,1.78188,255.184,0.764443
291.1000,-0.368159,254.459,0.755658
291.0000,-0.877026,253.856,0.74834
290.9000,1.84356,254.384,0.754751
290.8000,1.80502,254.488,0.756015
290.7000,1.87136,254.786,0.759628
290.6000,0.826753,254.896,0.760959
290.5000,-0.401618,254.879,0.760753
290.4000,3.23406,255.233,0.765033
290.3000,0.321081,254.383,0.754737
290.2000,-1.27169,254.911,0.761138
290.1000,2.91736,254.135,0.751726
290.0000,0.794733,254.98,0.761974
289.9000,-0.356239,255.382,0.766842
289.8000,-1.68486,255.322,0.766115
289.7000,5.16248,254.699,0.75857
289.6000,2.42369,254.586,0.757197
289.5000,0.571401,255.081,0.763195
289.4000,2.58713,254.179,0.752262
289.3000,1.3992,254.802,0.75982
289.2000,1.50526,254.735,0.75901
289.1000,0.311055,254.833,0.76019
289.0000,0.0120989,255.229,0.764992
288.9000,0.735342,255.194,0.764567
288.8000,3.01296,255.126,0.763744
288.7000,1.62584,255.044,0.762756
288.6000,1.64531,255.452,0.767691
288.5000,1.05055,255.199,0.764621
288.4000,-0.431639,254.708,0.75868
288.3000,0.32306,255.397,0.76702
288.2000,-2.38055,254.902,0.761028
288.1000,-1.11633,255,0.762222
288.0000,2.76835,255.01,0.762345
287.9000,3.65481,254.923,0.761288
287.8000,3.49316,255.116,0.76362
287.7000,1.05382,254.591,0.757266
287.6000,1.14997,254.852,0.760424
287.5000,2.66788,254.583,0.757169
287.4000,0.165566,255.146,0.763991
287.3000,0.156741,254.992,0.762125
287.2000,2.85847,254.463,0.755713
287.1000,2.02935,254.595,0.757307
287.0000,0.0283649,255.926,0.773413
286.9000,3.12469,254.825,0.760095
286.8000,4.617,255.086,0.763264
286.7000,1.10246,254.959,0.761727
286.6000,4.06459,254.698,0.758557
286.5000,0.846172,254.783,0.759586
286.4000,0.214576,254.903,0.761041
286.3000,-0.389336,254.642,0.757884
286.2000,3.1511,254.938,0.761467
286.1000,2.45601,255.517,0.768472
286.0000,-0.674115,255.248,0.765224
285.9000,0.233585,255.473,0.767938
285.8000,4.66128,255.423,0.767335
285.7000,2.42957,255.478,0.768006
285.6000,0.872735,254.876,0.760712
285.5000,1.20677,255.203,0.764676
285.4000,1.65259,255.354,0.766499
285.3000,0.542264,255.439,0.767527
285.2000,3.06184,255.408,0.767157
285.1000,2.76136,255.731,0.77106
285.0000,4.23008,255.035,0.762647
284.9000,-0.429002,255.227,0.764964
284.8000,3.65847,255.167,0.764237
284.7000,-1.03379,255.06,0.762948
284.6000,2.77182,255.226,0.76495
284.5000,4.24698,254.947,0.761577
284.4000,0.77584,255.361,0.766581
284.3000,-1.31157,255.622,0.769745
284.2000,1.76271,254.681,0.758351
284.1000,1.13514,254.901,0.761014
284.0000,3.10992,255.466,0.767856
283.9000,0.560209,255.526,0.768581
283.8000,2.66947,254.785,0.759614
283.7000,0.160466,255.986,0.774138
283.6000,-0.38458,255.427,0.76739
283.5000,5.22753,255.145,0.763977
283.4000,3.86229,254.877,0.760726
283.3000,4.05607,254.945,0.761549
283.2000,1.88956,255.153,0.764073
283.1000,0.589456,255.041,0.762715
283.0000,-1.10449,254.189,0.752386
282.9000,1.11965,255.226,0.76495
282.8000,1.67453,255.392,0.766965
282.7000,0.194967,255.37,0.766691
282.6000,1.64391,255.527,0.768595
282.5000,2.4464,254.316,0.753926
282.4000,1.86085,254.989,0.762084
282.3000,2.00803,255.04,0.762702
282.2000,5.22734,254.972,0.761878
282.1000,2.42759,255.163,0.764196
282.0000,2.81695,254.6,0.757376
281.9000,5.98564,254.522,0.756428
281.8000,3.07561,254.569,0.756991
281.7000,1.95922,254.593,0.757293
281.6000,1.46749,255.784,0.771703
281.5000,-0.959519,254.53,0.756524
281.4000,2.77153,254.612,0.757513
281.3000,1.41901,254.949,0.761604
281.2000,-0.828685,254.742,0.759092
281.1000,2.53366,254.811,0.75993
281.0000,3.47889,255.024,0.76251
280.9000,-1.92994,254.728,0.758928
280.8000,1.20602,254.643,0.757898
280.7000,0.982416,254.54,0.756647
280.6000,2.6076,255.01,0.762345
280.5000,-0.361326,254.669,0.758213
280.4000,2.53947,255.209,0.764745
280.3000,4.19425,254.35,0.754339
280.2000,2.52934,254.785,0.759614
280.1000,1.80276,254.752,0.759216
280.0000,-0.272056,254.652,0.758007
279.9000,2.41492,254.787,0.759641
279.8000,3.22137,254.676,0.758296
279.7000,-0.0796989,254.848,0.760383
279.6000,4.57939,254.687,0.758433
279.5000,0.361353,255.239,0.765115
279.4000,1.09778,255.053,0.762866
279.3000,0.981122,254.957,0.7617
279.2000,-0.77803,254.851,0.76041
279.1000,0.570152,254.421,0.755204
279.0000,2.57597,255.924,0.773385
278.9000,0.402036,254.845,0.760341
278.8000,1.56285,255.438,0.767513
278.7000,2.45152,254.772,0.759463
278.6000,-0.524,254.35,0.754339
278.5000,-0.246136,254.897,0.760973
278.4000,1.13817,254.749,0.759175
278.3000,3.24369,254.817,0.759998
278.2000,-1.51433,255.15,0.764032
278.1000,1.81164,255.214,0.764813
278.0000,3.50475,254.592,0.75728
277.9000,-0.970914,255.143,0.76395
277.8000,2.76555,254.637,0.757815
277.7000,1.57702,255.209,0.764745
277.6000,2.40616,254.469,0.755782
277.5000,0.223447,255.102,0.763456
277.4000,0.546039,254.734,0.758996
277.3000,0.655158,254.661,0.758117
277.2000,-2.08389,255.455,0.767719
277.1000,-3.40665,254.285,0.753555
277.0000,1.08923,254.735,0.75901
276.9000,1.38125,254.776,0.759504
276.8000,2.75507,254.939,0.761481
276.7000,3.69393,254.738,0.759051
276.6000,2.43972,254.103,0.75134
276.5000,-0.761402,254.572,0.757032
276.4000,2.55804,254.156,0.751987
276.3000,-2.79329,254.056,0.750776
276.2000,-0.36698,254.494,0.756084
276.1000,2.96032,253.665,0.746026
276.0000,0.968332,255.201,0.764649
275.9000,1.14008,254.98,0.761974
275.8000,2.70753,255.038,0.762674
275.7000,1.78846,254.269,0.753362
275.6000,1.62102,254.179,0.752262
275.5000,-0.473598,254.622,0.757637
275.4000,1.61804,254.803,0.759834
275.3000,1.53152,254.586,0.757197
275.2000,-1.25101,254.198,0.752496
275.1000,3.45261,254.038,0.750556
275.0000,2.99831,254.931,0.761384
274.9000,0.713149,254.593,0.757293
274.8000,2.89878,254.186,0.752345
274.7000,-3.27841,254.206,0.752592
274.6000,-1.21222,255.784,0.771703
274.5000,1.73249,253.528,0.744358
274.4000,0.408156,254.122,0.751574
274.3000,-0.368376,253.945,0.749427
274.2000,-1.97753,253.871,0.748519
274.1000,0.137182,254.641,0.75787
274.0000,0.372507,252.963,0.737473
273.9000,2.23807,254.21,0.752647
273.8000,-0.208465,254.047,0.750666
273.7000,1.2036,253.217,0.740565
273.6000,-1.51962,254.031,0.750474
273.5000,0.180197,254.05,0.750694
273.4000,3.02486,254.047,0.750666
273.3000,-1.97676,254.703,0.758625
273.2000,0.949451,253.74,0.746935
273.1000,1.0551,254.324,0.754022
273.0000,-1.11369,254.217,0.75273
272.9000,0.683748,253.861,0.748409
272.8000,-1.37218,254.554,0.756812
272.7000,1.65637,254.684,0.758392
272.6000,1.18734,254.31,0.753857
272.5000,-1.92469,254.963,0.761769
272.4000,2.56491,254.682,0.758364
272.3000,-1.92323,254.453,0.755589
272.2000,1.87039,254.038,0.750556
272.1000,2.40063,254.053,0.750735
272.0000,0.393816,254.531,0.756538
271.9000,3.23334,254.503,0.756194
271.8000,0.576158,254.635,0.757801
271.7000,0.383159,254.385,0.754765
271.6000,1.33001,254.546,0.756716
271.5000,0.529131,254.393,0.754861
271.4000,3.7657,253.974,0.749771
271.3000,1.59443,254.638,0.757829
271.2000,-2.99926,254.362,0.75449
271.1000,4.06307,254.518,0.756373
271.0000,0.0272821,253.871,0.748519
270.9000,3.1045,253.856,0.74834
270.8000,2.12066,253.712,0.74659
270.7000,-1.39145,254.229,0.752867
270.6000,0.962678,253.296,0.741531
270.5000,-0.154675,254.566,0.756963
270.4000,-2.84281,254.127,0.751629
270.3000,-1.67803,254.442,0.755452
270.2000,2.32336,254.101,0.751313
270.1000,0.521555,253.467,0.743614
270.0000,3.35939,254.269,0.753362
269.9000,2.95736,254.058,0.75079
269.8000,-0.851615,254,0.750088
269.7000,-1.14181,253.984,0.749895
269.6000,4.55867,253.379,0.742538
269.5000,-4.32945,254.644,0.757911
269.4000,3.39647,254.112,0.75145
269.3000,-0.273921,255.34,0.766335
269.2000,-1.21537,254.256,0.753197
269.1000,1.1896,254.053,0.750735
269.0000,-1.76155,254.046,0.750652
268.9000,1.99826,253.655,0.745902
268.8000,1.48397,254.346,0.754297
268.7000,-3.77915,254.358,0.754435
268.6000,-0.076293,254.251,0.753142
268.5000,-0.258162,254.775,0.75949
268.4000,0.403488,254.058,0.75079
268.3000,-0.0869734,253.91,0.749001
268.2000,0.655709,255.805,0.771949
268.1000,2.80146,254.721,0.758845
268.0000,0.823957,254.443,0.755466
267.9000,1.6887,254.472,0.755823
267.8000,4.08686,254.531,0.756538
267.7000,1.8654,254.851,0.76041
267.6000,-0.261123,255.107,0.763511
267.5000,2.43804,253.665,0.746026
267.4000,-0.225099,254.14,0.751794
267.3000,0.0574507,254.149,0.751904
267.2000,-2.70069,254.519,0.756387
267.1000,0.633402,254.566,0.756963
267.0000,0.108045,253.943,0.7494
266.9000,0.406452,254.213,0.752675
266.8000,-0.402003,254.529,0.75651
266.7000,-0.757082,253.789,0.747527
266.6000,2.47288,254.278,0.753472
266.5000,-1.94188,254.08,0.751065
266.4000,1.02533,254.14,0.751794
266.3000,-0.911511,254.998,0.762194
266.2000,1.53303,253.226,0.740676
266.1000,-0.491637,254.792,0.759696
266.0000,-0.00532249,254.396,0.754902
265.9000,4.3502,255.099,0.763415
265.8000,1.52125,254.411,0.755081
265.7000,-0.692916,253.838,0.748119
265.6000,0.684474,254.694,0.758516
265.5000,-2.02283,254.872,0.760671
265.4000,-0.242312,254.51,0.756276
265.3000,1.83197,254.318,0.753954
265.2000,-0.861013,254.378,0.754682
265.1000,-2.26695,253.857,0.748354
265.0000,0.522811,253.875,0.748574
264.9000,0.787132,254.224,0.752812
264.8000,0.487101,254.895,0.760945
264.7000,-1.02396,254.085,0.75112
264.6000,-1.66628,254.058,0.75079
264.5000,4.31957,254.717,0.75879
264.4000,-1.87099,254.809,0.759902
264.3000,1.63145,254.664,0.758145
264.2000,-3.23807,255.022,0.762482
264.1000,-0.505477,254.715,0.758763
264.0000,0.564134,254.847,0.760369
263.9000,1.33412,254.518,0.756373
263.8000,3.65688,255.135,0.763853
263.7000,0.606237,255.039,0.762688
263.6000,-1.72962,254.584,0.757183
263.5000,-1.8696,254.448,0.755534
263.4000,0.474804,254.681,0.758351
263.3000,-1.46307,255.182,0.764416
263.2000,2.37535,254.871,0.760657
263.1000,-1.00052,254.476,0.755864
263.0000,0.872296,254.24,0.753005
262.9000,-0.224616,254.503,0.756194
262.8000,0.151466,254.75,0.759188
262.7000,1.79516,254.419,0.755177
262.6000,-0.247365,255.423,0.767335
262.5000,1.64709,254.444,0.755479
262.4000,0.168922,255.252,0.765266
262.3000,-1.30712,255.472,0.767924
262.2000,3.16191,254.724,0.758873
262.1000,1.02525,255.121,0.763689
262.0000,-3.02249,255.251,0.765252
261.9000,2.30578,254.474,0.755851
261.8000,1.02282,254.927,0.76133
261.7000,-3.01571,255.097,0.763387
261.6000,1.54318,255.702,0.770703
261.5000,1.41797,254.656,0.758049
261.4000,0.130501,254.208,0.75262
261.3000,2.20133,255.192,0.764539
261.2000,4.48241,255.116,0.76362
261.1000,1.5846,254.941,0.761508
261.0000,0.59031,254.542,0.756675
260.9000,-0.550726,254.988,0.76207
260.8000,2.32793,255.053,0.762866
260.7000,-0.799849,255.392,0.766965
260.6000,2.44078,255.586,0.769307
260.5000,-0.66698,255.277,0.765567
260.4000,3.75969,255.068,0.763045
260.3000,0.542055,255.414,0.767225
260.2000,2.17841,255.654,0.770129
260.1000,-2.16877,255.188,0.764498
260.0000,-0.338446,254.992,0.762125
259.9000,2.33302,255.687,0.770526
259.8000,-0.0389875,255.609,0.769581
259.7000,0.856315,255.637,0.769923
259.6000,-3.68917,255.4,0.767061
259.5000,-1.28408,254.649,0.757966
259.4000,2.46303,255.214,0.764813
259.3000,0.0490583,255.761,0.771415
259.2000,-1.48149,255.662,0.770224
259.1000,-0.330659,255.681,0.770457
259.0000,-0.46562,255.984,0.77411
258.9000,-1.6166,255.73,0.771046
258.8000,-1.02989,255.299,0.765841
258.7000,1.40322,255.62,0.769718
258.6000,0.70383,255.687,0.770526
258.5000,0.547651,255.596,0.76943
258.4000,0.401464,255.669,0.770307
258.3000,-2.38902,255.959,0.773809
258.2000,1.00864,256.342,0.778429
258.1000,1.00648,255.784,0.771703
258.0000,-0.752294,255.989,0.774179
257.9000,1.55328,255.842,0.7724
257.8000,1.30189,255.723,0.770964
257.7000,1.35127,255.673,0.770361
257.6000,2.19686,255.728,0.771018
257.5000,-0.071401,255.75,0.771292
257.4000,1.74084,255.461,0.767801
257.3000,2.18266,255.463,0.767814
257.2000,4.46271,256.062,0.775054
257.1000,1.37255,256.521,0.780586
257.0000,1.83377,255.613,0.769636
256.9000,0.820968,255.808,0.77199
256.8000,0.198729,256.633,0.781938
256.7000,-0.682834,256.402,0.779153
256.6000,1.88355,256.604,0.781583
256.5000,2.66579,256.555,0.780996
256.4000,-0.0906408,256.41,0.779248
256.3000,-3.5541,256.31,0.778047
256.2000,1.8228,256.001,0.774315
256.1000,0.407246,255.835,0.772318
256.0000,1.70139,256.265,0.7775
255.9000,1.11256,256.182,0.776502
255.8000,-1.01008,255.038,0.762674
255.7000,1.89693,256.424,0.779426
255.6000,-0.301611,256.621,0.781788
255.5000,2.05715,256.445,0.779672
255.4000,0.329316,255.576,0.769184
255.3000,-1.08348,255.925,0.773399
255.2000,0.402906,255.935,0.773522
255.1000,1.64395,256.32,0.77817
255.0000,0.735787,256.479,0.780082
254.9000,-0.195294,256.446,0.779685
254.8000,0.711939,256.676,0.782456
254.7000,0.704018,256.571,0.781187
254.6000,-2.86656,257.016,0.786547
254.5000,2.68573,256.954,0.785798
254.4000,3.89627,257.061,0.787092
254.3000,-1.14653,256.283,0.777719
254.2000,0.109039,256.651,0.782156
254.1000,-0.00831166,256.524,0.780628
254.0000,0.643159,255.702,0.770703
253.9000,1.19421,255.85,0.772496
253.8000,3.15094,257.001,0.78637
253.7000,-0.329109,256.704,0.782797
253.6000,1.38609,257.133,0.787951
253.5000,-0.666612,256.905,0.785211
253.4000,2.97051,256.611,0.781678
253.3000,0.305865,257.256,0.789436
253.2000,1.27779,256.689,0.782606
253.1000,2.57906,256.871,0.784802
253.0000,-2.10926,257.086,0.787392
252.9000,0.747448,256.672,0.782402
252.8000,-1.60847,256.983,0.786152
252.7000,0.259856,256.727,0.78307
252.6000,-1.9221,257.373,0.790838
252.5000,2.75437,257.141,0.788046
252.4000,-1.30161,257.071,0.787215
252.3000,2.59422,257.325,0.790266
252.2000,-1.81158,257.292,0.789871
252.1000,1.31967,257.568,0.793179
252.0000,1.08459,257.467,0.791968
251.9000,1.30136,257.051,0.78697
251.8000,-0.229935,256.844,0.784475
251.7000,0.587731,256.979,0.786098
251.6000,-1.43402,257.274,0.789654
251.5000,-0.864008,257.101,0.787569
251.4000,2.5622,256.99,0.786234
251.3000,0.691088,257.464,0.791927
251.2000,-0.346812,256.806,0.784025
251.1000,-1.74851,257.065,0.787133
251.0000,-0.713262,257.098,0.787529
250.9000,0.467741,257.158,0.788251
250.8000,0.888541,258.05,0.79897
250.7000,-0.280067,257.589,0.793438
250.6000,-1.65321,257.166,0.788346
250.5000,1.33744,257.263,0.789517
250.4000,0.453166,257.628,0.7939
250.3000,-0.986332,257.999,0.798359
250.2000,1.3873,257.056,0.787024
250.1000,3.32004,257.526,0.792675
250.0000,-3.1224,256.886,0.78498
249.9000,0.778041,257.756,0.795437
249.8000,-4.2092,257.38,0.79092
249.7000,-0.497072,256.724,0.783029
249.6000,0.802507,256.736,0.783179
249.5000,-1.06749,257.791,0.795858
249.4000,1.63569,256.997,0.786316
249.3000,-3.90438,256.8,0.783943
249.2000,4.14886,257.405,0.791219
249.1000,2.94544,257.426,0.791478
249.0000,-4.03712,257.467,0.791968
248.9000,2.60296,257.513,0.792526
248.8000,-0.182056,257.197,0.788727
248.7000,0.00980908,257.709,0.794879
248.6000,1.16933,256.428,0.779467
248.5000,0.229065,256.985,0.786179
248.4000,-0.593813,257.434,0.791573
248.3000,0.686839,257.18,0.788523
248.2000,-0.793968,257.643,0.794077
248.1000,-0.198521,257.495,0.792308
248.0000,3.9184,257.984,0.798169
247.9000,0.872849,257.099,0.787542
247.8000,0.063224,257.466,0.791954
247.7000,-2.41243,257.72,0.795002
247.6000,2.42953,257.565,0.793152
247.5000,0.686929,257.039,0.78682
247.4000,-3.02268,257.377,0.790893
247.3000,0.350958,257.571,0.79322
247.2000,-1.74489,258.043,0.798875
247.1000,1.99829,258.109,0.799676
247.0000,-1.76606,257.415,0.791342
246.9000,-2.80475,257.362,0.790702
246.8000,-2.55996,258.329,0.80231
246.7000,-2.72879,258.18,0.800519
246.6000,1.26317,257.362,0.790702
246.5000,-3.38341,259.19,0.812611
246.4000,-2.26608,257.552,0.792988
246.3000,-1.28388,257.577,0.793288
246.2000,-1.04995,257.807,0.796049
246.1000,-1.4507,258.148,0.800138
246.0000,-3.10673,257.741,0.79526
245.9000,-0.231719,258.201,0.800777
245.8000,-1.55381,257.876,0.796878
245.7000,-3.14137,258.016,0.798563
245.6000,-1.59652,258.327,0.802283
245.5000,-0.680402,257.807,0.796049
245.4000,-0.680307,258.692,0.806651
245.3000,-3.27083,258.556,0.805024
245.2000,-2.24032,258.633,0.805946
245.1000,-1.78281,258.505,0.804413
245.0000,1.20785,258.35,0.802555
244.9000,-1.46163,258.386,0.802989
244.8000,-2.67701,258.748,0.807329
244.7000,-2.82016,257.871,0.796823
244.6000,1.51442,258.163,0.800315
244.5000,-2.5015,258.678,0.806488
244.4000,-2.40982,258.185,0.800586
244.3000,-2.6398,258.328,0.802297
244.2000,-1.28296,259.084,0.811338
244.1000,-4.67437,258.402,0.803179
244.0000,1.76412,258.785,0.807763
243.9000,-3.4872,258.998,0.810309
243.8000,-3.25765,258.803,0.807979
243.7000,-3.44577,259.232,0.813112
243.6000,-2.75143,259.598,0.81748
243.5000,2.07308,258.682,0.806529
243.4000,-2.94208,259.29,0.813802
243.3000,-1.77736,258.99,0.810215
243.2000,-1.19887,258.39,0.803043
243.1000,-2.8602,259.18,0.812489
243.0000,-3.64345,258.837,0.808386
242.9000,-3.42103,259.639,0.817967
242.8000,-2.61353,259.782,0.819669
242.7000,-2.12139,259.306,0.813991
242.6000,-2.51518,259.61,0.817615
242.5000,-4.15549,260.059,0.822978
242.4000,-2.50463,259.492,0.816209
242.3000,-4.92118,259.135,0.811948
242.2000,-1.78385,259.634,0.817913
242.1000,-2.21874,259.843,0.820399
242.0000,-5.58197,259.937,0.82152
241.9000,-3.55624,259.449,0.815696
241.8000,-5.59635,260.093,0.823383
241.7000,-2.50553,259.867,0.820682
241.6000,-2.90717,260.543,0.828736
241.5000,-7.96453,260.159,0.824165
241.4000,-5.03048,260.007,0.822357
241.3000,-4.05637,260.105,0.823518
241.2000,-4.56786,260.336,0.826269
241.1000,-5.01673,260.61,0.829531
241.0000,-3.36735,260.758,0.831296
240.9000,-5.14648,260.841,0.832279
240.8000,-4.20158,260.635,0.829828
240.7000,-3.19168,260.736,0.831027
240.6000,-8.27251,260.312,0.825986
240.5000,-5.24641,260.664,0.830178
240.4000,-6.52275,261.09,0.83524
240.3000,-5.45101,260.723,0.830878
240.2000,-10.8887,261.407,0.838991
240.1000,-6.63007,261.648,0.841853
240.0000,-8.44659,261.615,0.841463
239.9000,-7.62125,261.394,0.838843
239.8000,-6.40305,261.375,0.838615
239.7000,-7.76855,261.718,0.842685
239.6000,-7.67632,261.944,0.845356
239.5000,-6.06544,262.065,0.846791
239.4000,-9.6981,262.51,0.852058
239.3000,-9.01085,262.494,0.851871
239.2000,-7.71352,261.981,0.845799
239.1000,-10.0482,261.964,0.845598
239.0000,-10.8419,262.739,0.854763
238.9000,-10.2212,262.933,0.85705
238.8000,-8.69048,262.804,0.855525
238.7000,-12.7227,263.32,0.861621
238.6000,-8.75718,263.314,0.861541
238.5000,-10.7105,263.418,0.86277
238.4000,-11.8861,263.145,0.85955
238.3000,-10.5622,263.304,0.861434
238.2000,-12.9436,263.915,0.868628
238.1000,-9.28944,263.67,0.865747
238.0000,-12.1827,264.43,0.874676
237.9000,-16.9967,264.415,0.874503
237.8000,-12.7037,264.308,0.873252
237.7000,-15.8892,264.376,0.874051
237.6000,-13.2802,264.636,0.877098
237.5000,-11.2888,264.543,0.876007
237.4000,-12.8734,264.757,0.878522
237.3000,-15.1236,265.226,0.884023
237.2000,-13.6587,265.222,0.88397
237.1000,-15.613,265.301,0.884899
237.0000,-17.4718,264.853,0.879652
236.9000,-14.1586,265.622,0.888654
236.8000,-14.8475,265.494,0.887155
236.7000,-12.5686,266.477,0.898654
236.6000,-14.2105,265.556,0.887885
236.5000,-16.5586,266.076,0.893969
236.4000,-15.8106,266.409,0.89786
236.3000,-19.2831,266.671,0.900915
236.2000,-18.8068,266.502,0.898945
236.1000,-16.0563,267.033,0.905143
236.0000,-19.0443,267.09,0.905803
235.9000,-16.4378,267.359,0.90893
235.8000,-17.4572,267.513,0.910724
235.7000,-20.9632,267.736,0.91332
235.6000,-15.9547,267.93,0.915572
235.5000,-13.5113,267.829,0.9144
235.4000,-20.9333,267.734,0.913294
235.3000,-18.1587,268.28,0.919639
235.2000,-19.3739,268.677,0.924253
235.1000,-26.1332,268.27,0.919521
235.0000,-20.5383,268.734,0.92491
234.9000,-20.1967,268.641,0.923832
234.8000,-16.3907,269.841,0.93772
234.7000,-20.9238,270.048,0.940115
234.6000,-20.333,269.79,0.937131
234.5000,-22.284,269.537,0.93421
234.4000,-20.5809,270.18,0.941632
234.3000,-22.1304,270.666,0.947237
234.2000,-23.7028,270.915,0.950109
234.1000,-22.153,270.08,0.940481
234.0000,-20.804,270.741,0.948099
233.9000,-26.1445,271.086,0.952078
233.8000,-24.9699,271.161,0.952939
233.7000,-27.8485,271.117,0.95243
233.6000,-27.4358,271.226,0.953682
233.5000,-26.1156,272.428,0.967486
233.4000,-27.9798,272.264,0.965602
233.3000,-28.8304,272.922,0.973144
233.2000,-28.5165,272.708,0.970692
233.1000,-27.4415,273.193,0.976241
233.0000,-29.1196,273.087,0.975036
232.9000,-31.5089,273.188,0.97619
232.8000,-25.8895,273.181,0.976112
232.7000,-29.8183,274.023,0.985726
232.6000,-30.7791,273.708,0.982132
232.5000,-31.1192,274.829,0.994904
232.4000,-32.5511,274.786,0.994414
232.3000,-31.8414,273.747,0.982572
232.2000,-31.1042,274.616,0.992479
232.1000,-31.6109,274.447,0.990557
232.0000,-31.8691,275.782,1.00573
231.9000,-31.1092,275.812,1.00608
231.8000,-32.1788,276.297,1.01158
231.7000,-34.9169,276.355,1.01223
231.6000,-36.7228,276.899,1.01838
231.5000,-38.3245,277.026,1.01982
231.4000,-38.9411,276.611,1.01513
231.3000,-37.3062,277.143,1.02114
231.2000,-39.9904,277.14,1.02111
231.1000,-38.643,277.728,1.02775
231.0000,-35.9862,276.906,1.01846
230.9000,-39.0237,278.304,1.03424
230.8000,-37.7941,277.885,1.02951
230.7000,-36.4937,277.572,1.02599
230.6000,-37.2862,278.119,1.03216
230.5000,-37.3635,279.24,1.04476
230.4000,-41.4394,278.481,1.03623
230.3000,-38.6471,278.689,1.03857
230.2000,-38.8593,278.8,1.03982
230.1000,-38.6364,278.882,1.04074
230.0000,-41.78,278.573,1.03726
229.9000,-44.6671,279.132,1.04355
229.8000,-44.0917,279.692,1.04983
229.7000,-44.5283,279.738,1.05036
229.6000,-43.9729,279.786,1.05089
229.5000,-37.8046,280.117,1.0546
229.4000,-44.1296,280.592,1.05991
229.3000,-43.307,280.609,1.0601
229.2000,-45.8581,281.307,1.0679
229.1000,-44.2147,280.935,1.06375
229.0000,-49.1993,281.278,1.06758
228.9000,-44.2205,281.042,1.06494
228.8000,-46.5744,283.043,1.08722
228.7000,-49.1066,282.695,1.08335
228.6000,-46.6554,282.135,1.07713
228.5000,-47.6147,283.852,1.09619
228.4000,-47.645,281.906,1.07458
228.3000,-45.7337,284.996,1.10885
228.2000,-48.7662,283.589,1.09328
228.1000,-46.1514,283.957,1.09736
228.0000,-49.9689,284.231,1.10039
227.9000,-48.2971,284.542,1.10383
227.8000,-47.4422,285.021,1.10912
227.7000,-52.0713,284.954,1.10838
227.6000,-50.8343,285.37,1.11297
227.5000,-48.7659,285.939,1.11924
227.4000,-48.359,286.408,1.1244
227.3000,-55.1292,286.777,1.12846
227.2000,-56.2487,286.37,1.12399
227.1000,-47.2109,286.873,1.12952
227.0000,-53.1309,286.856,1.12933
226.9000,-53.6664,287.363,1.13489
226.8000,-51.3181,287.67,1.13825
226.7000,-48.662,288.268,1.1448
226.6000,-51.872,287.689,1.13846
226.5000,-56.7009,287.985,1.1417
226.4000,-52.3573,288.222,1.14429
226.3000,-52.299,288.809,1.1507
226.2000,-51.403,288.898,1.15168
226.1000,-55.3023,288.759,1.15016
226.0000,-56.2852,289.58,1.15912
225.9000,-58.4819,289.305,1.15612
225.8000,-55.4808,290.063,1.16437
225.7000,-58.892,290.607,1.17029
225.6000,-59.7149,290.337,1.16736
225.5000,-55.2472,290.42,1.16826
225.4000,-56.1052,290.656,1.17082
225.3000,-56.692,290.98,1.17433
225.2000,-58.2891,291.385,1.17873
225.1000,-57.7293,291.57,1.18073
225.0000,-54.4084,291.878,1.18407
224.9000,-55.201,292.012,1.18552
224.8000,-56.7181,292.943,1.19558
224.7000,-57.227,292.16,1.18712
224.6000,-60.871,293.292,1.19934
224.5000,-58.4765,293.495,1.20153
224.4000,-59.3072,293.488,1.20146
224.3000,-56.5281,293.897,1.20586
224.2000,-59.0505,294.534,1.21271
224.1000,-61.5351,294.212,1.20925
224.0000,-55.8096,294.428,1.21156
223.9000,-61.1492,294.285,1.21003
223.8000,-61.4254,294.783,1.21538
223.7000,-62.3354,294.915,1.21679
223.6000,-55.8934,295.155,1.21937
223.5000,-57.4699,295.769,1.22595
223.4000,-61.751,296.485,1.23361
223.3000,-56.8508,295.637,1.22453
223.2000,-58.133,296.302,1.23164
223.1000,-63.32,295.918,1.22754
223.0000,-60.3539,296.816,1.23714
222.9000,-59.5774,296.706,1.23597
222.8000,-64.2485,297.389,1.24325
222.7000,-61.9562,296.835,1.23734
222.6000,-63.7061,298.223,1.25213
222.5000,-61.0365,298.309,1.25304
222.4000,-61.9801,297.827,1.24791
222.3000,-61.389,299.041,1.26081
222.2000,-61.3563,299.235,1.26287
222.1000,-62.4931,298.814,1.2584
222.0000,-58.0449,298.857,1.25885
221.9000,-58.5104,299.463,1.26528
221.8000,-60.9218,299.938,1.27031
221.7000,-64.3277,300.361,1.27479
221.6000,-61.722,300.282,1.27395
221.5000,-60.5984,300.354,1.27471
221.4000,-57.9573,300.787,1.27929
221.3000,-58.3224,300.701,1.27838
221.2000,-64.1958,301.496,1.28676
221.1000,-66.3634,301.366,1.28539
221.0000,-59.9024,302.311,1.29534
220.9000,-59.6467,302.311,1.29534
220.8000,-65.1162,303.068,1.30329
220.7000,-60.2887,302.737,1.29981
220.6000,-58.6264,303.396,1.30672
220.5000,-62.0164,302.815,1.30062
220.4000,-65.0309,303.99,1.31294
220.3000,-58.1534,303.475,1.30755
220.2000,-57.961,303.316,1.30589
220.1000,-62.1164,304.22,1.31534
220.0000,-57.9303,304.059,1.31366
219.9000,-69.4433,305.608,1.32983
219.8000,-64.091,304.514,1.31842
219.7000,-63.3747,305.653,1.3303
219.6000,-59.7315,304.757,1.32095
219.5000,-60.5839,305.409,1.32776
219.4000,-61.5944,306.258,1.33659
219.3000,-59.1352,306.432,1.33841
219.2000,-57.3883,306.788,1.3421
219.1000,-64.4741,306.722,1.34142
219.0000,-64.5537,306.917,1.34345
218.9000,-63.2956,306.82,1.34243
218.8000,-64.1348,308.463,1.35945
218.7000,-55.9397,307.304,1.34745
218.6000,-61.1765,308.767,1.36259
218.5000,-65.6417,307.985,1.35451
218.4000,-63.1825,308.348,1.35827
218.3000,-53.84,308.611,1.36099
218.2000,-58.1351,309.224,1.36731
218.1000,-57.0407,309.302,1.36812
218.0000,-63.1977,310.039,1.37571
217.9000,-56.8457,309.85,1.37376
217.8000,-58.7409,310.093,1.37627
217.7000,-58.2439,310.578,1.38125
217.6000,-57.5701,310.476,1.38021
217.5000,-61.8822,311.132,1.38694
217.4000,-60.216,312.067,1.39652
217.3000,-63.0131,311.613,1.39187
217.2000,-56.0834,311.488,1.39059
217.1000,-63.3735,312.49,1.40085
217.0000,-61.7685,313.163,1.40772
216.9000,-58.3357,312.27,1.3986
216.8000,-63.2215,313.111,1.40719
216.7000,-59.1496,314.161,1.4179
216.6000,-56.5951,314.442,1.42076
216.5000,-66.5374,315.545,1.43195
216.4000,-55.2311,314.691,1.42329
216.3000,-65.3059,314.427,1.42061
216.2000,-65.5311,315.906,1.43562
216.1000,-60.083,315.735,1.43388
216.0000,-59.8896,315.7,1.43353
215.9000,-56.9315,315.828,1.43482
215.8000,-58.9894,317.18,1.4485
215.7000,-58.0141,317.125,1.44795
215.6000,-59.222,316.42,1.44082
215.5000,-61.1322,319.02,1.46703
215.4000,-59.9976,317.455,1.45128
215.3000,-59.2059,318.333,1.46013
215.2000,-63.8386,318.063,1.45741
215.1000,-62.4144,319.024,1.46708
215.0000,-61.7895,319.417,1.47103
214.9000,-55.429,318.765,1.46447
214.8000,-64.8436,318.43,1.46111
214.7000,-61.4509,320.891,1.4858
214.6000,-59.0784,320.025,1.47712
214.5000,-55.2808,321.379,1.49067
214.4000,-63.0432,321.67,1.49358
214.3000,-62.8364,321.982,1.49668
214.2000,-57.2634,322.078,1.49764
214.1000,-57.4326,322.58,1.50264
214.0000,-57.0704,322.116,1.49803
213.9000,-64.2557,322.242,1.49928
213.8000,-65.2063,322.699,1.50383
213.7000,-61.1569,323.74,1.51418
213.6000,-62.2071,323.83,1.51507
213.5000,-62.9041,323.92,1.51597
213.4000,-66.012,324.413,1.52085
213.3000,-64.2088,325.337,1.52999
213.2000,-67.0452,323.848,1.51525
213.1000,-61.419,325.94,1.53596
213.0000,-58.4511,326.635,1.54281
212.9000,-63.6621,326.654,1.543
212.8000,-64.3841,326.291,1.53941
212.7000,-64.4287,327.504,1.55136
212.6000,-55.9242,327.459,1.55092
212.5000,-58.8881,327.027,1.54667
212.4000,-60.7922,328.264,1.55883
212.3000,-57.6213,329.213,1.56813
212.2000,-67.0929,329.514,1.57107
212.1000,-62.3006,330.004,1.57586
212.0000,-56.5314,330.474,1.58045
211.9000,-62.7864,330.86,1.58422
211.8000,-61.2246,331.853,1.59388
211.7000,-58.9353,331.673,1.59213
211.6000,-57.7232,331.773,1.59311
211.5000,-55.67,332.857,1.60363
211.4000,-62.9111,333.251,1.60745
211.3000,-62.5269,334.494,1.61948
211.2000,-56.7355,335.138,1.62569
211.1000,-55.5965,333.521,1.61006
211.0000,-61.0521,336.671,1.64044
210.9000,-64.3381,335.319,1.62744
210.8000,-57.9424,336.952,1.64314
210.7000,-61.2233,337.399,1.64744
210.6000,-64.365,336.787,1.64157
210.5000,-60.5359,338.215,1.65525
210.4000,-66.8079,340.137,1.6736
210.3000,-65.6336,339.511,1.66764
210.2000,-61.4505,338.741,1.66028
210.1000,-63.5068,340.725,1.6792
210.0000,-62.4186,341.125,1.683
209.9000,-55.7858,341.061,1.6824
209.8000,-58.4995,341.931,1.69066
209.7000,-61.1374,343.931,1.70958
209.6000,-58.8116,344.672,1.71656
209.5000,-58.2211,344.066,1.71085
209.4000,-69.0451,345.436,1.72375
209.3000,-65.9719,346.017,1.72921
209.2000,-55.8122,347.219,1.74048
209.1000,-61.3588,347.797,1.74589
209.0000,-56.259,347.651,1.74452
208.9000,-53.5859,348.717,1.75448
208.8000,-58.438,349.969,1.76614
208.7000,-64.5732,350.746,1.77335
208.6000,-66.6476,351.013,1.77584
208.5000,-68.3776,350.819,1.77404
208.4000,-61.0504,353.262,1.79665
208.3000,-51.31,352.996,1.79419
208.2000,-57.0551,354.147,1.8048
208.1000,-47.4366,354.244,1.8057
208.0000,-49.2412,355.549,1.81769
207.9000,-62.1278,356.786,1.82903
207.8000,-60.0951,358.356,1.84337
207.7000,-59.6618,358.796,1.84738
207.6000,-51.0097,360.178,1.85995
207.5000,-53.9364,359.781,1.85634
207.4000,-48.307,361.436,1.87135
207.3000,-59.8516,361.655,1.87333
207.2000,-54.3464,362.645,1.88228
207.1000,-58.6459,363.744,1.89219
207.0000,-62.3238,363.985,1.89436
206.9000,-57.0027,365.631,1.90914
206.8000,-60.2783,366.474,1.91669
206.7000,-41.5744,367.26,1.92372
206.6000,-47.2286,368.724,1.93677
206.5000,-53.7188,368.88,1.93817
206.4000,-52.3813,370.527,1.95279
206.3000,-48.4362,370.741,1.95469
206.2000,-39.6405,372.996,1.97462
206.1000,-56.9391,374.257,1.98572
206.0000,-50.2155,375.199,1.994
205.9000,-47.9379,375.174,1.99378
205.8000,-35.5302,376.07,2.00163
205.7000,-47.027,377.935,2.01792
205.6000,-37.4269,379.115,2.0282
205.5000,-48.2644,379.77,2.0339
205.4000,-33.2536,381.732,2.05089
205.3000,-42.308,382.12,2.05425
205.2000,-39.8739,384.56,2.07527
205.1000,-33.3941,385.517,2.08349
205.0000,-27.3358,386.318,2.09035
204.9000,-36.597,387.792,2.10295
204.8000,-38.9019,388.945,2.11277
204.7000,-28.6082,390.313,2.12441
204.6000,-40.2774,392.964,2.14684
204.5000,-38.1127,393.237,2.14914
204.4000,-24.5016,395.198,2.16565
204.3000,-28.4856,396.148,2.17361
204.2000,-28.1872,397.663,2.18629
204.1000,-19.311,399.345,2.20032
204.0000,-21.4044,400.034,2.20605
203.9000,-33.4349,401.976,2.22217
203.8000,-31.3594,404.138,2.24003
203.7000,-25.9462,405.858,2.25418
203.6000,-31.3974,407.181,2.26503
203.5000,-24.6699,408.821,2.27844
203.4000,-14.7314,410.521,2.29228
203.3000,-9.94127,411.209,2.29788
203.2000,-31.8386,413.074,2.313
203.1000,-19.1498,414.029,2.32072
203.0000,-20.6308,415.835,2.33528
202.9000,-20.5585,417.727,2.35047
202.8000,-14.8012,419.133,2.36173
202.7000,-20.371,421.449,2.3802
202.6000,-8.43771,421.818,2.38314
202.5000,-7.43603,423.648,2.39766
202.4000,-4.21095,425.587,2.41299
202.3000,-14.9838,427.129,2.42514
202.2000,-7.71926,429.838,2.44639
202.1000,0.99547,431.772,2.4615
202.0000,1.3178,433.345,2.47374
201.9000,-11.1187,435.88,2.49339
201.8000,-3.76581,437.832,2.50846
201.7000,9.06141,440.517,2.5291
201.6000,-8.67312,442.086,2.5411
201.5000,-10.551,443.532,2.55214
201.4000,-6.50373,444.883,2.56242
201.3000,-13.8895,447.624,2.5832
201.2000,1.57838,449.541,2.59767
201.1000,9.12401,451.3,2.6109
201.0000,4.15178,452.854,2.62256
200.9000,17.7648,455.562,2.64279
200.8000,9.41488,456.458,2.64946
200.7000,2.56506,458.918,2.66771
200.6000,6.6202,462.193,2.69189
200.5000,2.77718,463.84,2.704
200.4000,14.7393,465.753,2.71801
200.3000,21.1584,467.9,2.73368
200.2000,19.4746,470.45,2.75221
200.1000,20.6715,472.633,2.76801
200.0000,15.6399,476.211,2.79377
199.9000,10.1844,477.788,2.80508
199.8000,19.2763,480.682,2.82573
199.7000,8.00169,482.98,2.84206
199.6000,33.5387,484.45,2.85247
199.5000,18.0078,487.304,2.87261
199.4000,9.48212,487.718,2.87552
199.3000,6.18098,490.715,2.89655
199.2000,15.1117,492.81,2.91118
199.1000,26.6188,496.337,2.9357
199.0000,16.3873,497.436,2.94331
198.9000,17.3852,499.48,2.95742
198.8000,16.9955,502.994,2.98157
198.7000,13.0242,505.567,2.99916
198.6000,27.59,508.629,3.02
198.5000,15.762,511.531,3.03965
198.4000,19.8007,514.354,3.05868
198.3000,25.3452,515.551,3.06672
198.2000,30.2486,518.475,3.08629
198.1000,21.6438,520.783,3.10168
198.0000,35.5078,522.57,3.11355
197.9000,25.5384,525.622,3.13375
197.8000,20.9403,529.362,3.15837
197.7000,28.9327,531.489,3.1723
197.6000,22.6132,533.137,3.18306
197.5000,25.9936,535.394,3.19776
197.4000,33.3306,538.848,3.22015
197.3000,15.6047,541.693,3.2385
197.2000,17.5637,544.497,3.2565
197.1000,26.6777,546.652,3.27028
197.0000,28.2368,549.998,3.29159
196.9000,19.8852,552.472,3.30728
196.8000,27.6462,554.303,3.31885
196.7000,27.4507,557.986,3.34203
196.6000,20.081,561.065,3.36131
196.5000,30.1032,563.8,3.37835
196.4000,36.287,566.257,3.39361
196.3000,17.543,569.225,3.41196
196.2000,27.5414,571.594,3.42655
196.1000,19.1273,575.832,3.45252
196.0000,34.1912,577.905,3.46517
195.9000,29.6838,581.813,3.48891
195.8000,26.7093,583.038,3.49632
195.7000,21.1006,586.535,3.51741
195.6000,29.6113,590.155,3.53912
195.5000,24.026,591.215,3.54546
195.4000,24.2413,593.562,3.55946
195.3000,24.6868,595.358,3.57014
195.2000,24.3552,598.512,3.58883
195.1000,41.3485,599.68,3.59573
195.0000,21.2128,602.238,3.6108
194.9000,30.2494,604.887,3.62635
194.8000,34.8946,606.558,3.63613
194.7000,35.9859,609.171,3.65138
194.6000,11.6525,610.704,3.6603
194.5000,36.305,613.73,3.67785
194.4000,36.0091,615.444,3.68775
194.3000,16.1367,618.14,3.70329
194.2000,31.6031,621.001,3.71972
194.1000,26.0562,624.046,3.73713
194.0000,21.5866,626.435,3.75073
193.9000,15.2592,627.815,3.75857
193.8000,15.0131,632.167,3.78321
193.7000,29.5354,634.123,3.79423
193.6000,35.4681,637.118,3.81106
193.5000,24.2934,638.466,3.81861
193.4000,26.4964,641.435,3.83519
193.3000,13.3514,642.785,3.8427
193.2000,12.1931,643.857,3.84866
193.1000,22.716,646.528,3.86348
193.0000,38.7814,647.951,3.87135
192.9000,8.43261,651.314,3.88989
192.8000,31.8096,654.275,3.90615
192.7000,13.0028,657.454,3.92354
192.6000,19.6907,658.422,3.92882
192.5000,15.3175,661.145,3.94363
192.4000,31.6554,663.598,3.95694
192.3000,18.9834,666.905,3.97481
192.2000,19.9219,668.708,3.98452
192.1000,8.32066,670.751,3.99549
192.0000,15.2756,671.884,4.00157
191.9000,-0.299595,674.319,4.01459
191.8000,32.6123,677.781,4.03304
191.7000,20.1663,678.86,4.03878
191.6000,20.6252,682.451,4.05781
191.5000,18.002,683.538,4.06355
191.4000,19.3315,686.081,4.07696
191.3000,14.4952,688.365,4.08896
191.2000,12.5016,691.945,4.1077
191.1000,8.11446,694.77,4.12244
191.0000,11.5369,698.719,4.14295
190.9000,14.4174,701.711,4.15843
190.8000,16.6915,705.099,4.17588
190.7000,10.7501,710.032,4.20117
190.6000,16.8524,711.276,4.20752
190.5000,9.65018,715.438,4.22871
190.4000,16.9127,716.818,4.23571
190.3000,25.4529,719.911,4.25137
190.2000,11.3288,722.205,4.26293
190.1000,4.96335,722.817,4.26601
190.0000,6.02271,727.781,4.29093

##### Extended Information
[Comments]
Sample name,proteinbuffer_RMCT
Comment
User,ManningTrnkus
Division
Company,Saint Mary's College

[Detailed Information]
Creation date,9/27/2022 1:38 PM

Data array type,Linear data array * 3
Horizontal axis,Wavelength [nm]
Vertical axis(1),CD [mdeg]
Vertical axis(2),HT [V]
Vertical axis(3),Abs
Start,320 nm
End,190 nm
Data interval,0.1 nm
Data points,1301    

[Measurement Information]
Instrument name,J-1500
Model name,J-1500
Serial No.,B051061638

Detector,PM-539
Detector S/N,B051061638
  Lock-in amp.,X mode
  HT volt,Auto

Accessory,PTC-517
Accessory S/N,B026561646
  Temperature,22.04 C
  Control sensor,Holder
  Monitor sensor,Holder

Measurement date,9/27/2022 1:38 PM

CD Overload detect,879
Photometric mode,CD, HT, Abs
Measure range,320 - 190 nm
Data pitch,0.1 nm
CD scale,20 mdeg/0.05 dOD
FL scale,20 mdeg/0.05 dOD
D.I.T.,8 msec
Bandwidth,1.00 nm
Start mode,Immediately
Scanning mode,Continuous
Scanning speed,50 nm/min
Baseline correction,None
Shutter control,Auto
No. of cycle,1/1
N2 Flowmeter,Manual

Solvent,NaPO4 buffer

