TITLE,Protein+Additive_AMSS
DATA TYPE,
ORIGIN,JASCO
OWNER,
DATE,22/09/27
TIME,14:50:43
SPECTROMETER/DATA SYSTEM,
LOCALE,1033
RESOLUTION,
DELTAX,-0.1
XUNITS,NANOMETERS
YUNITS,CD [mdeg]
Y2UNITS,HT [V]
Y3UNITS,ABSORBANCE
FIRSTX,  320.0000
LASTX,  190.0000
NPOINTS,    1301
FIRSTY,     2.15083
MAXY,    39.75908
MINY,   -65.36295
XYDATA
320.0000,2.15083,258.633,0.805946
319.9000,0.594355,258.233,0.801157
319.8000,-0.546513,258.353,0.802595
319.7000,3.46367,258.493,0.804278
319.6000,0.043538,258.282,0.80174
319.5000,-1.59488,258.379,0.802908
319.4000,3.0704,258.874,0.808833
319.3000,0.670543,257.397,0.791124
319.2000,1.59005,258.702,0.806773
319.1000,1.10575,258.126,0.79988
319.0000,1.37846,258.237,0.801211
318.9000,0.686399,258.25,0.80136
318.8000,0.466342,257.41,0.791287
318.7000,2.51659,257.723,0.795042
318.6000,3.07752,258.751,0.807356
318.5000,2.92925,258.082,0.799351
318.4000,0.17833,258.234,0.80117
318.3000,-0.563524,258.828,0.808277
318.2000,0.405559,258.078,0.799296
318.1000,2.40247,257.857,0.796647
318.0000,-0.596654,258.259,0.801469
317.9000,3.46462,258.227,0.801089
317.8000,0.679198,258.036,0.798794
317.7000,-1.9773,258.333,0.802351
317.6000,4.84762,258.158,0.800261
317.5000,4.58364,258.395,0.803098
317.4000,0.578413,258.627,0.805878
317.3000,1.47654,258.338,0.802419
317.2000,-1.40118,258.115,0.799744
317.1000,1.81362,258.337,0.802406
317.0000,1.00043,258.588,0.805404
316.9000,1.5289,258.56,0.805078
316.8000,2.92692,259.075,0.81123
316.7000,1.24243,257.903,0.797204
316.6000,-1.58874,258.05,0.79897
316.5000,0.0215807,258.581,0.805322
316.4000,0.354438,257.897,0.797136
316.3000,-1.13743,258.09,0.799446
316.2000,3.56928,258.279,0.801713
316.1000,3.56728,257.992,0.798264
316.0000,1.51943,257.359,0.790675
315.9000,3.78057,256.349,0.778511
315.8000,3.95472,258.64,0.806027
315.7000,-0.549972,257.902,0.79719
315.6000,2.52828,258.312,0.802107
315.5000,-0.517052,257.554,0.793016
315.4000,2.12012,259.007,0.810418
315.3000,-2.96914,257.035,0.786779
315.2000,1.74646,257.641,0.794063
315.1000,0.620827,257.846,0.796524
315.0000,2.14155,257.928,0.797503
314.9000,1.97551,258.006,0.79844
314.8000,1.38799,257.944,0.797693
314.7000,3.31952,257.877,0.796891
314.6000,3.34946,258.987,0.810187
314.5000,4.95818,257.85,0.796565
314.4000,-0.506332,257.137,0.788005
314.3000,0.589983,258.469,0.80398
314.2000,2.24054,257.578,0.793302
314.1000,-1.0408,256.155,0.776174
314.0000,0.196589,256.999,0.786343
313.9000,0.807179,257.877,0.796891
313.8000,-2.73862,257.015,0.786534
313.7000,-0.94832,257.333,0.790362
313.6000,-0.664335,257.774,0.795654
313.5000,2.65366,257.316,0.790157
313.4000,2.78089,257.809,0.796076
313.3000,2.73334,257.228,0.789095
313.2000,2.46031,257.611,0.793696
313.1000,2.04038,257.584,0.79337
313.0000,2.14419,257.417,0.791369
312.9000,1.49457,257.805,0.796021
312.8000,3.20807,257.474,0.792049
312.7000,6.46256,258.193,0.800681
312.6000,2.78906,257.586,0.793397
312.5000,0.111536,257.095,0.787501
312.4000,-0.20916,258.661,0.806285
312.3000,0.349709,257.511,0.792499
312.2000,4.41934,257.35,0.790566
312.1000,-0.321986,257.445,0.791709
312.0000,0.388794,257.707,0.794852
311.9000,2.35828,258.286,0.801795
311.8000,2.08241,258.704,0.8068
311.7000,2.60031,257.388,0.791015
311.6000,3.21665,258.103,0.799595
311.5000,0.676441,258.728,0.807085
311.4000,1.01682,258.326,0.80227
311.3000,1.50133,257.531,0.792743
311.2000,3.45115,258.669,0.80638
311.1000,1.83214,258.039,0.798834
311.0000,-2.08938,258.32,0.802202
310.9000,-0.327595,258.146,0.800111
310.8000,2.3,257.519,0.792594
310.7000,0.419784,258.689,0.806624
310.6000,3.35374,258.759,0.807451
310.5000,2.94998,257.556,0.793043
310.4000,2.75207,257.392,0.79107
310.3000,1.70202,258.151,0.800179
310.2000,1.2086,257.272,0.789626
310.1000,3.01729,257.743,0.795287
310.0000,1.06911,257.322,0.790225
309.9000,2.10631,257.576,0.793274
309.8000,3.82438,258.949,0.809727
309.7000,1.34533,257.612,0.79371
309.6000,1.85849,257.065,0.787133
309.5000,1.14677,257.829,0.79632
309.4000,1.09854,257.633,0.793968
309.3000,3.76127,256.982,0.786138
309.2000,4.11496,256.772,0.783616
309.1000,3.58843,258.232,0.801143
309.0000,0.555399,257.965,0.797951
308.9000,0.319168,258.126,0.79988
308.8000,4.45815,257.903,0.797204
308.7000,-1.03583,257.99,0.79825
308.6000,2.47734,256.957,0.785839
308.5000,0.725853,258.26,0.801482
308.4000,1.61261,257.952,0.797788
308.3000,0.93962,257.045,0.786902
308.2000,-0.72708,257.348,0.790539
308.1000,2.08125,257.396,0.79111
308.0000,0.701752,258.035,0.79878
307.9000,3.72302,258.488,0.80421
307.8000,-0.25818,257.037,0.786806
307.7000,-2.85614,257.62,0.793805
307.6000,1.63403,256.026,0.774616
307.5000,4.19581,258.099,0.799554
307.4000,-1.2171,257.585,0.793383
307.3000,3.7009,257.742,0.795274
307.2000,2.15921,256.849,0.784543
307.1000,0.0919184,257.38,0.79092
307.0000,-0.387891,257.39,0.791042
306.9000,1.77353,257.712,0.794906
306.8000,1.31873,257.473,0.792036
306.7000,-0.812179,257.076,0.78727
306.6000,0.69611,256.847,0.784516
306.5000,3.31508,256.615,0.78172
306.4000,-0.0811614,257.785,0.79579
306.3000,1.87621,257.222,0.789027
306.2000,2.62256,257.39,0.791042
306.1000,0.354272,257.381,0.790933
306.0000,0.687097,257.46,0.791886
305.9000,-1.39503,257.831,0.796334
305.8000,-0.0453838,257.766,0.795559
305.7000,1.231,257.269,0.789585
305.6000,0.258451,257.706,0.794838
305.5000,6.54825,257.027,0.786683
305.4000,1.87495,258.605,0.805607
305.3000,0.346772,258.948,0.809713
305.2000,2.95893,258.211,0.800899
305.1000,3.65063,257.512,0.792512
305.0000,-1.18954,257.401,0.791178
304.9000,-1.45434,258.294,0.80189
304.8000,1.20159,257.458,0.791859
304.7000,1.02229,257.758,0.795464
304.6000,1.74912,257.064,0.78712
304.5000,3.14668,257.315,0.790144
304.4000,5.25195,256.709,0.782852
304.3000,1.68931,256.885,0.784966
304.2000,0.51103,257.569,0.793193
304.1000,-1.3408,258.554,0.804997
304.0000,1.31195,256.655,0.782197
303.9000,3.34627,257.061,0.787092
303.8000,1.4406,257.256,0.789436
303.7000,-3.05271,256.69,0.78262
303.6000,-0.0932712,257.666,0.794362
303.5000,-0.882649,256.973,0.786029
303.4000,1.63773,257.067,0.787161
303.3000,0.117679,256.208,0.776817
303.2000,2.47967,257.762,0.795505
303.1000,0.937791,257.32,0.790198
303.0000,1.80167,256.936,0.785579
302.9000,0.426935,257.403,0.791206
302.8000,3.01794,257.389,0.791029
302.7000,4.95407,257.504,0.792417
302.6000,-1.13,256.804,0.783998
302.5000,-0.189705,257.258,0.789463
302.4000,0.964207,256.875,0.784857
302.3000,1.05893,257.468,0.791981
302.2000,1.17562,257.19,0.788646
302.1000,3.32307,257.104,0.78761
302.0000,-0.195041,256.827,0.784271
301.9000,-0.862763,256.599,0.781528
301.8000,0.312369,257.793,0.795886
301.7000,4.85453,256.678,0.782484
301.6000,3.05343,256.15,0.77612
301.5000,-1.07924,257.306,0.790035
301.4000,2.43629,257.305,0.790021
301.3000,1.42955,257.03,0.786711
301.2000,3.74714,256.777,0.78367
301.1000,2.02897,256.315,0.778101
301.0000,1.98924,256.565,0.781119
300.9000,0.546695,257.325,0.790266
300.8000,-1.22325,257.252,0.789381
300.7000,-0.880436,257.058,0.787052
300.6000,0.32663,256.224,0.777008
300.5000,0.593182,256.437,0.779576
300.4000,2.10841,257.571,0.79322
300.3000,2.56651,256.622,0.781801
300.2000,3.27673,256.769,0.783575
300.1000,-0.658504,256.616,0.781733
300.0000,1.44412,256.685,0.782565
299.9000,1.34736,256.473,0.780013
299.8000,0.106963,256.096,0.775464
299.7000,1.67812,257.301,0.78998
299.6000,1.96735,256.087,0.775354
299.5000,7.18317,257.138,0.788019
299.4000,2.63674,256.266,0.777514
299.3000,0.539431,256.001,0.774315
299.2000,1.24047,255.923,0.773372
299.1000,1.60456,256.954,0.785798
299.0000,3.86504,256.836,0.78438
298.9000,-0.996659,256.224,0.777008
298.8000,0.851856,255.976,0.774015
298.7000,-2.24712,257.958,0.797856
298.6000,4.45702,257.878,0.796905
298.5000,0.322701,258.276,0.801673
298.4000,3.39515,256.964,0.78592
298.3000,1.90965,257.007,0.786438
298.2000,0.317738,256.52,0.780573
298.1000,3.51808,256.49,0.780218
298.0000,1.88414,256.947,0.785716
297.9000,1.40411,256.896,0.785102
297.8000,2.8856,256.506,0.780409
297.7000,1.19054,256.941,0.785648
297.6000,1.13792,257.133,0.787951
297.5000,5.76634,256.761,0.783479
297.4000,2.26761,256.718,0.782961
297.3000,1.60907,256.795,0.783889
297.2000,1.13732,256.751,0.783357
297.1000,-0.407426,257.128,0.787896
297.0000,-3.67633,256.344,0.778456
296.9000,0.184893,256.471,0.779986
296.8000,2.04816,257.132,0.787937
296.7000,2.39742,257.284,0.789776
296.6000,-1.0109,256.55,0.780941
296.5000,3.15346,257.011,0.786493
296.4000,2.95998,256.723,0.783016
296.3000,0.579695,256.492,0.780245
296.2000,2.78596,257.297,0.789926
296.1000,-2.22028,256.681,0.782511
296.0000,3.52112,257.303,0.789994
295.9000,2.45002,254.932,0.761398
295.8000,1.1854,256.43,0.779494
295.7000,2.03125,256.99,0.786234
295.6000,2.30099,256.591,0.781433
295.5000,2.51908,256.18,0.776475
295.4000,-2.47062,257.714,0.794934
295.3000,0.365166,257.286,0.78979
295.2000,2.94808,257.407,0.791246
295.1000,0.455253,256.41,0.779248
295.0000,-0.950856,255.899,0.773084
294.9000,1.79545,255.576,0.769184
294.8000,2.13814,256.454,0.779781
294.7000,0.962945,257.413,0.791314
294.6000,0.707177,255.107,0.763511
294.5000,-0.759467,257.886,0.797
294.4000,1.49489,257.145,0.788101
294.3000,1.98677,256.411,0.779262
294.2000,1.68302,256.353,0.778565
294.1000,0.969558,256.396,0.779085
294.0000,2.09157,257.604,0.793614
293.9000,0.552476,256.883,0.784952
293.8000,0.530634,256.868,0.784761
293.7000,0.544167,256.449,0.779726
293.6000,-2.04057,256.347,0.778497
293.5000,0.747373,257.572,0.793233
293.4000,0.556086,254.949,0.761604
293.3000,1.01058,257.262,0.789504
293.2000,3.16649,256.324,0.77821
293.1000,1.71865,256.488,0.780191
293.0000,4.31754,256.966,0.785948
292.9000,-1.43022,255.567,0.769074
292.8000,0.951654,257.78,0.795722
292.7000,3.51179,255.62,0.769718
292.6000,0.183856,257.014,0.78652
292.5000,1.37666,257.529,0.792716
292.4000,0.425927,256.988,0.786206
292.3000,0.902233,256.109,0.775628
292.2000,-1.21619,255.925,0.773399
292.1000,1.57292,255.739,0.771155
292.0000,0.52824,255.848,0.772469
291.9000,0.248472,255.694,0.770608
291.8000,-0.159709,256.13,0.775874
291.7000,1.96445,255.978,0.774042
291.6000,0.48519,254.714,0.758749
291.5000,-0.678925,256.014,0.77448
291.4000,-1.01607,256.732,0.783125
291.3000,2.79793,256.485,0.78015
291.2000,1.24574,257.686,0.794594
291.1000,1.98339,257.212,0.788904
291.0000,-0.642698,254.906,0.761083
290.9000,0.436947,255.989,0.774179
290.8000,0.62156,256.589,0.781406
290.7000,2.95121,255.54,0.768746
290.6000,-1.98567,255.748,0.771265
290.5000,1.55487,255.81,0.772017
290.4000,-0.126435,256.532,0.780723
290.3000,-0.23502,256.042,0.774807
290.2000,1.56051,256.572,0.781201
290.1000,0.794648,256.769,0.783575
290.0000,-0.946668,255.857,0.772578
289.9000,0.961421,255.205,0.764704
289.8000,0.0386534,256.094,0.775437
289.7000,0.0550255,256.249,0.777309
289.6000,-0.39535,256.648,0.782115
289.5000,1.89922,257.141,0.788046
289.4000,1.0058,257.018,0.786575
289.3000,0.967292,256.54,0.780818
289.2000,-1.48719,256.938,0.785607
289.1000,2.7066,256.855,0.784611
289.0000,0.217544,255.558,0.768965
288.9000,-0.343343,257.518,0.79258
288.8000,2.06284,257.571,0.79322
288.7000,-0.790126,257.159,0.788264
288.6000,2.95113,257.348,0.790539
288.5000,3.44767,256.608,0.781637
288.4000,2.00463,256.652,0.78217
288.3000,0.616546,256.082,0.7753
288.2000,-1.45759,256.526,0.780655
288.1000,2.06261,256.353,0.778565
288.0000,2.66646,255.691,0.77058
287.9000,1.07774,257.425,0.791464
287.8000,2.90956,256.945,0.785689
287.7000,2.65863,255.273,0.765526
287.6000,-0.276923,255.825,0.772195
287.5000,1.36244,256.763,0.783507
287.4000,1.16598,256.25,0.777322
287.3000,2.90594,256.234,0.777131
287.2000,0.489685,256.395,0.779071
287.1000,-0.173625,256.47,0.779972
287.0000,-0.336767,256.329,0.778279
286.9000,2.77464,255.162,0.764183
286.8000,3.02115,256.367,0.77873
286.7000,2.62227,257.275,0.789667
286.6000,3.54491,256.078,0.775245
286.5000,-2.35779,257.085,0.787379
286.4000,-1.47103,256.82,0.784189
286.3000,2.05916,256.969,0.785988
286.2000,1.7309,256.946,0.785702
286.1000,-0.881268,257.384,0.790974
286.0000,2.0725,258.799,0.807939
285.9000,0.621793,256.247,0.777282
285.8000,0.258138,256.171,0.776366
285.7000,-0.229363,257.185,0.788577
285.6000,-1.02588,257.255,0.789422
285.5000,0.410964,256.836,0.78438
285.4000,1.21469,256.854,0.784598
285.3000,1.13865,256.338,0.778388
285.2000,0.758898,257.347,0.790525
285.1000,0.923766,256.7,0.782743
285.0000,1.81451,256.32,0.77817
284.9000,1.66067,256.156,0.776188
284.8000,1.52126,257.179,0.788509
284.7000,-0.687475,256.124,0.775806
284.6000,1.56258,256.963,0.785907
284.5000,2.32056,257.306,0.790035
284.4000,0.69204,256.477,0.780054
284.3000,-1.79807,255.48,0.76802
284.2000,-1.03355,257.439,0.791628
284.1000,1.89245,255.533,0.768664
284.0000,0.96519,257.306,0.790035
283.9000,-1.10129,256.085,0.775327
283.8000,-0.174373,255.676,0.770389
283.7000,-1.88017,255.993,0.77422
283.6000,1.63199,258.108,0.799663
283.5000,1.37931,256.79,0.783834
283.4000,2.55652,256.095,0.77545
283.3000,0.812534,255.969,0.773933
283.2000,2.9539,258.067,0.799174
283.1000,-0.796192,257.41,0.791287
283.0000,3.86707,256.641,0.782033
282.9000,-0.355624,257.91,0.797285
282.8000,1.69311,256.967,0.785961
282.7000,-1.14686,256.875,0.784857
282.6000,-0.435661,254.784,0.7596
282.5000,0.636903,256.021,0.774562
282.4000,-0.254512,257.317,0.790171
282.3000,-0.483541,256.58,0.781296
282.2000,2.49226,255.979,0.774055
282.1000,0.331957,257.119,0.787787
282.0000,-0.171969,256.179,0.776462
281.9000,-1.43255,257.159,0.788264
281.8000,3.32333,256.012,0.774452
281.7000,0.787736,256.933,0.785552
281.6000,-1.47633,255.569,0.769102
281.5000,1.31647,256.715,0.78292
281.4000,-1.29781,256.778,0.783684
281.3000,4.89808,256.241,0.777213
281.2000,0.102855,257.474,0.792049
281.1000,1.9781,256.84,0.784434
281.0000,-1.38701,257.018,0.786575
280.9000,3.98668,256.437,0.779576
280.8000,1.73035,257.103,0.787597
280.7000,-0.0114224,256.034,0.774712
280.6000,-1.92188,256.656,0.782211
280.5000,0.880751,257.052,0.786983
280.4000,2.17032,257.742,0.795274
280.3000,3.13766,256.15,0.77612
280.2000,2.19643,257.478,0.792104
280.1000,2.32795,256.088,0.775368
280.0000,0.459053,257.469,0.791995
279.9000,3.71009,256.641,0.782033
279.8000,0.710837,255.516,0.768458
279.7000,3.66679,256.327,0.778251
279.6000,0.819887,257.069,0.787188
279.5000,-0.263736,255.414,0.767225
279.4000,-2.10585,257.467,0.791968
279.3000,-0.559564,256.716,0.782934
279.2000,1.06056,256.624,0.781829
279.1000,0.204321,256.52,0.780573
279.0000,1.7432,257.357,0.790648
278.9000,-1.82548,256.306,0.777992
278.8000,1.24321,257.209,0.788863
278.7000,0.492051,256.854,0.784598
278.6000,2.17118,256.344,0.778456
278.5000,0.645671,255.262,0.765389
278.4000,-1.6646,257.303,0.789994
278.3000,0.314742,257.366,0.790756
278.2000,3.01236,256.381,0.778907
278.1000,0.465292,256.063,0.775067
278.0000,1.9801,257.329,0.790307
277.9000,0.735798,256.29,0.777801
277.8000,0.641723,256.508,0.780436
277.7000,2.08258,257.635,0.793982
277.6000,-1.65591,256.66,0.782265
277.5000,3.10205,257.679,0.794512
277.4000,4.01177,256.76,0.783466
277.3000,1.01715,255.986,0.774138
277.2000,3.43203,256.099,0.775505
277.1000,3.39119,256.383,0.778921
277.0000,2.54595,256.35,0.778525
276.9000,4.15186,256.664,0.782306
276.8000,-0.545896,257.04,0.786834
276.7000,3.77228,255.859,0.772606
276.6000,1.44659,257.272,0.789626
276.5000,4.00088,254.979,0.761961
276.4000,0.304876,256.972,0.786016
276.3000,0.845998,257.135,0.787978
276.2000,-0.248133,255.058,0.762921
276.1000,-0.933252,255.809,0.772004
276.0000,-2.26494,256.524,0.780628
275.9000,-0.755563,257.092,0.78746
275.8000,-0.203824,256.598,0.781515
275.7000,0.663344,256.601,0.781556
275.6000,3.827,256.486,0.780163
275.5000,-1.2524,255.24,0.765129
275.4000,1.4847,256.769,0.783575
275.3000,-0.898981,255.73,0.771046
275.2000,2.635,257.639,0.794036
275.1000,3.92828,257.257,0.789449
275.0000,0.115608,256.771,0.783602
274.9000,-0.0840322,255.895,0.773044
274.8000,-1.12399,256.775,0.783643
274.7000,1.7498,256.275,0.777623
274.6000,-1.2404,257.049,0.786942
274.5000,1.94466,256.31,0.778047
274.4000,1.63599,255.691,0.77058
274.3000,-0.406458,256.33,0.778292
274.2000,0.358687,258.089,0.799432
274.1000,0.0839412,255.581,0.769252
274.0000,2.51002,255.501,0.76828
273.9000,0.85384,255.543,0.768787
273.8000,3.2169,256.192,0.776626
273.7000,2.00985,256.264,0.777487
273.6000,-0.434255,256.006,0.774384
273.5000,0.930231,255.066,0.763017
273.4000,0.414795,255.657,0.77017
273.3000,0.278638,255.974,0.773987
273.2000,0.284813,257.607,0.793655
273.1000,-0.897208,255.796,0.771839
273.0000,2.77009,256.134,0.775929
272.9000,2.35394,256.019,0.774534
272.8000,0.657799,255.289,0.765718
272.7000,2.30143,257.088,0.787419
272.6000,3.61915,256.136,0.775942
272.5000,0.37465,256.052,0.774931
272.4000,-0.168006,254.292,0.753637
272.3000,-0.193842,256.64,0.78202
272.2000,3.21218,257.672,0.79443
272.1000,0.755264,255.804,0.771935
272.0000,0.168018,255.11,0.763552
271.9000,1.82233,255.469,0.767896
271.8000,-0.0459417,256.269,0.777555
271.7000,0.874125,256.489,0.780204
271.6000,0.840662,255.806,0.771963
271.5000,1.50865,254.846,0.760355
271.4000,0.375049,254.87,0.760644
271.3000,1.46629,256.188,0.776571
271.2000,1.34263,255.572,0.769143
271.1000,0.313859,255.171,0.764292
271.0000,-0.833165,255.742,0.771196
270.9000,0.588166,255.976,0.774015
270.8000,0.661855,255.739,0.771155
270.7000,-2.90073,255.376,0.766773
270.6000,1.95122,255.601,0.769485
270.5000,0.990749,255.637,0.769923
270.4000,0.840329,256.6,0.781542
270.3000,0.525491,255.932,0.773481
270.2000,4.22766,255.97,0.773946
270.1000,0.419178,255.558,0.768965
270.0000,1.30748,255.17,0.764279
269.9000,-3.01425,255.063,0.762976
269.8000,3.34051,256.684,0.782552
269.7000,1.35915,255.954,0.773755
269.6000,0.893939,256.744,0.783275
269.5000,-2.40831,255.815,0.772072
269.4000,-0.474783,255.847,0.772455
269.3000,-0.981529,255.193,0.764553
269.2000,-0.584812,255.797,0.771853
269.1000,0.0490015,255.954,0.773755
269.0000,2.1592,255.791,0.771785
268.9000,-2.2198,255.826,0.772209
268.8000,0.911225,256.584,0.781351
268.7000,-0.191461,254.93,0.761371
268.6000,1.61856,256.415,0.779317
268.5000,0.507308,255.43,0.767417
268.4000,3.07479,255.541,0.768759
268.3000,1.23165,256.003,0.774343
268.2000,-0.296058,256.003,0.774343
268.1000,1.1018,255.331,0.766225
268.0000,-0.439974,255.901,0.773112
267.9000,-1.85863,256.245,0.777268
267.8000,-1.79876,256.044,0.774835
267.7000,-0.272659,255.748,0.771265
267.6000,-0.251296,255.971,0.77396
267.5000,3.3537,255.747,0.771251
267.4000,-3.3919,255.963,0.773864
267.3000,2.08513,254.879,0.760753
267.2000,-0.840115,255.921,0.773358
267.1000,-1.67742,256.015,0.774493
267.0000,0.619513,257.435,0.791587
266.9000,1.98419,255.972,0.773973
266.8000,-0.376982,257.478,0.792104
266.7000,0.289382,256.235,0.777145
266.6000,0.8549,256.44,0.779617
266.5000,1.57949,256.896,0.785102
266.4000,1.08592,255.896,0.773057
266.3000,0.473147,256.844,0.784475
266.2000,0.251534,256.796,0.783902
266.1000,2.44181,256.89,0.785034
266.0000,0.350544,255.913,0.773262
265.9000,3.05322,256.78,0.783711
265.8000,-0.736735,256.832,0.784339
265.7000,0.160488,256.074,0.775204
265.6000,1.94456,255.609,0.769581
265.5000,0.774639,256.676,0.782456
265.4000,0.520493,256.795,0.783889
265.3000,-0.0323864,256.871,0.784802
265.2000,-5.07328,256.275,0.777623
265.1000,-1.16609,256.34,0.778402
265.0000,-2.68186,256.733,0.783138
264.9000,-1.14809,255.78,0.771648
264.8000,-1.5387,256.413,0.779289
264.7000,2.83757,256.554,0.780982
264.6000,3.44149,256.709,0.782852
264.5000,3.04031,256.852,0.78457
264.4000,-1.60239,255.889,0.772961
264.3000,-0.215498,256.881,0.784925
264.2000,1.33471,257.459,0.791873
264.1000,1.29051,256.99,0.786234
264.0000,2.37953,256.784,0.783752
263.9000,-1.09304,256.208,0.776817
263.8000,1.68456,256.648,0.782115
263.7000,2.97083,256.666,0.782334
263.6000,-1.28522,257.184,0.788564
263.5000,-1.14447,254.976,0.761933
263.4000,0.450137,256.615,0.78172
263.3000,1.23896,256.489,0.780204
263.2000,-1.98196,256.047,0.774876
263.1000,-0.48464,256.387,0.778975
263.0000,0.51054,257.758,0.795464
262.9000,1.16555,257.529,0.792716
262.8000,0.491629,256.532,0.780723
262.7000,0.397494,256.993,0.786275
262.6000,1.73942,257.453,0.791805
262.5000,1.69562,254.706,0.758653
262.4000,-1.50567,258.049,0.798957
262.3000,-0.843439,257.444,0.791696
262.2000,0.403385,256.41,0.779248
262.1000,-1.71277,257.579,0.793315
262.0000,2.74343,255.34,0.766335
261.9000,-0.81716,256.812,0.784093
261.8000,4.81583,256.834,0.784352
261.7000,0.25317,257.443,0.791682
261.6000,2.20535,256.599,0.781528
261.5000,-1.22205,256.711,0.782879
261.4000,-4.28569,257.309,0.790076
261.3000,2.74605,257.981,0.798142
261.2000,0.142714,256.698,0.782715
261.1000,1.2013,257.69,0.794648
261.0000,-0.601828,256.783,0.783739
260.9000,0.307268,256.565,0.781119
260.8000,1.74135,256.063,0.775067
260.7000,2.54867,257.039,0.78682
260.6000,1.87037,256.577,0.781269
260.5000,0.672819,256.737,0.783193
260.4000,1.16849,256.183,0.776516
260.3000,2.20697,257.544,0.792893
260.2000,-1.4472,257.902,0.79719
260.1000,0.240135,257.482,0.792145
260.0000,-1.01759,258.594,0.805485
259.9000,-2.15203,255.799,0.771881
259.8000,0.706122,258.448,0.803735
259.7000,0.222055,257.996,0.798318
259.6000,-1.74432,258.786,0.807776
259.5000,6.40771,257.807,0.796049
259.4000,-0.0386274,257.32,0.790198
259.3000,-0.472461,257.921,0.797421
259.2000,2.43723,256.628,0.781883
259.1000,0.174199,257.33,0.790321
259.0000,0.820637,257.533,0.792757
258.9000,1.33857,257.607,0.793655
258.8000,1.62572,257.562,0.793111
258.7000,0.131888,257.284,0.789776
258.6000,0.448683,257.953,0.797802
258.5000,-2.62977,257.07,0.787201
258.4000,2.9693,257.044,0.786888
258.3000,0.181416,257.95,0.797761
258.2000,0.483412,257.188,0.788618
258.1000,2.88675,258.469,0.80398
258.0000,-1.52897,258.893,0.809063
257.9000,-0.750253,258.377,0.802881
257.8000,-0.838841,258.719,0.806976
257.7000,0.0666928,258.254,0.801415
257.6000,2.23192,259.088,0.811393
257.5000,-2.23991,258.785,0.807763
257.4000,1.92088,258.677,0.806475
257.3000,-1.01138,257.667,0.794376
257.2000,-0.30496,258.299,0.801944
257.1000,2.31557,256.647,0.782101
257.0000,2.59464,257.638,0.794022
256.9000,0.780448,257.631,0.793941
256.8000,-0.466829,259.043,0.810851
256.7000,1.5611,258.959,0.809849
256.6000,1.48901,258.295,0.801903
256.5000,1.70729,259.334,0.81433
256.4000,0.765334,258.514,0.804522
256.3000,0.765265,258.768,0.807559
256.2000,-1.86341,259.208,0.812827
256.1000,1.0069,259.322,0.81418
256.0000,0.112798,258.757,0.807437
255.9000,1.40289,259.148,0.81211
255.8000,-0.0603031,258.677,0.806475
255.7000,0.0250161,258.624,0.805837
255.6000,-2.77105,258.043,0.798875
255.5000,1.44437,258.645,0.806095
255.4000,0.53782,259.365,0.814695
255.3000,-0.115377,258.495,0.804291
255.2000,1.11379,258.925,0.809442
255.1000,-0.0604262,259.602,0.817521
255.0000,1.09304,258.736,0.80718
254.9000,-0.683693,258.761,0.807478
254.8000,-3.41237,258.52,0.80459
254.7000,2.31685,258.753,0.807383
254.6000,1.92672,259.083,0.811325
254.5000,-1.83111,258.801,0.807952
254.4000,-0.614785,259.881,0.820858
254.3000,1.87677,259.586,0.817331
254.2000,2.57933,259.061,0.811068
254.1000,1.43868,259.655,0.818156
254.0000,1.27041,259.255,0.813382
253.9000,0.205545,259.157,0.812218
253.8000,-0.27742,259.931,0.821452
253.7000,1.80865,260.802,0.831808
253.6000,-1.88081,259.58,0.817264
253.5000,1.35412,259.151,0.812137
253.4000,4.84901,259.653,0.818129
253.3000,0.296356,260.328,0.826175
253.2000,-1.17907,259.763,0.81944
253.1000,-0.727252,259.163,0.812286
253.0000,0.971983,260.104,0.823504
252.9000,2.21117,259.484,0.816115
252.8000,-0.00377981,259.854,0.820534
252.7000,-0.0968064,258.753,0.807383
252.6000,-0.0401002,259.295,0.813856
252.5000,-0.332582,257.944,0.797693
252.4000,2.35078,259.777,0.819615
252.3000,-3.95001,259.416,0.815303
252.2000,1.6958,260.228,0.824988
252.1000,2.56612,258.863,0.808697
252.0000,1.69264,260.466,0.82782
251.9000,-2.33635,260.012,0.822411
251.8000,-0.72518,259.588,0.817358
251.7000,-1.44887,259.94,0.82156
251.6000,-0.747365,259.597,0.817467
251.5000,-3.03985,260.336,0.826269
251.4000,2.40481,258.846,0.808494
251.3000,-0.0644634,259.229,0.813071
251.2000,-0.161327,259.594,0.817426
251.1000,0.414687,259.976,0.821979
251.0000,-0.323663,259.956,0.821749
250.9000,1.19068,260.079,0.823207
250.8000,-0.76484,259.881,0.820858
250.7000,-2.92434,260.207,0.824732
250.6000,-0.94769,260.008,0.82237
250.5000,-0.101031,261.036,0.834594
250.4000,-3.31675,259.184,0.81253
250.3000,3.86459,260.974,0.833854
250.2000,0.444627,259.759,0.819399
250.1000,-1.22933,260.133,0.823855
250.0000,2.50043,259.922,0.821344
249.9000,1.11574,260.348,0.826418
249.8000,-0.118658,260.126,0.823774
249.7000,3.26219,259.17,0.812367
249.6000,-0.195193,260.131,0.823828
249.5000,-0.154014,260.307,0.825932
249.4000,0.21394,259.659,0.81821
249.3000,-0.189574,260.13,0.823814
249.2000,0.787331,259.98,0.822033
249.1000,2.9703,260.212,0.824799
249.0000,1.43517,260.456,0.827699
248.9000,-0.573737,260.499,0.828211
248.8000,3.60568,259.866,0.820669
248.7000,0.908383,260.049,0.822856
248.6000,-2.90535,260.894,0.832912
248.5000,-2.37589,261.047,0.834728
248.4000,0.526666,259.84,0.820358
248.3000,1.21971,260.375,0.826741
248.2000,-0.475848,259.5,0.816304
248.1000,2.05875,259.829,0.820237
248.0000,0.410016,260.622,0.82968
247.9000,2.70904,260.489,0.828089
247.8000,-4.74645,259.989,0.822141
247.7000,-1.19333,260.751,0.831202
247.6000,0.151329,260.179,0.824408
247.5000,2.12412,258.737,0.807193
247.4000,-0.373153,260.54,0.828696
247.3000,1.60193,258.782,0.807735
247.2000,-0.817018,261.455,0.839569
247.1000,0.820333,259.292,0.813829
247.0000,1.87589,259.963,0.82183
246.9000,0.327614,260.219,0.82488
246.8000,-0.239231,260.841,0.832279
246.7000,-0.439739,260.661,0.830138
246.6000,-2.37304,260.819,0.83201
246.5000,-3.15108,261.285,0.837553
246.4000,0.620479,260.472,0.827887
246.3000,-1.95821,261.829,0.844001
246.2000,-0.484392,259.763,0.81944
246.1000,-1.82508,259.569,0.817129
246.0000,1.19114,260.474,0.827914
245.9000,-1.92221,261.297,0.837687
245.8000,0.34641,260.666,0.830192
245.7000,-1.61458,261.437,0.839354
245.6000,-3.34111,261.141,0.835845
245.5000,-5.07681,260.695,0.830542
245.4000,-2.74801,260.5,0.828224
245.3000,-2.29198,260.531,0.828588
245.2000,-3.14565,260.611,0.829545
245.1000,-4.70303,261.073,0.835038
245.0000,-1.9564,261.623,0.841557
244.9000,-1.4068,261.572,0.840953
244.8000,-2.27223,261.43,0.839273
244.7000,0.621585,260.788,0.831646
244.6000,-0.655022,260.278,0.825581
244.5000,-1.95471,260.913,0.833127
244.4000,-4.87419,261.005,0.834231
244.3000,-2.91493,261.034,0.834567
244.2000,-0.169049,259.901,0.821088
244.1000,-4.35388,260.739,0.831067
244.0000,-7.4475,260.748,0.831175
243.9000,-0.0134505,261.967,0.845638
243.8000,-2.9915,261.799,0.843638
243.7000,-6.1605,260.914,0.83314
243.6000,-2.09247,261.718,0.842685
243.5000,-1.12719,261.862,0.84439
243.4000,-2.59897,261.484,0.839905
243.3000,-4.25088,262.051,0.84663
243.2000,-4.62441,262.67,0.853946
243.1000,-4.37073,261.793,0.843571
243.0000,-4.95713,262.349,0.850156
242.9000,-2.52601,261.802,0.843678
242.8000,-1.66947,262.494,0.851871
242.7000,-2.68531,261.825,0.843947
242.6000,0.843412,261.129,0.835697
242.5000,-6.07567,261.655,0.841933
242.4000,-2.24821,261.842,0.844148
242.3000,-2.48469,262.417,0.85096
242.2000,-3.74844,262.035,0.846442
242.1000,-7.58613,262.195,0.848333
242.0000,-4.58378,261.973,0.845705
241.9000,-3.60224,262.604,0.85317
241.8000,-4.43197,262.099,0.847194
241.7000,-6.72506,262.378,0.850491
241.6000,-3.47736,261.992,0.845933
241.5000,-5.10371,262.693,0.854214
241.4000,-2.68842,262.493,0.851857
241.3000,-4.58892,263.2,0.860205
241.2000,-4.56852,262.965,0.857425
241.1000,-4.05605,263.49,0.863625
241.0000,-3.44224,263.048,0.858414
240.9000,-4.07497,263.331,0.861742
240.8000,-5.23918,263.047,0.858401
240.7000,-7.01728,263.439,0.863024
240.6000,-3.51883,264.646,0.877218
240.5000,-6.68995,263.426,0.862864
240.4000,-3.28977,263.907,0.868535
240.3000,-4.88156,263.605,0.864973
240.2000,-6.14832,263.478,0.863478
240.1000,-7.0845,263.546,0.864279
240.0000,-8.33078,264,0.869628
239.9000,-6.53415,263.783,0.867068
239.8000,-8.64583,263.187,0.860045
239.7000,-7.93655,263.38,0.86233
239.6000,-4.83377,263.578,0.864653
239.5000,-5.63676,264.542,0.875994
239.4000,-10.6166,264.516,0.875688
239.3000,-7.85424,263.975,0.869335
239.2000,-8.10363,264.468,0.875129
239.1000,-7.09112,264.986,0.881207
239.0000,-11.1453,264.347,0.873704
238.9000,-10.3477,264.784,0.878841
238.8000,-8.64131,265.262,0.884448
238.7000,-12.2414,265.777,0.890471
238.6000,-8.86378,266.061,0.893797
238.5000,-12.9866,266.255,0.89606
238.4000,-9.00795,265.423,0.886333
238.3000,-10.2803,265.741,0.890046
238.2000,-10.869,266.09,0.894128
238.1000,-11.9125,266.407,0.897834
238.0000,-13.148,266.695,0.901193
237.9000,-10.2217,266.223,0.89569
237.8000,-11.2801,266.512,0.899064
237.7000,-11.7434,267.217,0.907281
237.6000,-12.4901,266.457,0.898416
237.5000,-15.1843,267.284,0.90806
237.4000,-14.5091,266.792,0.902329
237.3000,-12.2832,268.003,0.916428
237.2000,-12.3481,267.28,0.90802
237.1000,-13.8117,267.762,0.913623
237.0000,-15.1929,268.296,0.919823
236.9000,-14.5186,267.863,0.914795
236.8000,-9.991,268.077,0.917284
236.7000,-16.2243,268.694,0.92445
236.6000,-15.4291,267.972,0.916059
236.5000,-14.0031,268.997,0.927955
236.4000,-12.9795,269.206,0.930369
236.3000,-15.157,267.898,0.915204
236.2000,-15.7502,269.102,0.929176
236.1000,-13.3552,268.897,0.926801
236.0000,-18.8423,269.233,0.930684
235.9000,-19.0255,269.404,0.932664
235.8000,-14.5085,269.423,0.932887
235.7000,-16.303,270.137,0.941135
235.6000,-15.1192,270.129,0.941043
235.5000,-14.5701,270.173,0.941553
235.4000,-22.8501,269.434,0.933018
235.3000,-17.4183,270.892,0.949835
235.2000,-18.1281,270.914,0.950096
235.1000,-18.0432,271.159,0.952913
235.0000,-19.3674,270.919,0.950148
234.9000,-19.2721,271.671,0.958801
234.8000,-19.3363,271.988,0.962444
234.7000,-20.5779,272.205,0.964926
234.6000,-21.4088,271.194,0.953317
234.5000,-22.6714,271.486,0.956679
234.4000,-21.3825,272.473,0.968005
234.3000,-21.8476,272.972,0.973714
234.2000,-20.2717,272.622,0.969706
234.1000,-23.786,272.7,0.970601
234.0000,-16.556,273.303,0.977498
233.9000,-24.2156,273.459,0.979285
233.8000,-22.5576,272.999,0.974025
233.7000,-23.7978,272.302,0.966044
233.6000,-24.6695,273.741,0.982507
233.5000,-24.0989,273.852,0.983774
233.4000,-29.0111,273.779,0.982934
233.3000,-26.8659,274.219,0.987961
233.2000,-25.1608,275.284,1.00008
233.1000,-23.2957,274.654,0.992918
233.0000,-24.3782,274.745,0.99395
232.9000,-25.9616,274.439,0.990466
232.8000,-28.7845,275.73,1.00514
232.7000,-27.3545,275.921,1.00731
232.6000,-24.9601,276.115,1.00951
232.5000,-26.7228,276.542,1.01435
232.4000,-29.6285,276.11,1.00946
232.3000,-26.4039,276.736,1.01654
232.2000,-30.7705,276.056,1.00884
232.1000,-32.2187,276.146,1.00985
232.0000,-28.9693,276.849,1.01782
231.9000,-29.6511,277.517,1.02536
231.8000,-31.2421,278.005,1.03087
231.7000,-32.7309,277.301,1.02293
231.6000,-28.2399,278.407,1.0354
231.5000,-34.1011,278.534,1.03683
231.4000,-33.556,278.713,1.03884
231.3000,-33.7855,279.518,1.04788
231.2000,-30.3817,278.501,1.03646
231.1000,-31.6167,278.71,1.0388
231.0000,-36.1832,279.401,1.04657
230.9000,-34.4762,279.385,1.04639
230.8000,-35.4733,279.593,1.04873
230.7000,-39.3018,280.33,1.05698
230.6000,-33.9792,279.825,1.05132
230.5000,-35.425,280.276,1.05637
230.4000,-36.2077,280.076,1.05414
230.3000,-35.9974,280.375,1.05749
230.2000,-39.5996,280.593,1.05992
230.1000,-35.6843,280.69,1.06101
230.0000,-37.1936,281.454,1.06954
229.9000,-36.2645,280.866,1.06297
229.8000,-38.8954,281.566,1.07079
229.7000,-38.7585,279.927,1.05246
229.6000,-37.6776,281.046,1.06499
229.5000,-46.6021,281.826,1.07368
229.4000,-42.5821,281.797,1.07337
229.3000,-38.1302,282.184,1.07767
229.2000,-43.4145,282.483,1.081
229.1000,-41.0973,282.592,1.08221
229.0000,-38.0919,284.1,1.09894
228.9000,-43.8866,283.354,1.09068
228.8000,-39.5237,284.505,1.10343
228.7000,-42.1633,284.045,1.09834
228.6000,-46.2448,284.255,1.10066
228.5000,-43.1856,284.076,1.09867
228.4000,-46.8356,285.185,1.11093
228.3000,-47.1892,284.968,1.10853
228.2000,-43.5538,286.161,1.12168
228.1000,-42.0464,285.38,1.11308
228.0000,-45.8855,286.643,1.12699
227.9000,-45.4036,286.475,1.12513
227.8000,-44.8631,285.985,1.11975
227.7000,-49.0779,287.627,1.13778
227.6000,-47.5412,287.455,1.13589
227.5000,-47.6013,287.041,1.13136
227.4000,-54.4204,288.09,1.14285
227.3000,-45.0714,288.578,1.14818
227.2000,-53.0773,288.474,1.14705
227.1000,-52.1628,289.079,1.15366
227.0000,-44.9117,288.546,1.14783
226.9000,-49.7414,289.081,1.15367
226.8000,-48.1231,288.301,1.14516
226.7000,-49.7431,289.358,1.1567
226.6000,-49.5932,288.915,1.15187
226.5000,-49.0897,288.649,1.14896
226.4000,-50.2457,289.98,1.16347
226.3000,-52.7345,289.202,1.15499
226.2000,-46.852,289.998,1.16367
226.1000,-54.1233,290.157,1.1654
226.0000,-53.3066,291.066,1.17527
225.9000,-52.1756,290.345,1.16744
225.8000,-53.5859,290.443,1.1685
225.7000,-56.9524,291.729,1.18245
225.6000,-57.3566,291.356,1.17841
225.5000,-49.1313,291.603,1.18109
225.4000,-57.6133,291.555,1.18057
225.3000,-55.043,292.172,1.18725
225.2000,-51.019,291.462,1.17957
225.1000,-58.0649,292.926,1.1954
225.0000,-54.3148,292.645,1.19236
224.9000,-50.1162,292.37,1.18939
224.8000,-53.6572,293.176,1.19809
224.7000,-55.4847,293.879,1.20566
224.6000,-54.0147,294.864,1.21625
224.5000,-54.6959,294.458,1.21189
224.4000,-58.8499,294.761,1.21514
224.3000,-54.4925,294.019,1.20716
224.2000,-56.0304,294.622,1.21365
224.1000,-57.0981,295.012,1.21784
224.0000,-51.3801,294.349,1.21072
223.9000,-61.7053,294.935,1.21701
223.8000,-58.8573,296.052,1.22898
223.7000,-57.2755,295.69,1.2251
223.6000,-54.7457,297.006,1.23917
223.5000,-59.1382,297.27,1.24198
223.4000,-60.447,296.936,1.23842
223.3000,-55.2247,296.993,1.23902
223.2000,-54.9978,296.417,1.23288
223.1000,-57.5452,296.955,1.23863
223.0000,-60.5043,297.797,1.2476
222.9000,-57.3798,298.477,1.25482
222.8000,-56.7022,298.083,1.25063
222.7000,-55.9377,298.836,1.25864
222.6000,-57.9167,298.779,1.25803
222.5000,-58.0612,300.227,1.27336
222.4000,-51.9278,299.313,1.2637
222.3000,-56.1775,300.303,1.27417
222.2000,-57.9448,300.088,1.2719
222.1000,-57.5058,298.774,1.25798
222.0000,-59.2475,299.405,1.26467
221.9000,-55.496,300.653,1.27786
221.8000,-58.5935,299.43,1.26493
221.7000,-59.1271,301.232,1.28397
221.6000,-56.0325,299.976,1.27072
221.5000,-55.4727,301.185,1.28348
221.4000,-51.5129,300.305,1.27419
221.3000,-56.8543,302.182,1.29398
221.2000,-56.7397,302.883,1.30134
221.1000,-50.1501,302.245,1.29464
221.0000,-52.9867,302.743,1.29987
220.9000,-58.1128,302.127,1.2934
220.8000,-57.4623,303.379,1.30654
220.7000,-58.0519,303.213,1.30481
220.6000,-52.372,303.406,1.30683
220.5000,-59.3728,303.939,1.3124
220.4000,-56.9978,304.082,1.31391
220.3000,-52.5345,305.04,1.32391
220.2000,-56.8081,304.686,1.32022
220.1000,-59.0849,305.245,1.32605
220.0000,-54.0102,304.368,1.31689
219.9000,-53.9198,305.024,1.32374
219.8000,-54.2784,306.143,1.3354
219.7000,-58.0302,307.502,1.34951
219.6000,-55.1076,306.436,1.33844
219.5000,-57.3368,304.839,1.32182
219.4000,-57.6408,307.594,1.35046
219.3000,-50.9194,306.913,1.3434
219.2000,-57.6026,306.313,1.33717
219.1000,-58.2508,307.356,1.34799
219.0000,-58.5454,308.659,1.36148
218.9000,-57.7043,307.409,1.34855
218.8000,-54.6497,307.897,1.3536
218.7000,-57.7234,308.816,1.3631
218.6000,-54.8963,308.482,1.35965
218.5000,-58.1791,308.448,1.3593
218.4000,-51.5817,308.859,1.36355
218.3000,-57.7282,310.684,1.38234
218.2000,-62.6687,310.254,1.37792
218.1000,-55.6922,309.809,1.37334
218.0000,-57.5651,309.823,1.37348
217.9000,-57.0912,309.285,1.36794
217.8000,-58.1669,310.284,1.37823
217.7000,-55.0999,311.481,1.39052
217.6000,-54.8223,311.848,1.39428
217.5000,-54.0902,311.541,1.39114
217.4000,-54.5392,312.071,1.39656
217.3000,-59.1383,312.754,1.40355
217.2000,-52.6063,312.8,1.40402
217.1000,-58.8905,311.888,1.39469
217.0000,-54.2009,312.865,1.40468
216.9000,-59.0345,315.285,1.42932
216.8000,-60.709,313.406,1.41021
216.7000,-55.8272,314.333,1.41965
216.6000,-57.509,314.024,1.4165
216.5000,-57.2427,314.648,1.42285
216.4000,-55.3173,315.228,1.42875
216.3000,-53.3978,315.833,1.43488
216.2000,-55.065,316.581,1.44245
216.1000,-59.4934,315.904,1.43559
216.0000,-56.9965,316.084,1.43742
215.9000,-54.7572,316.811,1.44478
215.8000,-59.0296,316.878,1.44545
215.7000,-54.0472,317.617,1.45291
215.6000,-53.8641,317.823,1.45499
215.5000,-54.7104,317.623,1.45297
215.4000,-56.2879,317.551,1.45225
215.3000,-51.5335,318.321,1.46
215.2000,-54.4288,319.034,1.46718
215.1000,-59.2621,319.321,1.47006
215.0000,-53.2376,320.007,1.47694
214.9000,-52.2917,320.181,1.47869
214.8000,-59.0503,319.443,1.47129
214.7000,-52.8117,320.356,1.48044
214.6000,-56.9968,320.889,1.48578
214.5000,-55.3948,321.478,1.49166
214.4000,-57.156,321.469,1.49157
214.3000,-62.5095,321.548,1.49235
214.2000,-53.9433,322.388,1.50074
214.1000,-53.4524,321.669,1.49356
214.0000,-57.5969,322.766,1.50449
213.9000,-56.5953,322.87,1.50553
213.8000,-60.8093,323.867,1.51544
213.7000,-48.4166,323.656,1.51335
213.6000,-59.2917,324.146,1.5182
213.5000,-59.2626,324.625,1.52295
213.4000,-56.3726,324.668,1.52338
213.3000,-55.9852,325.993,1.53648
213.2000,-60.8979,325.402,1.53064
213.1000,-57.5705,325.913,1.53569
213.0000,-55.847,326.491,1.54139
212.9000,-51.5414,326.882,1.54524
212.8000,-48.0962,326.782,1.54426
212.7000,-53.9723,327.522,1.55154
212.6000,-62.7948,327.851,1.55477
212.5000,-57.8623,328.994,1.56598
212.4000,-55.0962,328.215,1.55834
212.3000,-48.6734,329.402,1.56998
212.2000,-57.7781,328.975,1.5658
212.1000,-51.4261,329.418,1.57013
212.0000,-53.8777,330.645,1.58212
211.9000,-61.9078,331.998,1.59529
211.8000,-57.7841,331.926,1.5946
211.7000,-50.5265,333.197,1.60693
211.6000,-54.3623,334.194,1.61658
211.5000,-47.0247,334.791,1.62234
211.4000,-57.7587,333.675,1.61156
211.3000,-52.7313,334.194,1.61658
211.2000,-50.8994,334.791,1.62234
211.1000,-57.4469,334.512,1.61965
211.0000,-65.3629,334.925,1.62363
210.9000,-58.9678,336.186,1.63578
210.8000,-63.214,336.626,1.64002
210.7000,-59.2525,337.477,1.64819
210.6000,-59.3169,338.903,1.66183
210.5000,-54.829,338.635,1.65927
210.4000,-60.0818,338.287,1.65595
210.3000,-57.868,339.411,1.66669
210.2000,-57.2006,340.132,1.67356
210.1000,-58.0777,339.042,1.66316
210.0000,-61.3545,340.935,1.6812
209.9000,-60.4108,341.552,1.68706
209.8000,-56.3814,340.973,1.68156
209.7000,-58.7433,342.177,1.69299
209.6000,-59.5401,343.143,1.70213
209.5000,-55.2612,344.42,1.71418
209.4000,-60.5757,345.019,1.71983
209.3000,-53.0174,345.158,1.72114
209.2000,-57.6796,346.526,1.73399
209.1000,-61.3978,347.03,1.73871
209.0000,-51.3462,347.157,1.7399
208.9000,-55.4766,347.683,1.74482
208.8000,-60.98,350.22,1.76847
208.7000,-55.107,350.448,1.77059
208.6000,-60.1185,348.669,1.75403
208.5000,-54.3431,351.896,1.78402
208.4000,-54.3225,351.351,1.77897
208.3000,-61.237,352.947,1.79374
208.2000,-54.7125,352.382,1.78851
208.1000,-55.6027,353.091,1.79507
208.0000,-57.2795,354.932,1.81203
207.9000,-59.3334,357.213,1.83294
207.8000,-50.4047,356.072,1.82249
207.7000,-54.291,357.524,1.83577
207.6000,-44.8604,358.525,1.84491
207.5000,-48.7859,359.377,1.85267
207.4000,-54.22,359.893,1.85736
207.3000,-55.8337,360.858,1.86612
207.2000,-57.615,361.255,1.86971
207.1000,-48.9027,362.645,1.88228
207.0000,-59.2941,362.71,1.88286
206.9000,-51.6238,364.235,1.89661
206.8000,-40.9779,366.317,1.91529
206.7000,-38.5667,365.138,1.90472
206.6000,-42.6123,366.545,1.91733
206.5000,-48.7112,368.589,1.93557
206.4000,-42.1092,369.484,1.94354
206.3000,-43.9408,369.686,1.94533
206.2000,-43.9386,370.835,1.95552
206.1000,-37.6821,372.175,1.96738
206.0000,-45.9217,373.245,1.97682
205.9000,-37.9589,375.99,2.00093
205.8000,-44.5142,373.723,1.98103
205.7000,-48.6786,377.228,2.01175
205.6000,-42.2639,377.783,2.0166
205.5000,-47.1977,378.27,2.02085
205.4000,-32.351,378.755,2.02507
205.3000,-44.744,380.434,2.03966
205.2000,-24.2865,383.046,2.06224
205.1000,-39.7165,384.099,2.07131
205.0000,-32.265,384.785,2.07721
204.9000,-33.4476,385.707,2.08512
204.8000,-38.9547,387.855,2.10349
204.7000,-30.9742,388.35,2.10771
204.6000,-25.6697,389.489,2.1174
204.5000,-27.1478,390.917,2.12953
204.4000,-23.5879,392.972,2.1469
204.3000,-29.5657,393.647,2.1526
204.2000,-37.4388,395.869,2.17128
204.1000,-26.5797,396.355,2.17535
204.0000,-29.3909,397.743,2.18696
203.9000,-19.2026,399.267,2.19967
203.8000,-21.8251,400.996,2.21404
203.7000,-14.3012,403.42,2.2341
203.6000,-23.267,404.743,2.24501
203.5000,-23.8177,405.75,2.25329
203.4000,-8.41006,407.303,2.26602
203.3000,-12.9684,408.3,2.27418
203.2000,-19.4043,409.34,2.28267
203.1000,-16.709,411.81,2.30276
203.0000,-17.8711,412.646,2.30954
202.9000,-6.40276,413.826,2.31908
202.8000,-7.39039,416.296,2.33899
202.7000,-4.37858,416.459,2.3403
202.6000,-14.966,418.351,2.35547
202.5000,-17.4614,420.649,2.37383
202.4000,12.8701,422.172,2.38595
202.3000,-11.0624,421.47,2.38037
202.2000,-12.3726,426.393,2.41934
202.1000,-8.53253,427.208,2.42576
202.0000,-8.11058,429.204,2.44142
201.9000,-4.40417,431.478,2.4592
201.8000,-4.97674,433.672,2.47628
201.7000,1.1893,435.617,2.49136
201.6000,0.893148,436.78,2.50035
201.5000,2.66174,439.363,2.52024
201.4000,6.05074,439.963,2.52485
201.3000,11.0999,441.895,2.53964
201.2000,2.90694,444.39,2.55867
201.1000,-4.81517,446.202,2.57243
201.0000,12.274,447.541,2.58257
200.9000,-4.09564,449.423,2.59678
200.8000,15.7306,451.079,2.60924
200.7000,5.22202,453.28,2.62575
200.6000,12.3868,455.494,2.64228
200.5000,17.9642,456.937,2.65301
200.4000,23.1251,460.777,2.68145
200.3000,17.2059,463.114,2.69866
200.2000,25.5744,463.355,2.70044
200.1000,10.2179,465.372,2.71522
200.0000,15.6113,467.905,2.73371
199.9000,24.6287,470.966,2.75595
199.8000,11.2545,472.185,2.76478
199.7000,11.1843,475.167,2.78627
199.6000,15.0626,477.002,2.79944
199.5000,28.7281,479.54,2.81759
199.4000,22.5126,480.373,2.82353
199.3000,15.2824,482.227,2.83672
199.2000,6.16577,484.972,2.85616
199.1000,7.32611,486.548,2.86729
199.0000,27.2227,487.764,2.87585
198.9000,7.36662,490.341,2.89393
198.8000,22.7418,492.482,2.90889
198.7000,27.7899,496.473,2.93664
198.6000,14.4641,498.87,2.95322
198.5000,20.6697,500.877,2.96704
198.4000,18.2711,503.216,2.98309
198.3000,25.2471,505.435,2.99827
198.2000,29.8111,508.925,3.02201
198.1000,11.8717,510.235,3.03089
198.0000,26.6099,512.114,3.04359
197.9000,27.2332,514.564,3.06009
197.8000,24.3154,517.254,3.07813
197.7000,24.1159,519.897,3.09578
197.6000,25.3983,520.765,3.10156
197.5000,17.6947,524.754,3.12802
197.4000,29.53,526.16,3.1373
197.3000,21.5767,527.911,3.14883
197.2000,18.7073,530.689,3.16707
197.1000,36.0401,533.105,3.18285
197.0000,36.5234,536.141,3.20261
196.9000,37.9808,537.578,3.21193
196.8000,17.4894,540.081,3.22811
196.7000,28.6604,543.756,3.25175
196.6000,18.5122,546.267,3.26782
196.5000,21.1895,548.836,3.28421
196.4000,31.3331,550.693,3.29601
196.3000,25.1855,553.873,3.31614
196.2000,20.9433,556.74,3.3342
196.1000,29.4702,559.307,3.35031
196.0000,18.6575,561.967,3.36694
195.9000,30.075,565.07,3.38624
195.8000,29.7478,566.165,3.39304
195.7000,24.3463,569.877,3.41598
195.6000,20.3762,572.327,3.43106
195.5000,35.6942,573.695,3.43945
195.4000,39.7591,575.041,3.44769
195.3000,20.6193,577.915,3.46524
195.2000,21.3745,579.222,3.47319
195.1000,20.1696,580.395,3.48031
195.0000,32.8138,583.855,3.50126
194.9000,19.5436,584.705,3.50638
194.8000,22.0452,586.805,3.51903
194.7000,15.0997,588.94,3.53185
194.6000,32.0247,591.247,3.54565
194.5000,25.0545,591.911,3.54962
194.4000,28.957,594.809,3.56688
194.3000,20.0175,597.658,3.58378
194.2000,29.8655,598.094,3.58636
194.1000,4.68443,600.972,3.60335
194.0000,39.0299,603.423,3.61776
193.9000,11.9797,605.903,3.6323
193.8000,21.1252,608.726,3.64878
193.7000,7.56525,610.143,3.65704
193.6000,33.4677,611.471,3.66475
193.5000,17.579,614.093,3.67995
193.4000,27.6819,615.896,3.69036
193.3000,29.3496,616.65,3.69471
193.2000,11.4113,618.36,3.70456
193.1000,21.5363,621.088,3.72021
193.0000,39.2903,622.43,3.7279
192.9000,31.46,624.037,3.73707
192.8000,23.0855,625.548,3.74569
192.7000,32.6816,628.978,3.76517
192.6000,26.1527,631.253,3.77805
192.5000,11.1944,632.791,3.78673
192.4000,20.1967,634.888,3.79854
192.3000,25.2531,637.091,3.8109
192.2000,29.1822,638.513,3.81887
192.1000,10.7779,640.414,3.82949
192.0000,28.8233,642.457,3.84088
191.9000,12.0704,642.708,3.84227
191.8000,15.8665,645.915,3.86009
191.7000,25.803,647.593,3.86937
191.6000,33.4324,650.223,3.88389
191.5000,27.106,651.271,3.88966
191.4000,9.41807,652.52,3.89652
191.3000,20.9255,655.252,3.9115
191.2000,3.58729,656.551,3.91861
191.1000,10.5394,659.827,3.93647
191.0000,9.60514,663.113,3.95431
190.9000,12.4915,664.947,3.96424
190.8000,12.2386,667.676,3.97896
190.7000,14.2736,671.448,3.99923
190.6000,15.5623,673.549,4.01048
190.5000,14.2042,675.075,4.01863
190.4000,12.8019,678.499,4.03686
190.3000,13.625,677.647,4.03233
190.2000,12.389,679.672,4.04309
190.1000,4.52249,682.528,4.05821
190.0000,18.0615,684.089,4.06646

##### Extended Information
[Comments]
Sample name,Protein+Additive_AMSS
Comment
User,ScharfMinor
Division
Company,Saint Mary's College

[Detailed Information]
Creation date,9/27/2022 2:50 PM

Data array type,Linear data array * 3
Horizontal axis,Wavelength [nm]
Vertical axis(1),CD [mdeg]
Vertical axis(2),HT [V]
Vertical axis(3),Abs
Start,320 nm
End,190 nm
Data interval,0.1 nm
Data points,1301    

[Measurement Information]
Instrument name,J-1500
Model name,J-1500
Serial No.,B051061638

Detector,PM-539
Detector S/N,B051061638
  Lock-in amp.,X mode
  HT volt,Auto

Accessory,PTC-517
Accessory S/N,B026561646
  Temperature,22.20 C
  Control sensor,Holder
  Monitor sensor,Holder

Measurement date,9/27/2022 2:50 PM

CD Overload detect,873
Photometric mode,CD, HT, Abs
Measure range,320 - 190 nm
Data pitch,0.1 nm
CD scale,20 mdeg/0.05 dOD
FL scale,20 mdeg/0.05 dOD
D.I.T.,8 msec
Bandwidth,1.00 nm
Start mode,Immediately
Scanning mode,Continuous
Scanning speed,50 nm/min
Baseline correction,None
Shutter control,Auto
No. of cycle,1/1
N2 Flowmeter,Manual

Solvent,NaPO4 buffer

