TITLE,Sample_JH_CW
DATA TYPE,
ORIGIN,JASCO
OWNER,
DATE,22/09/27
TIME,15:51:47
SPECTROMETER/DATA SYSTEM,
LOCALE,1033
RESOLUTION,
DELTAX,-0.1
XUNITS,NANOMETERS
YUNITS,CD [mdeg]
Y2UNITS,HT [V]
Y3UNITS,ABSORBANCE
FIRSTX,  320.0000
LASTX,  190.0000
NPOINTS,    1301
FIRSTY,     0.96153
MAXY,    23.78934
MINY,   -56.33782
XYDATA
320.0000,0.961532,206.053,0.116204
319.9000,0.530523,206.567,0.123623
319.8000,1.02451,206.556,0.12346
319.7000,0.533708,206.704,0.125598
319.6000,1.72877,206.208,0.118444
319.5000,1.90187,206.49,0.122513
319.4000,2.86303,206.47,0.122219
319.3000,1.60418,207.328,0.13456
319.2000,-0.284173,206.553,0.123411
319.1000,1.49534,206.427,0.121598
319.0000,0.936192,206.338,0.120324
318.9000,1.77169,206.337,0.120308
318.8000,1.86286,205.776,0.112211
318.7000,2.2537,206.069,0.116433
318.6000,1.08105,207.594,0.138383
318.5000,1.89214,206.88,0.128126
318.4000,0.541642,205.11,0.102569
318.3000,0.152204,206.392,0.121092
318.2000,0.873762,206.752,0.126283
318.1000,0.789462,205.444,0.107409
318.0000,1.13442,206.059,0.116286
317.9000,3.68037,205.993,0.115337
317.8000,1.90397,204.795,0.0980014
317.7000,2.43733,205.98,0.115157
317.6000,1.60033,206.337,0.120308
317.5000,2.5834,206.526,0.123035
317.4000,2.37622,206.355,0.120569
317.3000,1.47545,205.823,0.112882
317.2000,1.40971,206.124,0.117234
317.1000,0.808083,206.628,0.124504
317.0000,1.24485,205.893,0.113897
316.9000,1.9212,206.445,0.121859
316.8000,-0.549269,205.886,0.113799
316.7000,0.266358,206.557,0.123476
316.6000,1.29731,205.614,0.109868
316.5000,0.202323,205.323,0.105654
316.4000,1.10152,206.613,0.124276
316.3000,0.823216,206.634,0.124586
316.2000,0.870574,206.2,0.11833
316.1000,1.75002,205.859,0.113406
316.0000,1.80806,206.487,0.122464
315.9000,1.74019,205.636,0.110179
315.8000,0.160877,204.506,0.0938067
315.7000,0.672681,205.649,0.110376
315.6000,1.9322,206.091,0.11676
315.5000,-0.354248,206.5,0.12266
315.4000,1.14197,205.269,0.104867
315.3000,0.961979,205.886,0.113799
315.2000,1.91015,207.062,0.13075
315.1000,0.930186,206.022,0.115762
315.0000,-0.149378,204.864,0.0990041
314.9000,2.1189,205.924,0.114339
314.8000,0.724414,205.417,0.107016
314.7000,2.36701,204.975,0.100615
314.6000,1.19187,206.94,0.128989
314.5000,0.220212,206.412,0.121386
314.4000,1.52605,206.589,0.123933
314.3000,0.959436,205.693,0.110999
314.2000,1.20187,206.02,0.11573
314.1000,2.26775,205.953,0.114764
314.0000,1.78689,205.727,0.11149
313.9000,2.37268,205.321,0.105622
313.8000,0.94133,206.487,0.122464
313.7000,1.5157,205.11,0.102569
313.6000,0.10758,204.216,0.0895907
313.5000,0.936405,205.586,0.109458
313.4000,1.53986,205.636,0.110179
313.3000,0.803434,206.643,0.124716
313.2000,1.28721,204.812,0.098248
313.1000,1.51206,206.26,0.119196
313.0000,1.2365,205.984,0.115206
312.9000,-0.0760097,205.559,0.109065
312.8000,0.218302,205.263,0.104785
312.7000,0.674422,205.374,0.106393
312.6000,2.02788,205.789,0.112391
312.5000,2.81889,205.295,0.105244
312.4000,3.49585,206.112,0.117055
312.3000,0.719798,206.206,0.118412
312.2000,-0.216254,206.065,0.116384
312.1000,0.793321,205.981,0.115173
312.0000,0.934406,205.899,0.113979
311.9000,0.258662,206.317,0.120013
311.8000,-0.791008,205.046,0.101633
311.7000,0.551799,205.889,0.113832
311.6000,0.241196,205.025,0.101337
311.5000,-0.406732,206.413,0.121402
311.4000,0.606923,205.804,0.112604
311.3000,1.25566,205.804,0.112604
311.2000,1.60735,205.477,0.107885
311.1000,0.792555,206.313,0.119965
311.0000,1.95437,205.277,0.104982
310.9000,-0.987789,205.833,0.113029
310.8000,1.57042,204.588,0.0949915
310.7000,1.15753,205.724,0.111457
310.6000,2.28492,205.985,0.115223
310.5000,0.156659,205.771,0.112129
310.4000,0.134728,206.232,0.118788
310.3000,0.237477,206.614,0.124292
310.2000,2.17479,206.29,0.119621
310.1000,2.0969,207.283,0.133925
310.0000,1.09873,206.809,0.127098
309.9000,0.954237,207.536,0.137553
309.8000,0.655716,206.08,0.116597
309.7000,1.9929,205.202,0.103899
309.6000,1.14539,205.322,0.105638
309.5000,2.10933,205.327,0.105704
309.4000,1.71323,205.873,0.113602
309.3000,1.15238,206.325,0.120128
309.2000,2.20487,205.853,0.113324
309.1000,1.1989,205.264,0.104801
309.0000,1.72853,205.749,0.111818
308.9000,0.95491,205.89,0.113848
308.8000,1.57583,205.391,0.106639
308.7000,1.46296,205.921,0.114306
308.6000,1.28824,206.546,0.123313
308.5000,-0.138476,206.225,0.11869
308.4000,1.61731,205.609,0.109786
308.3000,0.587288,206.384,0.120977
308.2000,1.65334,205.678,0.110786
308.1000,-0.157091,205.51,0.10836
308.0000,1.13259,206.592,0.123982
307.9000,1.34602,205.013,0.101156
307.8000,0.124609,206.157,0.117709
307.7000,1.33665,205.988,0.115272
307.6000,1.71742,205.246,0.104539
307.5000,2.54125,204.737,0.0971629
307.4000,0.607049,204.507,0.0938231
307.3000,-0.407146,204.711,0.0967846
307.2000,1.19809,205.486,0.108016
307.1000,2.38902,206.513,0.122839
307.0000,2.22084,205.761,0.111981
306.9000,2.44643,205.219,0.104145
306.8000,1.70157,205.84,0.113128
306.7000,0.0826999,205.07,0.101994
306.6000,0.110097,206.23,0.118755
306.5000,0.226526,206.773,0.126593
306.4000,0.493909,205.098,0.102388
306.3000,0.887086,205.023,0.101304
306.2000,2.25092,205.405,0.106835
306.1000,0.808107,205.673,0.11072
306.0000,0.111343,206.877,0.128077
305.9000,1.62804,204.956,0.100335
305.8000,0.245103,205.325,0.105687
305.7000,0.0898855,205.612,0.109835
305.6000,2.05849,206.139,0.117447
305.5000,0.976332,205.001,0.100992
305.4000,-0.932768,206.245,0.118984
305.3000,1.67138,205.174,0.103488
305.2000,1.22611,206.301,0.119785
305.1000,0.844483,205.307,0.105425
305.0000,-0.855724,204.25,0.0900851
304.9000,1.1972,206.546,0.123313
304.8000,1.29547,203.273,0.0758543
304.7000,1.38374,204.821,0.0983793
304.6000,0.402139,204.778,0.0977548
304.5000,0.391653,205.321,0.105622
304.4000,1.19568,205.306,0.105408
304.3000,1.24304,205.436,0.107295
304.2000,0.792316,205.944,0.114634
304.1000,-0.222998,205.739,0.11167
304.0000,1.36794,205.534,0.108704
303.9000,1.48067,205.498,0.10818
303.8000,0.135515,204.929,0.0999407
303.7000,0.16394,205.236,0.104391
303.6000,1.21073,205.611,0.109819
303.5000,1.23151,205.363,0.106229
303.4000,1.53056,205.005,0.101042
303.3000,0.924437,205.168,0.103406
303.2000,0.636304,205.33,0.105753
303.1000,1.14757,205.31,0.105458
303.0000,-0.34229,205.913,0.114192
302.9000,-0.249008,206.37,0.120781
302.8000,1.57748,205.065,0.101912
302.7000,1.34265,205.441,0.10736
302.6000,0.0585792,204.932,0.0999901
302.5000,0.610339,205.08,0.102126
302.4000,1.36141,206.108,0.117006
302.3000,0.655413,206.038,0.115991
302.2000,0.79709,206.221,0.118624
302.1000,0.116513,204.323,0.0911391
302.0000,3.34333,204.461,0.0931483
301.9000,0.939274,204.771,0.0976562
301.8000,-0.805603,205.363,0.106229
301.7000,0.178233,203.895,0.0849242
301.6000,1.40433,205.729,0.111523
301.5000,-0.249384,205.002,0.101009
301.4000,2.29994,204.68,0.0963239
301.3000,-0.472333,204.078,0.0875796
301.2000,1.02355,205.849,0.113259
301.1000,0.197553,205.148,0.103111
301.0000,1.74226,204.601,0.0951891
300.9000,1.46232,204.071,0.0874807
300.8000,0.124738,205.493,0.108114
300.7000,1.35704,206.088,0.116711
300.6000,0.263245,205.938,0.114552
300.5000,1.77865,205.287,0.10513
300.4000,1.48486,206.991,0.129723
300.3000,1.46522,206.208,0.118444
300.2000,3.22229,206.727,0.125924
300.1000,2.65438,203.936,0.0855181
300.0000,2.28198,206.759,0.126381
299.9000,0.830204,206.292,0.119654
299.8000,0.724551,206.222,0.118641
299.7000,1.77067,205.882,0.113733
299.6000,2.23316,204.854,0.0988561
299.5000,0.926918,205.308,0.105441
299.4000,1.33608,205.851,0.113291
299.3000,-0.351231,204.723,0.096949
299.2000,0.160474,205.838,0.113095
299.1000,0.929669,204.591,0.095041
299.0000,0.0711143,205.981,0.115173
298.9000,0.0447572,205.175,0.103505
298.8000,0.0324558,203.869,0.0845445
298.7000,1.53133,205.104,0.102487
298.6000,1.68944,204.051,0.0871838
298.5000,1.21101,206.472,0.122252
298.4000,1.13876,204.263,0.0902662
298.3000,0.518456,204.305,0.0908757
298.2000,-0.0445416,206.431,0.121664
298.1000,0.26419,204.656,0.0959786
298.0000,-0.691768,205.321,0.105622
297.9000,-0.105273,204.324,0.0911559
297.8000,0.428773,205.27,0.104883
297.7000,1.02311,204.933,0.100006
297.6000,1.29391,205.649,0.110376
297.5000,0.736103,204.803,0.0981164
297.4000,1.06262,205.894,0.113913
297.3000,1.13107,205.022,0.101288
297.2000,1.87077,204.55,0.0944487
297.1000,0.852366,206.131,0.117333
297.0000,2.55773,204.456,0.0930824
296.9000,0.794192,205.126,0.102799
296.8000,0.0911246,205.058,0.101813
296.7000,0.317949,205.12,0.102717
296.6000,0.190999,204.765,0.0975573
296.5000,1.50392,204.71,0.0967682
296.4000,1.78251,206.306,0.11985
296.3000,1.01047,205.804,0.112604
296.2000,0.875111,204.109,0.0880249
296.1000,2.13825,204.312,0.0909912
296.0000,0.724586,204.959,0.100384
295.9000,-0.698489,205.29,0.105179
295.8000,1.59348,205.902,0.114028
295.7000,1.23892,205.96,0.114862
295.6000,0.528964,206.37,0.120781
295.5000,1.0878,205.802,0.112587
295.4000,0.493417,206.272,0.11936
295.3000,0.270817,204.181,0.0890796
295.2000,1.22353,205.499,0.108196
295.1000,0.344213,204.71,0.0967682
295.0000,-0.0588611,205.818,0.112816
294.9000,0.250806,205.312,0.10549
294.8000,1.67252,203.966,0.0859469
294.7000,0.322255,205.497,0.108164
294.6000,1.28113,204.725,0.0969818
294.5000,1.85014,204.721,0.0969327
294.4000,0.989412,204.767,0.0975904
294.3000,0.866764,205.031,0.101419
294.2000,-0.420838,205.1,0.102421
294.1000,0.0106683,204.331,0.0912546
294.0000,0.11957,205.519,0.108492
293.9000,2.28168,204.411,0.0924238
293.8000,0.600755,204.869,0.0990699
293.7000,-0.129355,204.757,0.0974424
293.6000,0.843253,203.791,0.083406
293.5000,2.11039,204.728,0.0970313
293.4000,1.03503,204.99,0.100828
293.3000,-0.185697,205.029,0.101386
293.2000,1.19573,205.447,0.107442
293.1000,0.883031,203.536,0.0796901
293.0000,-0.351155,204.759,0.0974751
292.9000,1.77696,205.739,0.11167
292.8000,1.51201,205.187,0.103685
292.7000,1.52152,205.516,0.108442
292.6000,0.731584,205.251,0.104604
292.5000,0.138802,204.647,0.0958472
292.4000,1.30226,204.38,0.0919793
292.3000,0.54291,205.817,0.1128
292.2000,0.379834,205.092,0.102306
292.1000,0.0422389,205.295,0.105244
292.0000,1.25378,204.929,0.0999407
291.9000,1.93292,204.691,0.0964884
291.8000,1.11956,204.622,0.0954851
291.7000,1.53571,205.085,0.102208
291.6000,0.716304,205.26,0.104736
291.5000,2.69473,205.172,0.103472
291.4000,0.714104,205.266,0.104834
291.3000,0.74825,205.328,0.10572
291.2000,0.160132,204.94,0.100105
291.1000,0.0367314,204.331,0.0912546
291.0000,1.39816,204.978,0.100647
290.9000,-0.0367427,204.546,0.0943828
290.8000,-0.73385,205.006,0.101058
290.7000,1.97481,204.071,0.0874807
290.6000,1.06876,204.295,0.0907441
290.5000,0.464863,204.332,0.091271
290.4000,0.197969,204.531,0.0941687
290.3000,1.09947,205.148,0.103111
290.2000,-0.112215,205.149,0.103127
290.1000,0.560243,204.581,0.0948928
290.0000,1.88808,205.567,0.10918
289.9000,-0.068997,205.039,0.101534
289.8000,2.73013,203.714,0.0822832
289.7000,0.940531,205.946,0.114666
289.6000,1.45167,204.644,0.0958141
289.5000,0.752719,205.363,0.106229
289.4000,-1.55183,205.37,0.106327
289.3000,1.54979,205.406,0.106852
289.2000,2.0202,205.538,0.10877
289.1000,1.55496,205.436,0.107295
289.0000,2.44747,204.855,0.0988725
288.9000,0.0430007,204.376,0.0919134
288.8000,1.46045,205.687,0.110917
288.7000,1.36126,204.717,0.0968668
288.6000,-0.176811,204.426,0.092638
288.5000,0.290874,204.494,0.0936257
288.4000,0.0743703,204.49,0.0935762
288.3000,2.0166,204.427,0.0926544
288.2000,1.65041,206.673,0.125141
288.1000,-0.493666,206.582,0.123835
288.0000,1.9003,204.845,0.0987248
287.9000,2.70451,204.863,0.0989877
287.8000,0.720698,205.114,0.102618
287.7000,-0.19373,204.754,0.0974096
287.6000,-2.07058,204.616,0.0954028
287.5000,2.25175,205.779,0.112243
287.4000,-0.464066,204.227,0.0897555
287.3000,2.79975,204.946,0.100187
287.2000,2.38313,205.768,0.112096
287.1000,0.0388483,205.259,0.104719
287.0000,2.04319,205.507,0.108311
286.9000,1.47888,204.799,0.0980506
286.8000,0.460332,205.389,0.106606
286.7000,-0.233826,205.418,0.107032
286.6000,-0.787505,205.532,0.108672
286.5000,0.518927,205.649,0.110376
286.4000,0.276499,205.767,0.11208
286.3000,1.91779,204.999,0.100959
286.2000,0.789953,205.144,0.103061
286.1000,0.738932,205.592,0.10954
286.0000,0.436859,205.817,0.1128
285.9000,1.75861,205.123,0.10275
285.8000,3.06844,205.559,0.109065
285.7000,-0.313942,205.361,0.106196
285.6000,1.54017,205.322,0.105638
285.5000,2.43286,205.186,0.103669
285.4000,3.17943,204.794,0.0979851
285.3000,1.34127,205.465,0.107705
285.2000,0.234274,205.604,0.109721
285.1000,0.20229,205.842,0.11316
285.0000,0.103523,205.601,0.109672
284.9000,0.418149,205.364,0.106245
284.8000,1.22707,206.095,0.116809
284.7000,1.39887,205.032,0.101436
284.6000,2.02922,205.286,0.105113
284.5000,-0.461209,205.279,0.105014
284.4000,0.955548,204.905,0.0995957
284.3000,0.395542,205.408,0.106885
284.2000,0.319806,205.856,0.113357
284.1000,-0.0688833,205.297,0.105277
284.0000,-0.445117,205.627,0.110049
283.9000,0.959687,205.487,0.108032
283.8000,2.21287,205.816,0.112784
283.7000,-1.85161,205.219,0.104145
283.6000,0.826155,205.618,0.109917
283.5000,0.756958,206.213,0.11851
283.4000,1.85993,205.427,0.107163
283.3000,2.41066,205.311,0.105474
283.2000,0.349735,205.987,0.115255
283.1000,0.686952,206.477,0.122317
283.0000,1.11737,205.901,0.114012
282.9000,0.394159,204.942,0.100138
282.8000,0.183509,205.771,0.112129
282.7000,0.846331,205.713,0.111294
282.6000,1.31608,205.229,0.104292
282.5000,1.17366,205.766,0.112063
282.4000,0.544847,206.088,0.116711
282.3000,0.544778,205.972,0.115043
282.2000,0.920283,205.571,0.109246
282.1000,1.52114,205.913,0.114192
282.0000,0.482134,204.581,0.0948928
281.9000,2.37101,205.214,0.104079
281.8000,-0.122783,205.354,0.106097
281.7000,-0.296957,205.81,0.112702
281.6000,0.300442,205.246,0.104539
281.5000,0.679006,206.093,0.116777
281.4000,1.76993,205.376,0.106425
281.3000,2.09798,205.189,0.103718
281.2000,1.97851,205.555,0.109016
281.1000,1.89992,205.727,0.11149
281.0000,1.14105,205.531,0.108656
280.9000,0.62568,205.781,0.112276
280.8000,0.0717494,205.686,0.1109
280.7000,0.108851,205.703,0.111146
280.6000,1.27082,205.171,0.103455
280.5000,0.826358,204.657,0.095995
280.4000,-0.15099,205.378,0.106442
280.3000,0.2888,206.534,0.12315
280.2000,0.543333,206.222,0.118641
280.1000,-0.419898,205.16,0.103291
280.0000,1.81741,204.733,0.0970971
279.9000,-0.154308,206.713,0.125728
279.8000,0.376386,205.187,0.103685
279.7000,0.483599,205.355,0.106114
279.6000,1.73291,205.509,0.108344
279.5000,0.725295,205.553,0.108983
279.4000,2.69384,205.542,0.108819
279.3000,0.0800799,205.716,0.111343
279.2000,2.16778,206.039,0.116008
279.1000,-1.90762,205.112,0.102602
279.0000,1.17848,205.364,0.106245
278.9000,0.836758,205.416,0.106999
278.8000,0.596602,205.779,0.112243
278.7000,1.42269,205.166,0.103373
278.6000,-0.154402,205.923,0.114323
278.5000,-1.20963,205.268,0.10485
278.4000,1.51394,205.465,0.107705
278.3000,0.382882,205.682,0.110851
278.2000,1.16331,205.468,0.107754
278.1000,2.40592,205.756,0.111916
278.0000,-1.0267,205.86,0.113422
277.9000,-0.0360676,206.299,0.119752
277.8000,-0.00712608,205.485,0.108
277.7000,0.282123,205.998,0.115419
277.6000,2.04091,205.87,0.11357
277.5000,1.16515,205.792,0.11244
277.4000,2.01977,206.645,0.124749
277.3000,-0.354523,206.829,0.127392
277.2000,0.0582642,205.808,0.112669
277.1000,2.03457,206.123,0.117218
277.0000,2.83553,206.234,0.118821
276.9000,0.940948,205.273,0.104932
276.8000,1.54822,205.115,0.102634
276.7000,0.335446,207.037,0.130391
276.6000,0.462061,205.711,0.111261
276.5000,1.94166,204.758,0.0974587
276.4000,1.01324,205.264,0.104801
276.3000,-0.408782,206.049,0.116155
276.2000,-0.832717,205.356,0.10613
276.1000,0.442376,205.303,0.105359
276.0000,0.172451,205.758,0.111949
275.9000,-0.459437,205.797,0.112506
275.8000,0.919087,206.234,0.118821
275.7000,0.759292,206.171,0.117905
275.6000,-0.802182,206.013,0.115632
275.5000,0.141354,206.241,0.118919
275.4000,0.793164,205.255,0.10467
275.3000,1.26847,205.64,0.110245
275.2000,1.48397,206.045,0.11609
275.1000,1.34359,204.555,0.0945142
275.0000,0.643254,205.495,0.108147
274.9000,1.53356,206.113,0.117071
274.8000,0.780378,205.459,0.107623
274.7000,0.778824,205.822,0.112866
274.6000,0.243803,205.975,0.115075
274.5000,-1.0339,206.607,0.124194
274.4000,0.912369,205.839,0.113111
274.3000,0.518723,205.813,0.112735
274.2000,0.755762,204.578,0.0948433
274.1000,1.1554,206.054,0.116221
274.0000,-0.231259,205.717,0.111359
273.9000,0.707929,206.078,0.116564
273.8000,0.634981,205.648,0.11036
273.7000,1.59534,205.614,0.109868
273.6000,0.338179,206.359,0.120618
273.5000,0.170136,206.231,0.118771
273.4000,1.05463,205.851,0.113291
273.3000,0.616355,205.193,0.103767
273.2000,1.55388,206.542,0.123264
273.1000,-0.973149,207.359,0.135015
273.0000,-0.784654,206.251,0.119066
272.9000,0.425625,205.604,0.109721
272.8000,1.8969,205.583,0.109409
272.7000,-0.188349,206.248,0.119017
272.6000,-0.0258007,206.057,0.11627
272.5000,1.31128,205.08,0.102126
272.4000,0.652409,205.199,0.103849
272.3000,1.25842,207.033,0.130326
272.2000,-0.13442,205.836,0.113079
272.1000,1.66532,204.765,0.0975573
272.0000,1.5161,205.867,0.11352
271.9000,1.48045,205.732,0.111572
271.8000,0.58968,204.984,0.100746
271.7000,0.573696,206.464,0.122137
271.6000,3.2505,205.55,0.108934
271.5000,0.306252,205.347,0.105999
271.4000,0.73775,206.8,0.126968
271.3000,0.607208,206.496,0.122594
271.2000,0.00929584,205.288,0.105146
271.1000,0.706177,205.894,0.113913
271.0000,1.12793,205.248,0.104572
270.9000,-0.394325,206.234,0.118821
270.8000,1.55031,206.962,0.129299
270.7000,0.426949,205.758,0.111949
270.6000,1.16141,205.029,0.101386
270.5000,-0.335983,205.736,0.111621
270.4000,-1.81038,206.622,0.124406
270.3000,0.42477,206.202,0.118363
270.2000,0.218142,206.332,0.120226
270.1000,0.951706,206.062,0.116335
270.0000,0.313286,205.295,0.105244
269.9000,-0.363306,206.351,0.120504
269.8000,1.19384,207.352,0.134918
269.7000,1.11635,205.825,0.112915
269.6000,0.938931,206.136,0.117398
269.5000,0.827079,207.695,0.139829
269.4000,0.409722,205.909,0.114126
269.3000,1.48348,206.187,0.118134
269.2000,0.469219,207.807,0.141438
269.1000,1.02743,206.802,0.127
269.0000,1.44647,206.502,0.122676
268.9000,2.0792,206.479,0.122349
268.8000,0.0815947,206.929,0.128826
268.7000,1.067,206.72,0.125826
268.6000,0.89403,206.02,0.11573
268.5000,2.12357,206.36,0.120634
268.4000,0.549561,206.397,0.121174
268.3000,-0.327493,206.914,0.128615
268.2000,1.63072,206.792,0.126854
268.1000,-1.74218,206.976,0.129511
268.0000,0.332674,206.633,0.12457
267.9000,0.371509,206.72,0.125826
267.8000,0.920989,206.801,0.126984
267.7000,0.43013,206.709,0.125663
267.6000,0.503022,206.592,0.123982
267.5000,1.02657,206.734,0.126022
267.4000,1.3794,205.553,0.108983
267.3000,-0.460397,206.878,0.128093
267.2000,0.0705387,205.975,0.115075
267.1000,1.20184,207.962,0.143663
267.0000,-0.55724,206.281,0.119491
266.9000,0.697414,207.11,0.131434
266.8000,-0.288969,205.941,0.114584
266.7000,0.239172,206.605,0.124162
266.6000,1.18432,207.91,0.142916
266.5000,0.643437,206.497,0.122611
266.4000,0.0045575,206.138,0.117431
266.3000,1.01859,207.669,0.139455
266.2000,1.22505,206.777,0.126642
266.1000,-0.196147,207.127,0.131678
266.0000,0.991199,206.786,0.126772
265.9000,0.909393,206.797,0.126935
265.8000,-1.1413,206.775,0.126609
265.7000,-1.04578,206.819,0.127245
265.6000,-0.138689,207.613,0.138659
265.5000,2.19316,206.334,0.120258
265.4000,0.813989,206.456,0.122023
265.3000,-0.715108,207.031,0.130293
265.2000,0.341331,207.277,0.133828
265.1000,0.0680785,207.504,0.137098
265.0000,-0.0790735,207.013,0.130033
264.9000,0.366035,207.324,0.134511
264.8000,-1.92964,206.738,0.126087
264.7000,2.71188,206.696,0.125483
264.6000,0.921956,207.884,0.142542
264.5000,0.0807866,207.263,0.133632
264.4000,0.370115,207.512,0.137212
264.3000,0.536493,207.252,0.133469
264.2000,0.302059,207.56,0.137895
264.1000,0.634574,208.45,0.150653
264.0000,0.518899,207.718,0.140171
263.9000,-0.0724487,207.43,0.136024
263.8000,1.26694,206.707,0.12563
263.7000,-0.392023,207.95,0.143484
263.6000,-0.496938,206.555,0.123443
263.5000,-0.650697,207.534,0.137521
263.4000,0.826761,207.803,0.141389
263.3000,0.878038,207.201,0.132737
263.2000,0.922183,208.765,0.155154
263.1000,-0.664505,206.176,0.117987
263.0000,1.34562,207.515,0.137244
262.9000,0.425293,207.345,0.134804
262.8000,1.0513,206.76,0.126397
262.7000,1.18625,208.046,0.144864
262.6000,0.290371,207.623,0.138805
262.5000,1.95348,208.115,0.145853
262.4000,1.9845,208.498,0.151333
262.3000,2.55965,206.584,0.123868
262.2000,0.0636531,207.417,0.135846
262.1000,1.68683,208.54,0.151932
262.0000,0.523664,207.481,0.136756
261.9000,0.269776,208.751,0.154944
261.8000,-1.09915,206.967,0.129381
261.7000,0.161803,208.637,0.153325
261.6000,0.558343,207.134,0.131776
261.5000,1.22982,208.465,0.150863
261.4000,-0.286594,208.217,0.147313
261.3000,-1.19014,207.26,0.133583
261.2000,-0.0722321,208.967,0.158034
261.1000,0.185505,207.967,0.143728
261.0000,2.37577,208.341,0.149081
260.9000,0.269984,209.359,0.163624
260.8000,0.306053,208.324,0.148838
260.7000,0.0239725,208.074,0.145269
260.6000,-0.397385,208.496,0.151301
260.5000,0.150945,208.463,0.150831
260.4000,0.953493,207.81,0.141486
260.3000,1.71108,208.394,0.149842
260.2000,-1.2746,208.581,0.152515
260.1000,1.60873,208.231,0.147508
260.0000,0.482965,208.873,0.156691
259.9000,-0.58597,208.006,0.144296
259.8000,0.551853,209.616,0.167287
259.7000,0.268893,208.387,0.149745
259.6000,-0.416013,209.128,0.160329
259.5000,-0.385537,209.025,0.158858
259.4000,-0.483931,208.844,0.156271
259.3000,-1.76162,207.99,0.144068
259.2000,-0.409692,208.26,0.147929
259.1000,0.622079,208.891,0.15695
259.0000,0.0458939,208.757,0.155041
258.9000,1.0548,209.034,0.158987
258.8000,0.916461,208.793,0.155542
258.7000,-1.04089,208.461,0.150798
258.6000,-0.332196,209.266,0.1623
258.5000,1.63528,208.556,0.152159
258.4000,1.29469,209.816,0.170125
258.3000,-0.338896,209.696,0.168416
258.2000,-0.706915,208.863,0.156546
258.1000,0.098802,209.143,0.160539
258.0000,0.941907,208.03,0.144636
257.9000,-0.158432,208.918,0.157338
257.8000,1.77942,209.06,0.159359
257.7000,0.176329,209.293,0.162688
257.6000,1.36664,208.769,0.155203
257.5000,1.1549,208.456,0.150734
257.4000,-0.241002,209.012,0.15868
257.3000,0.608515,208.887,0.156885
257.2000,1.99912,209.493,0.165529
257.1000,0.407059,209.528,0.166029
257.0000,0.159083,209.205,0.161428
256.9000,-1.80992,209.755,0.169254
256.8000,-1.28614,209.51,0.165771
256.7000,1.24957,209.824,0.170237
256.6000,0.197318,209.18,0.161072
256.5000,-1.23637,209.935,0.171816
256.4000,-0.0165137,209.568,0.166593
256.3000,1.77072,209.93,0.171752
256.2000,-0.172626,209.291,0.162655
256.1000,-1.01335,209.45,0.164915
256.0000,1.11194,210.415,0.17864
255.9000,-0.665145,209.646,0.167706
255.8000,1.28752,209.181,0.161088
255.7000,-0.835402,211.226,0.190134
255.6000,-0.874073,209.826,0.17027
255.5000,0.441684,209.415,0.164415
255.4000,1.13581,209.317,0.163027
255.3000,0.675502,210.376,0.178077
255.2000,0.744144,209.285,0.162574
255.1000,1.15037,209.56,0.166481
255.0000,2.08658,210.071,0.173749
254.9000,1.0081,209.71,0.168625
254.8000,0.341045,209.868,0.170866
254.7000,0.568375,210.426,0.178801
254.6000,-0.585969,210.796,0.184038
254.5000,1.12077,210.264,0.176501
254.4000,0.257549,211.094,0.188258
254.3000,1.28908,210.172,0.175182
254.2000,-0.165834,210.032,0.173201
254.1000,0.0333945,210.604,0.181324
254.0000,0.396993,210.681,0.182416
253.9000,-0.650832,210.814,0.184295
253.8000,1.01354,210.327,0.177386
253.7000,-0.588246,210.196,0.175536
253.6000,-0.427857,209.678,0.168158
253.5000,1.02389,210.556,0.180633
253.4000,0.395255,209.546,0.166287
253.3000,0.688971,211.121,0.188643
253.2000,0.332185,211.188,0.189589
253.1000,-1.15421,210.204,0.175648
253.0000,-0.0685315,210.99,0.186782
252.9000,0.988119,210.851,0.184825
252.8000,2.13753,210.655,0.182047
252.7000,1.28079,210.783,0.183862
252.6000,-0.63868,210.838,0.184632
252.5000,0.384193,210.286,0.176807
252.4000,1.07412,211.144,0.188963
252.3000,-0.722913,210.816,0.184327
252.2000,0.247647,210.967,0.186462
252.1000,-0.726205,211.067,0.187873
252.0000,-0.586922,211.041,0.187504
251.9000,0.663766,211.233,0.19023
251.8000,1.36914,211.581,0.195147
251.7000,-0.286617,211.144,0.188963
251.6000,0.98644,210.913,0.185692
251.5000,0.202413,210.804,0.184151
251.4000,1.0193,210.975,0.186574
251.3000,-0.609156,212.237,0.204402
251.2000,0.979168,211.272,0.190775
251.1000,-1.39305,211.059,0.187761
251.0000,0.0834089,211.088,0.188178
250.9000,1.17614,211.965,0.200569
250.8000,0.934056,210.93,0.185932
250.7000,0.729606,212.386,0.206493
250.6000,-1.77473,212.015,0.201272
250.5000,0.26375,212.168,0.203428
250.4000,-0.997348,211.242,0.190358
250.3000,0.471958,212.128,0.202869
250.2000,-0.815462,211.476,0.193658
250.1000,-0.731416,211.817,0.198474
250.0000,-0.625353,211.343,0.191784
249.9000,-0.26571,211.528,0.194395
249.8000,1.59162,212.086,0.202278
249.7000,0.657767,211.673,0.196443
249.6000,-0.198281,211.589,0.195259
249.5000,1.9785,211.675,0.196475
249.4000,0.792353,212.635,0.210002
249.3000,0.860793,212.539,0.208646
249.2000,-0.731873,211.986,0.200856
249.1000,-0.535943,212.279,0.204993
249.0000,1.86771,213.242,0.218535
248.9000,-1.55257,211.853,0.198986
248.8000,-1.42205,211.716,0.197051
248.7000,0.665046,211.796,0.198187
248.6000,0.597079,211.671,0.196411
248.5000,0.90709,211.429,0.193002
248.4000,-1.65371,212.089,0.20231
248.3000,1.06861,212.914,0.213921
248.2000,0.68989,212.923,0.214048
248.1000,-1.51717,212.45,0.207402
248.0000,-1.33108,212.617,0.209746
247.9000,0.361637,212.616,0.20973
247.8000,-1.96094,212.116,0.202694
247.7000,1.1978,213.503,0.222191
247.6000,-0.557712,213.283,0.219108
247.5000,0.944672,212.143,0.203077
247.4000,0.660005,212.278,0.204977
247.3000,0.469658,213.023,0.215465
247.2000,-2.57118,212.575,0.209156
247.1000,-1.32507,212.514,0.208295
247.0000,0.503955,213.331,0.219775
246.9000,0.805883,213.337,0.219871
246.8000,-0.366015,212.527,0.208487
246.7000,-2.55313,212.264,0.204785
246.6000,-1.41099,212.62,0.209794
246.5000,-0.501572,212.362,0.206158
246.4000,-1.34078,212.301,0.205296
246.3000,-1.11843,213.987,0.228968
246.2000,0.0730646,213.374,0.220379
246.1000,-2.41015,212.484,0.207881
246.0000,0.644337,213.367,0.220284
245.9000,-1.44888,213.755,0.225732
245.8000,-1.03219,212.191,0.203747
245.7000,-1.00156,214.141,0.231124
245.6000,-0.257365,213.477,0.221825
245.5000,-0.911512,213.022,0.215449
245.4000,0.0939859,213.099,0.216531
245.3000,1.59061,213.653,0.224303
245.2000,-2.99357,213.085,0.216324
245.1000,-3.47774,213.516,0.222382
245.0000,-0.382993,214.359,0.234181
244.9000,-0.815985,213.592,0.223446
244.8000,-0.985145,213.658,0.224367
244.7000,-2.24199,213.706,0.225034
244.6000,-0.578716,213.605,0.223621
244.5000,-2.3389,213.578,0.223239
244.4000,-1.44925,214.222,0.232265
244.3000,-1.97693,214.136,0.231061
244.2000,-1.85837,214.51,0.236287
244.1000,-3.71906,214.631,0.23798
244.0000,-2.3793,213.65,0.224256
243.9000,0.13075,214.435,0.235242
243.8000,-1.81132,213.661,0.224414
243.7000,-0.753902,213.718,0.225208
243.6000,-0.827253,214.099,0.230538
243.5000,-1.56217,214.218,0.232202
243.4000,-3.0397,214.757,0.239735
243.3000,-2.00462,214.576,0.237204
243.2000,-1.61095,215.495,0.250013
243.1000,-4.89815,214.976,0.242785
243.0000,-2.55672,214.394,0.234672
242.9000,-1.30207,214.433,0.235211
242.8000,-3.3668,214.533,0.236603
242.7000,-3.09792,215.462,0.249556
242.6000,-3.70255,214.461,0.235606
242.5000,-3.78475,215.106,0.244601
242.4000,-2.50785,214.543,0.236746
242.3000,-2.68847,215.966,0.256566
242.2000,-3.00196,215.751,0.253574
242.1000,-2.19685,215.358,0.248105
242.0000,-3.82459,215.968,0.256597
241.9000,-3.43087,215.892,0.255543
241.8000,-3.32427,216.186,0.259617
241.7000,-3.51959,217.508,0.277921
241.6000,-4.21757,216.75,0.267439
241.5000,-4.13441,216.701,0.266765
241.4000,-3.72016,216.33,0.261614
241.3000,-2.17565,216.468,0.26353
241.2000,-5.56576,216.68,0.266467
241.1000,-5.26481,216.892,0.2694
241.0000,-4.71343,216.763,0.267612
240.9000,-5.54309,217.185,0.27346
240.8000,-5.39822,217.419,0.276685
240.7000,-4.60481,217.225,0.274008
240.6000,-3.67886,216.861,0.268977
240.5000,-5.86222,217.103,0.272316
240.4000,-4.36461,217.637,0.279704
240.3000,-6.00289,216.986,0.270702
240.2000,-5.74927,216.703,0.26678
240.1000,-5.22339,217.949,0.284002
240.0000,-5.12633,217.868,0.282893
239.9000,-6.23165,218.367,0.289761
239.8000,-6.19718,217.676,0.280236
239.7000,-4.58585,218.312,0.288997
239.6000,-5.46269,217.946,0.283955
239.5000,-4.96915,218.172,0.287078
239.4000,-5.98895,219.03,0.298872
239.3000,-7.6106,218.826,0.296071
239.2000,-7.75348,219.318,0.302821
239.1000,-5.44177,218.772,0.295324
239.0000,-6.61682,218.725,0.294686
238.9000,-7.84751,218.442,0.29079
238.8000,-6.80209,219.403,0.303987
238.7000,-7.75865,219.804,0.309482
238.6000,-8.94922,219.735,0.308535
238.5000,-9.33041,221.509,0.33275
238.4000,-8.92447,220.022,0.312474
238.3000,-9.3801,218.961,0.297923
238.2000,-10.3602,220.45,0.318312
238.1000,-10.053,219.761,0.308892
238.0000,-10.7439,220.613,0.320539
237.9000,-8.08293,220.092,0.313419
237.8000,-7.33488,220.715,0.321931
237.7000,-9.90987,221.095,0.327121
237.6000,-10.4758,221.517,0.332858
237.5000,-9.51406,221.16,0.328
237.4000,-9.65137,221.596,0.333937
237.3000,-11.2138,221.256,0.329312
237.2000,-12.5206,222.259,0.342939
237.1000,-11.1928,221.384,0.331055
237.0000,-12.9068,222.421,0.345136
236.9000,-10.6351,221.965,0.338941
236.8000,-12.2931,223.261,0.3565
236.7000,-10.8162,222.234,0.342601
236.6000,-13.929,221.91,0.338202
236.5000,-12.2015,223.484,0.359515
236.4000,-13.2157,223.034,0.353436
236.3000,-15.241,223.118,0.35457
236.2000,-13.2787,223.683,0.362207
236.1000,-12.8582,224.446,0.372482
236.0000,-14.7608,223.001,0.352992
235.9000,-13.8404,223.924,0.365447
235.8000,-16.6544,223.833,0.364225
235.7000,-13.506,223.802,0.363812
235.6000,-14.8582,224.279,0.37024
235.5000,-14.7439,224.768,0.376809
235.4000,-13.1458,225.351,0.384643
235.3000,-15.2206,225.105,0.381344
235.2000,-15.8511,225.007,0.38002
235.1000,-13.3773,224.959,0.379381
235.0000,-15.7473,225.443,0.385873
234.9000,-17.0297,224.916,0.378803
234.8000,-16.7182,226.626,0.401697
234.7000,-18.2882,226.361,0.398156
234.6000,-17.2152,226.504,0.400063
234.5000,-18.7364,226.407,0.398777
234.4000,-19.3746,227.417,0.412239
234.3000,-17.3609,227.825,0.417664
234.2000,-21.4636,227.393,0.411922
234.1000,-17.2017,227.103,0.408059
234.0000,-19.2733,228.009,0.420118
233.9000,-21.1015,227.91,0.418793
233.8000,-19.6796,227.72,0.416278
233.7000,-21.0673,227.467,0.412902
233.6000,-20.3803,227.87,0.418266
233.5000,-18.7911,229.902,0.445163
233.4000,-22.502,229.064,0.434101
233.3000,-20.7255,229.593,0.441096
233.2000,-20.6477,228.622,0.42825
233.1000,-21.3232,229.474,0.439524
233.0000,-19.7505,229.818,0.444057
232.9000,-22.3856,230.497,0.453002
232.8000,-22.5723,230.546,0.453658
232.7000,-24.2532,230.53,0.453449
232.6000,-25.5517,230.363,0.451241
232.5000,-24.8005,231.653,0.468198
232.4000,-25.1337,231.998,0.47271
232.3000,-24.0994,232.06,0.473526
232.2000,-24.1209,231.871,0.471048
232.1000,-26.5565,232.782,0.482962
232.0000,-27.7845,231.903,0.471464
231.9000,-27.9053,233.285,0.489524
231.8000,-25.7238,233.301,0.489731
231.7000,-27.2918,233.903,0.497563
231.6000,-26.2769,233.852,0.4969
231.5000,-29.3221,234.675,0.507599
231.4000,-27.2061,234.38,0.503762
231.3000,-27.1043,234.398,0.503997
231.2000,-31.2418,235.318,0.515921
231.1000,-29.4317,234.794,0.509141
231.0000,-31.4064,235.489,0.518135
230.9000,-32.7929,235.76,0.521635
230.8000,-30.1413,235.858,0.522908
230.7000,-29.9936,236.603,0.53251
230.6000,-29.3197,236.09,0.525907
230.5000,-30.2187,236.76,0.534538
230.4000,-29.0889,236.48,0.530934
230.3000,-30.0279,236.872,0.535982
230.2000,-32.0701,237.424,0.543077
230.1000,-30.661,237.33,0.541869
230.0000,-30.8415,239.715,0.572388
229.9000,-30.8064,237.935,0.549635
229.8000,-33.2348,238.256,0.553744
229.7000,-31.9625,239.041,0.563787
229.6000,-32.7222,239.427,0.568719
229.5000,-33.723,238.718,0.55966
229.4000,-30.7919,239.398,0.568343
229.3000,-34.0638,239.065,0.564091
229.2000,-35.1997,240.48,0.582122
229.1000,-37.5333,240.303,0.579874
229.0000,-35.4399,241.912,0.60028
228.9000,-36.3458,240.998,0.588697
228.8000,-38.7185,242.339,0.605679
228.7000,-37.0613,242.601,0.608983
228.6000,-35.4122,242.808,0.611598
228.5000,-36.1932,244.011,0.626725
228.4000,-36.6996,243.953,0.625999
228.3000,-39.663,243.285,0.617608
228.2000,-38.7122,244.071,0.627479
228.1000,-36.0577,245.655,0.647313
228.0000,-40.2387,246.502,0.657882
227.9000,-40.1568,246.587,0.65894
227.8000,-35.5887,247.214,0.666732
227.7000,-40.1577,248.047,0.677063
227.6000,-39.5193,248.848,0.686974
227.5000,-43.5314,248.768,0.685993
227.4000,-36.6951,249.479,0.694763
227.3000,-40.005,249.665,0.697053
227.2000,-39.4554,249.438,0.69426
227.1000,-41.5291,251.722,0.72232
227.0000,-42.4237,251.357,0.717853
226.9000,-43.8506,251.983,0.725508
226.8000,-43.5172,252.14,0.727434
226.7000,-39.3797,253.252,0.740993
226.6000,-41.2771,252.897,0.736672
226.5000,-41.8662,253.739,0.746921
226.4000,-43.8568,254.901,0.761014
226.3000,-42.2238,255.481,0.768033
226.2000,-43.2763,255.78,0.771648
226.1000,-41.6609,255.858,0.772592
226.0000,-46.7032,257.023,0.786629
225.9000,-44.7594,257.536,0.792798
225.8000,-44.1368,258.622,0.80581
225.7000,-44.998,260.047,0.822829
225.6000,-42.4236,260.539,0.828682
225.5000,-46.3537,260.184,0.824462
225.4000,-44.2096,260.943,0.833491
225.3000,-45.1004,261.092,0.835253
225.2000,-46.2856,262.047,0.846577
225.1000,-45.223,263.355,0.862036
225.0000,-42.7669,264.348,0.873718
224.9000,-48.1233,265.277,0.884621
224.8000,-42.2086,265.786,0.890577
224.7000,-48.0737,265.452,0.886664
224.6000,-45.1582,267.433,0.909801
224.5000,-48.7673,267.573,0.911422
224.4000,-47.1669,269.519,0.934001
224.3000,-45.2389,269.922,0.938649
224.2000,-49.1152,271.337,0.954959
224.1000,-45.1291,271.622,0.958241
224.0000,-46.7981,271.711,0.959256
223.9000,-46.2498,273.87,0.983981
223.8000,-50.6901,273.818,0.983386
223.7000,-49.9019,275.207,0.999207
223.6000,-43.6061,274.826,0.994865
223.5000,-46.6187,276.931,1.01874
223.4000,-43.6414,279.298,1.04541
223.3000,-48.1354,278.681,1.03848
223.2000,-49.5963,281.219,1.06692
223.1000,-52.1195,282.068,1.07638
223.0000,-46.6387,282.772,1.08421
222.9000,-46.5499,284.341,1.10161
222.8000,-43.947,285.174,1.11081
222.7000,-46.1472,286.923,1.13006
222.6000,-45.9991,288.32,1.14537
222.5000,-50.5508,290.105,1.16483
222.4000,-47.2194,290.482,1.16893
222.3000,-43.1479,292.106,1.18653
222.2000,-48.2357,292.772,1.19373
222.1000,-48.0659,295.158,1.21941
222.0000,-47.3853,295.276,1.22067
221.9000,-43.8362,296.627,1.23512
221.8000,-47.8097,298.95,1.25984
221.7000,-45.8739,299.676,1.26754
221.6000,-51.5866,301.488,1.28667
221.5000,-47.4207,302.115,1.29328
221.4000,-48.3695,304.38,1.31702
221.3000,-48.5073,306.034,1.33426
221.2000,-45.9825,307.671,1.35126
221.1000,-50.5978,308.727,1.36218
221.0000,-49.1398,311.954,1.39536
220.9000,-48.1369,312.484,1.40079
220.8000,-43.5412,315.269,1.42916
220.7000,-47.9912,316.513,1.44176
220.6000,-48.3673,318.697,1.46379
220.5000,-49.5555,319.813,1.475
220.4000,-56.3378,322.32,1.50006
220.3000,-51.6679,324.976,1.52643
220.2000,-43.5714,325.731,1.53389
220.1000,-41.7154,327.656,1.55286
220.0000,-53.9354,331.072,1.58628
219.9000,-43.6456,331.897,1.59431
219.8000,-37.4687,334.419,1.61876
219.7000,-46.4056,336.71,1.64083
219.6000,-45.2843,337.815,1.65142
219.5000,-42.1438,340.658,1.67856
219.4000,-47.239,342.512,1.69616
219.3000,-44.6008,344.927,1.71896
219.2000,-45.4393,346.949,1.73795
219.1000,-50.4732,349.616,1.76285
219.0000,-49.4647,351.992,1.78491
218.9000,-45.9996,354.545,1.80846
218.8000,-49.3747,356.158,1.82328
218.7000,-40.377,360.919,1.86667
218.6000,-44.4725,362.424,1.88029
218.5000,-44.4231,364.064,1.89507
218.4000,-42.6548,368.019,1.9305
218.3000,-35.5454,370.327,1.95102
218.2000,-38.3108,372.673,1.97177
218.1000,-37.624,376.794,2.00796
218.0000,-49.1447,380.289,2.0384
217.9000,-41.5995,381.08,2.04526
217.8000,-43.3219,385.523,2.08354
217.7000,-36.4898,388.521,2.10917
217.6000,-42.2278,392.591,2.14369
217.5000,-31.3927,396.041,2.17272
217.4000,-36.5514,400.401,2.20911
217.3000,-19.4949,402.844,2.22935
217.2000,-30.4139,406.801,2.26191
217.1000,-24.4965,410.585,2.29281
217.0000,-32.1351,414.724,2.32633
216.9000,-35.9583,418.608,2.35753
216.8000,-34.3975,422.988,2.39242
216.7000,-30.793,426.123,2.41721
216.6000,-27.6775,430.132,2.44869
216.5000,-22.4146,433.463,2.47466
216.4000,-26.4845,436.19,2.49579
216.3000,-42.365,440.514,2.52907
216.2000,-20.4247,444.743,2.56135
216.1000,-24.1228,447.55,2.58264
216.0000,-23.5535,452.127,2.61711
215.9000,-21.4463,454.427,2.63432
215.8000,-35.5308,460.576,2.67997
215.7000,-37.0331,462.905,2.69712
215.6000,-29.3609,467.322,2.72947
215.5000,-24.7072,471.488,2.75973
215.4000,-28.5487,475.446,2.78828
215.3000,-24.9345,480.732,2.82609
215.2000,-20.9357,484.201,2.85071
215.1000,-11.8893,488.809,2.88319
215.0000,-16.2888,489.847,2.89047
214.9000,-14.0964,495.205,2.92784
214.8000,-31.4787,498.734,2.95228
214.7000,-27.9768,503.445,2.98466
214.6000,-17.6877,509.317,3.02467
214.5000,-20.1077,513.443,3.05255
214.4000,-24.8009,517.407,3.07916
214.3000,-14.6228,521.419,3.10591
214.2000,-15.8317,525.684,3.13416
214.1000,-24.9809,530.56,3.16622
214.0000,-16.6044,533.934,3.18826
213.9000,-10.2939,538.624,3.2187
213.8000,-13.6178,544.004,3.25334
213.7000,-12.5252,549.423,3.28794
213.6000,-22.4223,552.581,3.30797
213.5000,-8.91573,558.167,3.34316
213.4000,-0.694145,562.164,3.36816
213.3000,-6.38692,566.93,3.39778
213.2000,-12.921,571.124,3.42366
213.1000,-5.02343,575.573,3.45095
213.0000,-16.4314,579.315,3.47375
212.9000,-31.9474,583.404,3.49853
212.8000,-23.6304,588.036,3.52643
212.7000,-8.51574,593.766,3.56067
212.6000,-16.2787,598.118,3.5865
212.5000,-16.1122,602.463,3.61213
212.4000,-11.7232,608.041,3.64479
212.3000,-10.4065,613.862,3.67861
212.2000,-17.098,617.352,3.69875
212.1000,-9.07791,624.327,3.73873
212.0000,-1.88031,628.356,3.76165
211.9000,1.07395,633.121,3.78859
211.8000,6.8661,639.714,3.82558
211.7000,-11.3729,644.271,3.85097
211.6000,5.01105,648.409,3.87388
211.5000,-4.57172,653.107,3.89975
211.4000,2.77224,657.511,3.92385
211.3000,10.5328,661.42,3.94513
211.2000,-9.28929,665.124,3.96519
211.1000,-19.0632,670.188,3.99247
211.0000,-8.02008,673.026,4.00768
210.9000,-4.66734,677.825,4.03328
210.8000,-8.66164,682.607,4.05863
210.7000,-7.58904,687.408,4.08393
210.6000,-6.11606,690.782,4.10163
210.5000,3.63382,695.524,4.12637
210.4000,-21.4111,700.602,4.1527
210.3000,-10.6569,702.534,4.16267
210.2000,7.9219,707.487,4.18814
210.1000,-2.48889,711.955,4.21099
210.0000,-5.76643,715.732,4.2302
209.9000,-18.7641,719.312,4.24834
209.8000,-6.53101,724.189,4.27292
209.7000,-6.6676,727.739,4.29072
209.6000,5.82422,733.24,4.31816
209.5000,-4.07157,737.186,4.33774
209.4000,-0.155066,740.428,4.35375
209.3000,-6.36429,743.878,4.37073
209.2000,-18.6294,747.346,4.38773
209.1000,-5.11636,751.349,4.40727
209.0000,-6.49607,753.05,4.41555
208.9000,-7.15186,756.648,4.433
208.8000,-1.8105,760.208,4.45019
208.7000,-6.18347,762.01,4.45888
208.6000,-2.5393,765.242,4.4744
208.5000,-6.70426,766.86,4.48215
208.4000,-5.75668,769.365,4.49412
208.3000,-5.8301,771.891,4.50615
208.2000,-8.22595,774.963,4.52075
208.1000,-2.7206,778.008,4.53517
208.0000,-0.170361,781.215,4.55029
207.9000,10.7018,782.406,4.5559
207.8000,-20.669,785.61,4.57095
207.7000,-7.52535,788.673,4.58528
207.6000,6.4508,789.56,4.58942
207.5000,-4.86243,791.793,4.59983
207.4000,8.12731,791.934,4.60049
207.3000,-1.35971,794.158,4.61083
207.2000,-9.9886,795.675,4.61787
207.1000,-13.2814,797.55,4.62655
207.0000,0.705531,798.662,4.63169
206.9000,-18.0743,798.785,4.63227
206.8000,-12.8445,800.935,4.64219
206.7000,-2.06386,802.469,4.64925
206.6000,-6.95877,803.713,4.65498
206.5000,6.64849,803.828,4.6555
206.4000,-1.43259,804.874,4.66031
206.3000,-13.4603,804.629,4.65918
206.2000,0.0714404,807.032,4.67021
206.1000,9.15535,808.094,4.67507
206.0000,-13.0883,807.308,4.67147
205.9000,16.7622,810.473,4.68594
205.8000,-2.32207,809.649,4.68218
205.7000,9.00993,810.755,4.68723
205.6000,-2.33418,811.223,4.68936
205.5000,-5.68236,810.374,4.68549
205.4000,-13.9015,811.215,4.68933
205.3000,-7.14708,812.303,4.69428
205.2000,6.96555,813.682,4.70056
205.1000,-2.72191,813.542,4.69993
205.0000,-3.73509,812.99,4.69741
204.9000,-4.33779,813.067,4.69776
204.8000,-3.16626,813.953,4.70179
204.7000,-12.3965,815.095,4.70698
204.6000,5.15299,816.05,4.71132
204.5000,12.2498,814.293,4.70334
204.4000,-1.49935,814.785,4.70558
204.3000,-9.81006,815.066,4.70685
204.2000,-7.09845,814.734,4.70534
204.1000,-3.53072,815.47,4.70868
204.0000,6.18151,815.252,4.7077
203.9000,8.86559,815.255,4.70771
203.8000,-6.0551,814.869,4.70596
203.7000,19.0269,816.723,4.71437
203.6000,-5.01178,816.442,4.7131
203.5000,-5.56511,817.591,4.7183
203.4000,4.46548,818.353,4.72176
203.3000,0.104091,818.31,4.72156
203.2000,0.96386,817.008,4.71566
203.1000,13.1331,820.8,4.73281
203.0000,-3.40112,819.968,4.72906
202.9000,3.90732,820.835,4.73297
202.8000,17.629,819.511,4.72699
202.7000,6.81637,820.241,4.73029
202.6000,-0.729261,821.499,4.73597
202.5000,-3.15628,821.497,4.73596
202.4000,-4.92669,822.941,4.74247
202.3000,2.3512,824.109,4.74773
202.2000,-0.186942,824.447,4.74925
202.1000,8.90582,825.182,4.75256
202.0000,5.00973,827.103,4.76118
201.9000,-8.83123,829.222,4.77067
201.8000,3.37357,830.083,4.77452
201.7000,-2.30709,831.899,4.78264
201.6000,3.87438,833.248,4.78865
201.5000,10.1258,834.938,4.79618
201.4000,-2.00228,837.474,4.80745
201.3000,1.65559,839.675,4.8172
201.2000,8.50769,841.121,4.8236
201.1000,-18.1665,843.199,4.83278
201.0000,-6.53295,845.725,4.8439
200.9000,6.11381,848.115,4.85441
200.8000,10.7517,850.65,4.86552
200.7000,-4.19084,852.809,4.87497
200.6000,16.7883,856.666,4.89178
200.5000,-4.1237,859.837,4.90556
200.4000,2.33784,863.056,4.91951
200.3000,-1.84479,865.423,4.92973
200.2000,5.06143,870.075,4.94975
200.1000,0.547369,874.848,4.9702
200.0000,-8.29654,877.732,4.98251
199.9000,-6.90242,882.637,5.00337
199.8000,9.69912,887.212,5.02273
199.7000,1.53893,890.369,5.03604
199.6000,-0.571401,895.189,5.05629
199.5000,3.93158,899.038,5.07239
199.4000,0.170278,903.042,5.08908
199.3000,4.10421,908.063,5.10991
199.2000,-8.08737,911.909,5.1258
199.1000,-5.78546,917.497,5.14879
199.0000,11.0429,923.78,5.17449
198.9000,-5.05758,928.229,5.19261
198.8000,4.06993,935.868,5.22353
198.7000,7.61576,941.945,5.24797
198.6000,2.13745,949.319,5.27745
198.5000,0.785343,954.845,5.29942
198.4000,4.30697,962.449,5.32946
198.3000,1.62283,968.155,5.35187
198.2000,5.51234,974.24,5.37565
198.1000,9.08643,980.941,5.40168
198.0000,-5.48672,985.966,5.4211
197.9000,11.0113,994.079,5.45228
197.8000,5.08273,999.869,5.4744
197.7000,5.96068,1005.27,5.49493
197.6000,7.62221,1012.08,5.52068
197.5000,-0.0523637,1018.93,5.54644
197.4000,-1.87994,1023.03,5.5618
197.3000,-3.92084,1030.84,5.59088
197.2000,4.93773,1036.77,5.61283
197.1000,-0.844406,1041.73,5.63112
197.0000,3.17252,1049.75,5.66051
196.9000,-11.2733,1054.56,5.67807
196.8000,-8.13378,1060.99,5.7014
196.7000,-7.92126,1065.25,5.71678
196.6000,23.7893,1069.26,5.73125
196.5000,-2.48534,1071.26,5.73844
196.4000,-6.88256,1073.33,5.74584
196.3000,-1.16131,1075.08,5.75213
196.2000,-7.7057,1075.56,5.75385
196.1000,8.26219,1075.97,5.75531
196.0000,6.03206,1073.5,5.74645
195.9000,-9.20933,1076.73,5.75803
195.8000,4.30408,1076.52,5.75727
195.7000,-15.4384,1076.3,5.75647
195.6000,-6.89463,1074.39,5.74966
195.5000,4.59074,1077.34,5.76021
195.4000,-3.46751,1076.66,5.75778
195.3000,5.85953,1074.3,5.74932
195.2000,-15.8473,1076.21,5.75617
195.1000,11.722,1076.02,5.7555
195.0000,12.6682,1075.23,5.75264
194.9000,-0.719999,1075.74,5.75447
194.8000,-10.337,1074.89,5.75144
194.7000,7.99073,1076.17,5.75601
194.6000,3.85119,1075.87,5.75494
194.5000,-9.59072,1076.58,5.75749
194.4000,1.09743,1076.44,5.75699
194.3000,-17.9281,1075.45,5.75343
194.2000,6.668,1076.42,5.75691
194.1000,5.47887,1076.72,5.75797
194.0000,6.77846,1075.86,5.7549
193.9000,4.03118,1076.49,5.75714
193.8000,-6.58643,1076.32,5.75654
193.7000,-0.185639,1076.43,5.75695
193.6000,-1.7952,1077.71,5.76153
193.5000,-3.72624,1075.6,5.75397
193.4000,8.72108,1076.67,5.75782
193.3000,-14.6909,1076.84,5.7584
193.2000,-9.50323,1076.31,5.7565
193.1000,4.49216,1076.88,5.75857
193.0000,5.89035,1076.27,5.75639
192.9000,-8.30467,1076.86,5.75847
192.8000,-3.9771,1077.65,5.76131
192.7000,6.76946,1076.59,5.75752
192.6000,9.14896,1076.94,5.75878
192.5000,1.80232,1076.41,5.75687
192.4000,-2.00991,1077.27,5.75995
192.3000,3.91667,1077.03,5.75908
192.2000,4.15198,1077.33,5.76017
192.1000,5.57757,1076.07,5.75564
192.0000,12.1605,1076.68,5.75786
191.9000,3.24324,1077.37,5.76032
191.8000,-2.48281,1077.25,5.75988
191.7000,2.68351,1077.42,5.76047
191.6000,7.81382,1077.17,5.7596
191.5000,-5.07535,1077.16,5.75957
191.4000,16.9692,1076.84,5.75841
191.3000,7.70909,1077.76,5.76171
191.2000,-2.83446,1077,5.759
191.1000,13.3317,1077.97,5.76244
191.0000,-13.3064,1076.74,5.75806
190.9000,-4.58908,1076.06,5.75561
190.8000,-7.86505,1076.6,5.75754
190.7000,12.9408,1076.36,5.75671
190.6000,3.60536,1077.39,5.76036
190.5000,-8.29461,1077.82,5.76191
190.4000,9.73709,1077.02,5.75905
190.3000,-15.0674,1077.45,5.76057
190.2000,0.459362,1077.04,5.75913
190.1000,-6.03021,1076.13,5.75586
190.0000,-3.59658,1076.99,5.75895

##### Extended Information
[Comments]
Sample name,Sample_JH_CW
Comment
User,ScharfMinor
Division
Company,Saint Mary's College

[Detailed Information]
Creation date,9/27/2022 3:51 PM

Data array type,Linear data array * 3
Horizontal axis,Wavelength [nm]
Vertical axis(1),CD [mdeg]
Vertical axis(2),HT [V]
Vertical axis(3),Abs
Start,320 nm
End,190 nm
Data interval,0.1 nm
Data points,1301    

[Measurement Information]
Instrument name,J-1500
Model name,J-1500
Serial No.,B051061638

Detector,PM-539
Detector S/N,B051061638
  Lock-in amp.,X mode
  HT volt,Auto

Accessory,PTC-517
Accessory S/N,B026561646
  Temperature,22.10 C
  Control sensor,Holder
  Monitor sensor,Holder

Measurement date,9/27/2022 3:51 PM

CD Overload detect,947
Photometric mode,CD, HT, Abs
Measure range,320 - 190 nm
Data pitch,0.1 nm
CD scale,20 mdeg/0.05 dOD
FL scale,20 mdeg/0.05 dOD
D.I.T.,8 msec
Bandwidth,2.00 nm
Start mode,Immediately
Scanning mode,Continuous
Scanning speed,100 nm/min
Baseline correction,None
Shutter control,Auto
No. of cycle,1/1
N2 Flowmeter,Manual

Solvent,NaPO4 buffer

