TITLE,SHND.928.BUFFER
DATA TYPE,
ORIGIN,JASCO
OWNER,
DATE,22/09/28
TIME,15:32:56
SPECTROMETER/DATA SYSTEM,
LOCALE,1033
RESOLUTION,
DELTAX,-0.1
XUNITS,NANOMETERS
YUNITS,CD [mdeg]
Y2UNITS,HT [V]
Y3UNITS,ABSORBANCE
FIRSTX,  320.0000
LASTX,  190.0000
NPOINTS,    1301
FIRSTY,     0.68012
MAXY,     6.86138
MINY,    -6.47164
XYDATA
320.0000,0.680117,209.152,0.160668
319.9000,0.43968,209.27,0.162348
319.8000,0.204292,208.467,0.150896
319.7000,1.20731,208.718,0.154474
319.6000,1.61227,208.901,0.157096
319.5000,1.71824,208.409,0.150053
319.4000,0.783653,209.358,0.163608
319.3000,0.415057,209.122,0.160248
319.2000,1.1476,208.297,0.148465
319.1000,-0.743803,209.134,0.16041
319.0000,-0.468862,208.652,0.153536
318.9000,-1.02646,208.241,0.147654
318.8000,1.08297,207.569,0.138025
318.7000,1.97473,208.721,0.154523
318.6000,1.99009,209.184,0.161121
318.5000,1.07279,209.165,0.160862
318.4000,1.99257,209.427,0.164592
318.3000,1.96874,209.037,0.159036
318.2000,1.70033,209.951,0.172042
318.1000,0.699245,207.58,0.138187
318.0000,0.0604971,208.816,0.155882
317.9000,0.605982,209.205,0.161428
317.8000,1.88061,208.6,0.152791
317.7000,1.48475,208.122,0.145951
317.6000,0.119063,208.186,0.146875
317.5000,1.41898,209.543,0.166239
317.4000,2.15179,207.986,0.144003
317.3000,0.132907,208.214,0.147265
317.2000,1.66741,209.087,0.159747
317.1000,0.426,208.478,0.151042
317.0000,1.10651,208.139,0.146194
316.9000,1.53248,208.973,0.158114
316.8000,1.14576,208.819,0.155915
316.7000,1.34371,209.363,0.163672
316.6000,1.71009,208.803,0.155688
316.5000,3.58259,208.517,0.151609
316.4000,1.91127,208.535,0.151868
316.3000,1.41249,208.846,0.156303
316.2000,1.95485,209.176,0.161008
316.1000,1.27324,209.143,0.160539
316.0000,1.52681,209.165,0.160862
315.9000,2.02955,208.29,0.148351
315.8000,0.845456,209.102,0.159957
315.7000,0.142168,208.725,0.154571
315.6000,-0.623344,209.084,0.159699
315.5000,1.13318,208.643,0.153406
315.4000,1.01284,208.763,0.155122
315.3000,1.04176,208.867,0.15661
315.2000,0.269095,208.376,0.149583
315.1000,0.0487334,208.552,0.152111
315.0000,-0.600679,208.637,0.153325
314.9000,-0.489494,208.199,0.147054
314.8000,1.23921,207.909,0.142899
314.7000,0.643953,207.918,0.143029
314.6000,0.278025,208.784,0.155413
314.5000,0.540213,208.075,0.145286
314.4000,-1.46488,208.717,0.154458
314.3000,2.64898,208.225,0.147427
314.2000,2.27706,208.414,0.150134
314.1000,1.35509,208.367,0.149453
314.0000,1.51666,208.186,0.146875
313.9000,2.54011,208.44,0.150507
313.8000,0.867762,207.809,0.14147
313.7000,0.28717,208.355,0.149291
313.6000,0.687163,208.328,0.148902
313.5000,1.63276,207.766,0.140853
313.4000,1.92711,208.493,0.151268
313.3000,-0.200157,209.249,0.162058
313.2000,-0.0972015,207.953,0.143533
313.1000,0.453329,208.302,0.148529
313.0000,0.966097,208.875,0.156724
312.9000,0.738464,208.131,0.146081
312.8000,1.99476,208.212,0.147248
312.7000,2.05687,208.308,0.148611
312.6000,2.20701,208.159,0.146486
312.5000,-0.494086,208.009,0.144328
312.4000,1.56929,208.114,0.145837
312.3000,0.866229,208.38,0.149648
312.2000,1.37338,208.439,0.150491
312.1000,0.728867,208.459,0.150782
312.0000,1.58237,208.5,0.151366
311.9000,3.22778,208.226,0.147443
311.8000,-0.470744,208.429,0.150345
311.7000,0.0779633,208.572,0.152386
311.6000,-0.565691,208.389,0.149778
311.5000,0.435209,208.564,0.152273
311.4000,2.9179,208.271,0.148092
311.3000,1.21639,208.549,0.152062
311.2000,1.58516,208.252,0.147816
311.1000,0.956978,208.58,0.152499
311.0000,0.831415,208.916,0.157306
310.9000,0.502489,208.249,0.147767
310.8000,-0.28514,208.677,0.153892
310.7000,-0.475141,208.796,0.155591
310.6000,0.851313,208.471,0.150944
310.5000,1.59906,208.394,0.149842
310.4000,2.73944,208.725,0.154571
310.3000,1.97571,208.359,0.14934
310.2000,2.18191,207.635,0.138968
310.1000,0.169998,207.552,0.137781
310.0000,1.08715,208.38,0.149648
309.9000,-0.386996,207.837,0.141876
309.8000,1.13256,208.415,0.15015
309.7000,1.79516,208.974,0.15813
309.6000,0.0257212,208.166,0.146583
309.5000,0.253599,208.101,0.145659
309.4000,0.555988,208.535,0.151868
309.3000,3.11625,208.756,0.155025
309.2000,-0.593352,208.895,0.156998
309.1000,1.58739,208.548,0.152046
309.0000,0.716313,208.466,0.15088
308.9000,-0.330155,208.473,0.150977
308.8000,0.619919,208.121,0.145935
308.7000,0.472117,208.084,0.145415
308.6000,0.500774,208.563,0.152256
308.5000,2.30555,208.489,0.151204
308.4000,1.54753,208.447,0.150604
308.3000,0.417091,208.671,0.153811
308.2000,1.73599,208.455,0.150717
308.1000,2.48894,207.528,0.137439
308.0000,2.12769,208.795,0.155575
307.9000,1.40847,207.512,0.137212
307.8000,1.35009,208.691,0.154086
307.7000,2.05182,207.774,0.140967
307.6000,0.971351,207.925,0.143127
307.5000,1.17105,208.341,0.149081
307.4000,2.48903,208.329,0.148919
307.3000,0.643231,208.79,0.15551
307.2000,0.155156,208.149,0.14634
307.1000,0.199875,208.399,0.149923
307.0000,1.0223,208.605,0.152855
306.9000,0.587446,208.803,0.155688
306.8000,-0.692391,207.67,0.139472
306.7000,1.58069,207.665,0.139407
306.6000,1.36634,208.268,0.148043
306.5000,-0.638191,208.415,0.15015
306.4000,1.78978,208.479,0.151058
306.3000,0.595786,208.138,0.146178
306.2000,1.26149,208.159,0.146486
306.1000,1.7641,208.708,0.154329
306.0000,2.01344,207.917,0.143013
305.9000,1.16431,207.956,0.143581
305.8000,1.14366,207.63,0.138903
305.7000,1.44015,208.138,0.146178
305.6000,1.5456,208.212,0.147248
305.5000,-0.737936,208.543,0.151981
305.4000,1.77543,208.513,0.151544
305.3000,-0.977592,208.61,0.152936
305.2000,0.86261,208.564,0.152273
305.1000,0.309067,208.471,0.150944
305.0000,-0.931892,207.737,0.14043
304.9000,0.836299,207.884,0.142542
304.8000,0.668021,208.095,0.145561
304.7000,0.686791,208.422,0.150248
304.6000,1.2851,208.342,0.149097
304.5000,-0.114747,208.47,0.150928
304.4000,2.79881,207.35,0.134885
304.3000,0.0681359,207.919,0.143045
304.2000,1.35029,207.999,0.144198
304.1000,-1.41894,207.796,0.141275
304.0000,-0.0435058,208.256,0.147865
303.9000,1.17708,208.441,0.150523
303.8000,1.06871,207.817,0.141584
303.7000,-1.64842,208.05,0.144928
303.6000,0.323417,207.946,0.143435
303.5000,1.17812,207.827,0.14173
303.4000,0.412216,208.415,0.15015
303.3000,1.77858,207.894,0.142688
303.2000,2.05977,207.556,0.137846
303.1000,0.666352,208.052,0.144945
303.0000,1.32945,207.89,0.142623
302.9000,3.73235,208.751,0.154944
302.8000,1.48529,208.176,0.14673
302.7000,0.681139,207.594,0.138383
302.6000,-0.0496404,208.046,0.144864
302.5000,1.11792,208.05,0.144928
302.4000,0.860281,208.522,0.151673
302.3000,-0.275412,207.739,0.140463
302.2000,0.556974,207.933,0.14324
302.1000,-0.112073,207.977,0.143873
302.0000,0.252981,207.754,0.140674
301.9000,0.0936904,207.527,0.137423
301.8000,0.739208,208.658,0.153617
301.7000,0.926882,207.952,0.143516
301.6000,0.976704,207.457,0.136415
301.5000,-0.0540579,207.969,0.14376
301.4000,3.10259,208.104,0.145691
301.3000,0.972524,208.065,0.145139
301.2000,-0.739092,207.434,0.13609
301.1000,1.24748,207.729,0.140317
301.0000,2.32018,207.04,0.130424
300.9000,0.150737,207.848,0.142023
300.8000,1.59973,208.532,0.151819
300.7000,0.742182,207.451,0.136334
300.6000,1.924,208.12,0.145918
300.5000,0.898743,208.239,0.147622
300.4000,2.6087,207.959,0.143614
300.3000,-0.519055,207.33,0.134592
300.2000,2.80912,208.12,0.145918
300.1000,0.411244,207.845,0.14199
300.0000,1.32424,207.714,0.140105
299.9000,0.303285,207.765,0.140837
299.8000,1.17932,207.63,0.138903
299.7000,0.566892,207.616,0.138708
299.6000,1.4684,208.198,0.147037
299.5000,1.26927,208.175,0.146713
299.4000,1.28451,207.491,0.136903
299.3000,-0.477583,207.929,0.143192
299.2000,-1.27937,207.503,0.137082
299.1000,-0.944183,208.232,0.147524
299.0000,1.1889,207.466,0.136545
298.9000,1.02156,207.965,0.143711
298.8000,1.31179,207.35,0.134885
298.7000,-0.558537,207.912,0.142948
298.6000,0.402819,207.764,0.14082
298.5000,0.04939,207.673,0.13952
298.4000,0.235734,208.195,0.147005
298.3000,1.11772,207.303,0.134202
298.2000,0.803335,207.61,0.13861
298.1000,1.48695,207.786,0.141145
298.0000,1.80218,208.078,0.145318
297.9000,1.05572,207.717,0.140154
297.8000,1.31121,207.917,0.143013
297.7000,2.04256,207.845,0.14199
297.6000,-1.24641,208.029,0.14462
297.5000,0.14332,207.619,0.13874
297.4000,0.166414,207.68,0.139618
297.3000,0.437812,208.848,0.156335
297.2000,0.265622,207.25,0.133453
297.1000,1.23504,207.384,0.135374
297.0000,0.17122,206.881,0.128142
296.9000,0.893629,206.953,0.129169
296.8000,0.832709,207.316,0.134397
296.7000,0.849984,207.282,0.133909
296.6000,1.13271,207.577,0.138139
296.5000,0.0587741,207.909,0.142899
296.4000,2.25953,208.3,0.148497
296.3000,1.40714,207.801,0.141356
296.2000,2.17835,207.647,0.139147
296.1000,2.08441,207.79,0.141194
296.0000,1.23909,207.234,0.133209
295.9000,-0.990368,207.234,0.133209
295.8000,0.830629,207.12,0.13158
295.7000,-0.152345,207.658,0.139309
295.6000,0.0017435,207.586,0.138269
295.5000,1.30237,207.448,0.136285
295.4000,-0.26331,207.897,0.142737
295.3000,1.87256,207.359,0.135015
295.2000,1.60142,207.621,0.138773
295.1000,1.35557,207.184,0.132492
295.0000,-0.225728,207.529,0.137456
294.9000,1.32399,207.211,0.132883
294.8000,1.1793,207.687,0.139715
294.7000,0.00792411,207.431,0.136041
294.6000,1.2838,207.065,0.130782
294.5000,0.34904,207.1,0.131287
294.4000,1.25872,207.093,0.131189
294.3000,1.30657,207.665,0.139407
294.2000,1.03668,207.483,0.136789
294.1000,0.779622,207.743,0.140528
294.0000,1.25591,207.645,0.139114
293.9000,0.377944,207.731,0.140349
293.8000,-0.345815,207.501,0.137049
293.7000,0.931461,207.568,0.138009
293.6000,0.75146,207.343,0.134788
293.5000,1.1771,207.258,0.133567
293.4000,-0.431545,207.433,0.136073
293.3000,1.77266,207.309,0.1343
293.2000,1.53086,206.72,0.125826
293.1000,0.804989,206.732,0.125989
293.0000,-0.187716,207.065,0.130782
292.9000,-0.439194,207.224,0.133079
292.8000,0.560204,207.145,0.131939
292.7000,0.55614,207.536,0.137553
292.6000,0.571473,207.815,0.141551
292.5000,-0.146272,207.545,0.137683
292.4000,2.46069,207.365,0.135097
292.3000,-0.0524366,207.465,0.136529
292.2000,1.74289,207.296,0.134104
292.1000,2.07243,206.347,0.120455
292.0000,0.317179,206.481,0.122382
291.9000,1.42915,206.827,0.127359
291.8000,1.85295,206.89,0.128272
291.7000,0.251085,206.611,0.124259
291.6000,0.960504,206.954,0.129185
291.5000,0.406325,206.834,0.127457
291.4000,-0.860094,206.466,0.12217
291.3000,2.22985,207.221,0.13303
291.2000,2.51239,206.684,0.125304
291.1000,0.0866186,206.577,0.12377
291.0000,-0.421674,206.725,0.125891
290.9000,-1.04928,206.136,0.117398
290.8000,1.79891,206.606,0.124178
290.7000,0.200637,206.44,0.121794
290.6000,1.42244,207.247,0.133404
290.5000,0.901093,206.596,0.124031
290.4000,-0.638755,207.031,0.130293
290.3000,1.58526,206.615,0.124308
290.2000,0.399181,207.01,0.13
290.1000,1.42082,207.17,0.132297
290.0000,1.7772,207.316,0.134397
289.9000,0.806124,206.554,0.123427
289.8000,1.61803,206.907,0.128517
289.7000,-0.380096,206.982,0.129593
289.6000,0.951996,206.996,0.129788
289.5000,0.362983,206.922,0.128729
289.4000,1.32826,206.839,0.127539
289.3000,-0.823003,207.247,0.133404
289.2000,1.31485,207.141,0.131874
289.1000,1.53158,207.086,0.131092
289.0000,1.26504,207.108,0.131401
288.9000,1.85107,207.67,0.139472
288.8000,0.245095,206.499,0.122643
288.7000,0.850478,206.92,0.128696
288.6000,0.687574,207.168,0.132265
288.5000,-0.0313231,206.504,0.122709
288.4000,0.37613,206.956,0.129218
288.3000,0.279255,207.904,0.142835
288.2000,1.8502,206.852,0.127718
288.1000,1.18186,207.309,0.1343
288.0000,1.25967,206.95,0.129136
287.9000,0.747016,206.694,0.125451
287.8000,2.39593,207.218,0.132981
287.7000,1.08511,207.212,0.132899
287.6000,-0.437555,207.384,0.135374
287.5000,0.590676,207.071,0.13088
287.4000,0.483027,206.327,0.12016
287.3000,0.253736,206.798,0.126951
287.2000,0.0478958,206.132,0.117349
287.1000,-0.235221,207.279,0.13386
287.0000,0.27038,206.514,0.122856
286.9000,-0.790799,206.69,0.125385
286.8000,1.61933,207.065,0.130782
286.7000,0.924773,206.545,0.123297
286.6000,0.714026,206.265,0.119262
286.5000,0.875942,206.841,0.127571
286.4000,1.13881,206.72,0.125826
286.3000,1.87308,206.26,0.119196
286.2000,-1.45012,206.638,0.124635
286.1000,0.19277,206.796,0.126919
286.0000,-0.810727,207.437,0.136138
285.9000,0.934439,206.419,0.121484
285.8000,0.800158,207.34,0.134739
285.7000,-1.02389,206.681,0.125255
285.6000,1.91563,207.008,0.129967
285.5000,0.278964,206.705,0.125614
285.4000,-0.178451,207.108,0.131401
285.3000,1.69965,206.827,0.127359
285.2000,-1.95544,207.16,0.13215
285.1000,0.477489,207.46,0.136464
285.0000,0.383942,207.501,0.137049
284.9000,0.804446,207.238,0.133274
284.8000,0.95767,206.992,0.129739
284.7000,-0.184504,206.778,0.126658
284.6000,0.0834968,206.766,0.126479
284.5000,0.598057,206.976,0.129511
284.4000,-0.163312,207.586,0.138269
284.3000,-0.739509,206.97,0.129414
284.2000,1.39039,206.708,0.125646
284.1000,0.782972,206.585,0.123884
284.0000,1.45756,206.975,0.129495
283.9000,0.78024,206.676,0.12519
283.8000,1.63159,207.059,0.130701
283.7000,2.98283,206.899,0.128403
283.6000,1.65491,207.323,0.134495
283.5000,0.412307,206.676,0.12519
283.4000,0.87874,206.699,0.125516
283.3000,0.474416,207.048,0.130538
283.2000,-2.01908,207.331,0.134609
283.1000,0.61516,207.099,0.131271
283.0000,1.54371,206.431,0.121664
282.9000,0.918639,206.272,0.11936
282.8000,0.0906117,207.275,0.133811
282.7000,0.264819,207.127,0.131678
282.6000,0.170956,206.708,0.125646
282.5000,1.79361,207.128,0.131695
282.4000,-0.444586,206.57,0.123656
282.3000,0.311419,206.621,0.12439
282.2000,0.696528,206.861,0.127848
282.1000,0.159573,206.875,0.12806
282.0000,-0.550648,206.298,0.119736
281.9000,1.92521,207.385,0.13539
281.8000,0.715881,207.479,0.13674
281.7000,1.71871,206.877,0.128077
281.6000,1.03424,206.63,0.124521
281.5000,0.587798,206.026,0.115812
281.4000,0.58978,206.962,0.129299
281.3000,0.939501,206.405,0.121288
281.2000,2.06421,207.389,0.135439
281.1000,0.932685,207.034,0.130342
281.0000,1.39753,206.593,0.123998
280.9000,0.958507,206.483,0.122415
280.8000,1.06581,207.188,0.132557
280.7000,1.01943,207.205,0.132802
280.6000,-1.45591,207.071,0.13088
280.5000,0.615906,206.599,0.12408
280.4000,1.55746,207.284,0.133941
280.3000,-0.595724,206.474,0.122284
280.2000,0.538357,207.201,0.132737
280.1000,0.383899,206.705,0.125614
280.0000,-0.219806,207.206,0.132818
279.9000,0.0224188,207.212,0.132899
279.8000,0.441641,206.668,0.125075
279.7000,2.68213,207.005,0.129919
279.6000,0.959885,206.616,0.124325
279.5000,-1.03146,206.828,0.127376
279.4000,-0.899942,206.78,0.126691
279.3000,0.387522,206.724,0.125875
279.2000,0.616051,207.351,0.134902
279.1000,0.939428,207.414,0.135797
279.0000,-0.472832,207.096,0.131238
278.9000,0.716228,206.745,0.126185
278.8000,0.957791,207.376,0.13526
278.7000,-0.43529,206.975,0.129495
278.6000,-0.000402139,206.444,0.121843
278.5000,1.27151,206.768,0.126511
278.4000,1.25668,207.202,0.132753
278.3000,0.321285,206.997,0.129804
278.2000,0.744958,206.78,0.126691
278.1000,1.37739,207.108,0.131401
278.0000,0.247378,207.551,0.137765
277.9000,-0.253905,206.793,0.12687
277.8000,0.731731,206.896,0.128354
277.7000,2.25867,207.474,0.136659
277.6000,1.60915,207.16,0.13215
277.5000,-0.0517395,207.117,0.131532
277.4000,-0.964693,206.844,0.127604
277.3000,-0.192896,207.163,0.132199
277.2000,0.338986,207.069,0.130847
277.1000,1.39795,207.277,0.133828
277.0000,0.203705,207.714,0.140105
276.9000,0.946705,207.823,0.141665
276.8000,0.121819,207.32,0.134446
276.7000,-0.0911075,206.626,0.124472
276.6000,0.611121,206.886,0.128207
276.5000,-0.144352,207.467,0.136561
276.4000,1.1255,207.961,0.143646
276.3000,0.881194,207.147,0.131971
276.2000,1.42635,207.916,0.142997
276.1000,0.130904,207.373,0.135211
276.0000,-1.064,207.184,0.132492
275.9000,1.38319,206.955,0.129202
275.8000,0.217337,207.509,0.137163
275.7000,2.01774,207.546,0.1377
275.6000,-1.21867,207.647,0.139147
275.5000,-0.652102,206.759,0.126381
275.4000,-1.9276,207.658,0.139309
275.3000,1.43446,206.872,0.128011
275.2000,0.0180226,207.265,0.133665
275.1000,-0.802865,207.382,0.135341
275.0000,1.87556,206.677,0.125206
274.9000,1.67847,207.389,0.135439
274.8000,-0.246005,207.003,0.129902
274.7000,1.5853,207.592,0.13835
274.6000,0.0396689,206.942,0.129022
274.5000,0.157323,206.824,0.127327
274.4000,2.28861,207.697,0.139862
274.3000,0.242088,206.919,0.12868
274.2000,0.00137414,207.138,0.131841
274.1000,0.225212,207.405,0.135666
274.0000,0.674149,207.755,0.14069
273.9000,-0.387818,206.102,0.116907
273.8000,0.787354,206.565,0.12359
273.7000,0.626504,206.937,0.128941
273.6000,-0.562399,207.193,0.132623
273.5000,1.87761,207.527,0.137423
273.4000,-0.428865,207.206,0.132818
273.3000,-0.178251,207.603,0.138512
273.2000,-0.077018,207.07,0.130864
273.1000,0.763887,207.117,0.131532
273.0000,-0.275769,208.038,0.14475
272.9000,1.87828,208.015,0.144425
272.8000,0.722247,207.899,0.142753
272.7000,1.25119,207.398,0.135569
272.6000,0.208702,207.19,0.13259
272.5000,0.963245,207.234,0.133209
272.4000,0.196948,207.32,0.134446
272.3000,1.3965,207.369,0.135162
272.2000,0.315787,207.448,0.136285
272.1000,0.796876,207.283,0.133925
272.0000,1.04099,207.639,0.139033
271.9000,0.0821593,208.413,0.150118
271.8000,-0.248248,208.015,0.144425
271.7000,1.34211,207.452,0.13635
271.6000,0.39824,208.039,0.144766
271.5000,-1.08881,207.767,0.140869
271.4000,-0.0978008,208.124,0.145983
271.3000,0.873202,208.163,0.146535
271.2000,1.00545,207.7,0.139911
271.1000,-0.433672,208.591,0.152661
271.0000,0.602719,207.56,0.137895
270.9000,0.658048,207.924,0.14311
270.8000,-0.440197,207.842,0.141941
270.7000,1.89304,207.596,0.138415
270.6000,-0.649922,207.287,0.133974
270.5000,-2.09255,207.92,0.143062
270.4000,-1.10038,207.774,0.140967
270.3000,-0.744071,207.188,0.132557
270.2000,-0.0125061,208.303,0.148546
270.1000,1.72636,207.846,0.142006
270.0000,-0.964832,207.464,0.136512
269.9000,0.619039,207.365,0.135097
269.8000,-0.579876,207.671,0.139488
269.7000,0.969591,207.539,0.137602
269.6000,0.699046,207.188,0.132557
269.5000,0.0114003,208.052,0.144945
269.4000,0.226056,207.737,0.14043
269.3000,0.128893,207.818,0.1416
269.2000,-0.585912,208.105,0.145707
269.1000,0.759765,207.776,0.140999
269.0000,0.156435,208.742,0.154814
268.9000,1.11029,207.777,0.141015
268.8000,1.27623,207.835,0.141844
268.7000,0.716265,207.93,0.143208
268.6000,0.0789301,207.732,0.140365
268.5000,0.819813,207.694,0.139813
268.4000,0.669888,208.369,0.149486
268.3000,0.358185,208.389,0.149778
268.2000,-0.0522759,208.521,0.151657
268.1000,-0.116664,208.184,0.146843
268.0000,1.45525,208.01,0.144344
267.9000,0.500847,208.014,0.144409
267.8000,-1.27936,208.243,0.147686
267.7000,2.28173,207.469,0.136594
267.6000,1.41861,208.021,0.144506
267.5000,1.96041,208.65,0.153503
267.4000,0.212432,208.308,0.148611
267.3000,0.255271,208.234,0.147557
267.2000,0.126184,208.845,0.156287
267.1000,0.816202,208.566,0.152305
267.0000,0.701492,208.508,0.151479
266.9000,0.509183,207.879,0.142477
266.8000,-0.25809,208.745,0.154863
266.7000,1.03533,208.853,0.1564
266.6000,1.02578,208.476,0.151025
266.5000,-0.407013,208.016,0.144442
266.4000,-0.542469,209.052,0.159246
266.3000,-0.362716,209.317,0.163027
266.2000,1.34978,208.554,0.152127
266.1000,-0.257631,208.473,0.150977
266.0000,0.765578,207.874,0.142396
265.9000,1.65072,209.157,0.160749
265.8000,0.784112,209.116,0.160151
265.7000,1.71147,209.227,0.161735
265.6000,0.0650711,208.549,0.152062
265.5000,0.456209,208.913,0.157257
265.4000,0.0941734,208.524,0.151706
265.3000,-1.35549,208.364,0.149421
265.2000,0.409409,209.248,0.162042
265.1000,0.117013,209.206,0.161444
265.0000,-0.90335,208.344,0.149129
264.9000,0.104427,208.691,0.154086
264.8000,2.63016,208.228,0.147476
264.7000,-0.233372,209.227,0.161735
264.6000,0.363462,208.999,0.158486
264.5000,-0.228472,208.631,0.153228
264.4000,-0.812436,209.386,0.164011
264.3000,-0.455869,208.687,0.154037
264.2000,-0.210873,208.661,0.153665
264.1000,0.784941,209.189,0.161201
264.0000,0.622814,209.494,0.165545
263.9000,-0.44539,209.487,0.165448
263.8000,-0.23232,209.091,0.159796
263.7000,-0.0882951,209.953,0.172074
263.6000,0.564923,209.222,0.16167
263.5000,-0.676738,209.207,0.16146
263.4000,-0.086142,209.444,0.164835
263.3000,1.56235,209.389,0.164044
263.2000,0.277277,209.312,0.162946
263.1000,-0.393124,209.932,0.171784
263.0000,-0.307416,208.92,0.157354
262.9000,-1.05049,209.182,0.161105
262.8000,2.38166,208.839,0.156206
262.7000,0.713249,209.554,0.1664
262.6000,1.14251,209.514,0.165835
262.5000,0.675707,210.03,0.173169
262.4000,0.582351,210.07,0.173733
262.3000,-0.555568,208.706,0.154313
262.2000,2.3951,210.227,0.17597
262.1000,0.578775,209.6,0.167061
262.0000,0.289617,210.053,0.173491
261.9000,1.46416,210.055,0.173523
261.8000,0.418657,210.107,0.174264
261.7000,1.28499,210.258,0.176404
261.6000,0.294563,210.965,0.18643
261.5000,-0.220397,210.272,0.176614
261.4000,1.37275,210.019,0.173008
261.3000,3.20682,209.5,0.165625
261.2000,1.16399,209.939,0.171881
261.1000,2.04206,210.061,0.173604
261.0000,0.317798,210.866,0.185033
260.9000,-0.324854,210.356,0.177804
260.8000,1.22332,210.194,0.175503
260.7000,1.90622,209.849,0.170592
260.6000,1.13869,210.594,0.181179
260.5000,0.264411,210.167,0.175117
260.4000,-0.819716,210.263,0.176485
260.3000,-0.260499,211.281,0.190903
260.2000,0.565434,210.458,0.179251
260.1000,-0.203191,210.465,0.179348
260.0000,1.3049,210.087,0.173974
259.9000,-0.678456,209.848,0.170576
259.8000,1.08462,210.345,0.177643
259.7000,1.31624,210.491,0.179717
259.6000,-0.83385,210.162,0.175053
259.5000,-0.125352,209.829,0.170318
259.4000,0.643811,210.524,0.180183
259.3000,0.0709612,209.205,0.161428
259.2000,-1.62912,210.468,0.179396
259.1000,2.01874,210.348,0.177691
259.0000,-0.268413,211.104,0.188402
258.9000,0.267139,210.639,0.181822
258.8000,0.531031,211.036,0.18744
258.7000,-1.18832,210.505,0.17991
258.6000,0.132386,210.386,0.178222
258.5000,1.32148,211.502,0.194026
258.4000,0.762306,210.882,0.185258
258.3000,-0.574197,210.425,0.178785
258.2000,-0.270592,210.771,0.183685
258.1000,0.899035,211.147,0.189012
258.0000,0.0399754,211.145,0.18898
257.9000,1.54082,211.42,0.192873
257.8000,-1.33526,211.194,0.189669
257.7000,0.374073,211.728,0.197227
257.6000,-0.00544274,210.961,0.186381
257.5000,-1.05612,210.313,0.177193
257.4000,0.138911,211.469,0.193562
257.3000,0.496978,211.342,0.191768
257.2000,-0.781931,210.884,0.18529
257.1000,0.652936,210.311,0.17716
257.0000,1.83453,211.518,0.19425
256.9000,1.36712,211.283,0.190935
256.8000,0.842178,211.547,0.194667
256.7000,0.920241,211.514,0.194203
256.6000,-1.20776,211.297,0.191127
256.5000,1.19545,211.472,0.19361
256.4000,0.725592,211.762,0.197707
256.3000,0.905428,212.475,0.207753
256.2000,0.344509,211.256,0.19055
256.1000,0.361616,211.751,0.197547
256.0000,-0.207603,211.349,0.191864
255.9000,-0.182938,211.756,0.197611
255.8000,-0.72664,211.85,0.198938
255.7000,0.0327316,211.16,0.189188
255.6000,0.196015,210.992,0.186815
255.5000,-0.105018,211.318,0.191432
255.4000,-0.669239,211.019,0.187199
255.3000,-0.189497,211.743,0.197435
255.2000,-0.0178172,211.283,0.190935
255.1000,1.01106,212.011,0.201208
255.0000,-0.175874,212.193,0.20378
254.9000,1.78698,212.407,0.206796
254.8000,-1.67378,212.122,0.202773
254.7000,0.891335,212.237,0.204402
254.6000,1.73191,212.202,0.203907
254.5000,0.0140922,212.171,0.203476
254.4000,-0.0588066,212.171,0.203476
254.3000,0.593046,211.839,0.198794
254.2000,0.00790291,212.117,0.202709
254.1000,0.643833,211.716,0.197051
254.0000,0.720027,211.667,0.196363
253.9000,-1.77929,212.235,0.20437
253.8000,0.924558,212.009,0.201192
253.7000,-0.547299,212.177,0.203556
253.6000,2.21515,211.83,0.198666
253.5000,-0.0728762,212.199,0.203859
253.4000,0.694813,213.328,0.219744
253.3000,2.61418,211.904,0.199706
253.2000,0.892382,212.744,0.211531
253.1000,0.098971,212.557,0.208901
253.0000,-0.438069,213.222,0.218249
252.9000,-0.599995,212.584,0.209284
252.8000,0.309465,212.752,0.211643
252.7000,-0.62111,212.735,0.211404
252.6000,0.275484,212.755,0.211691
252.5000,-0.0413774,213.38,0.220475
252.4000,2.29313,213.2,0.217947
252.3000,1.86666,212.801,0.212344
252.2000,-0.0710787,213.019,0.215401
252.1000,1.37518,212.553,0.208853
252.0000,1.29,213.187,0.217756
251.9000,1.12223,212.706,0.211005
251.8000,0.517257,212.837,0.212838
251.7000,0.386036,213.273,0.218964
251.6000,-0.888373,213.463,0.221635
251.5000,-1.71587,213.435,0.221238
251.4000,-0.390831,212.773,0.211946
251.3000,-2.03248,213.404,0.220808
251.2000,-1.70417,212.849,0.213013
251.1000,0.920413,213.794,0.226271
251.0000,-0.973731,213.7,0.224954
250.9000,1.51036,213.469,0.221714
250.8000,1.54098,212.838,0.212853
250.7000,0.240002,213.206,0.218026
250.6000,1.23506,213.91,0.22789
250.5000,-1.50518,213.198,0.217915
250.4000,-1.37523,213.444,0.221365
250.3000,0.461263,213.549,0.222842
250.2000,-0.552729,213.732,0.225399
250.1000,-0.389142,212.987,0.214955
250.0000,-1.00919,214.066,0.230078
249.9000,-0.0766357,212.871,0.213315
249.8000,1.09627,213.216,0.218169
249.7000,-0.11132,213.379,0.220459
249.6000,-0.5036,213.148,0.217215
249.5000,0.361966,213.427,0.221126
249.4000,-0.906933,213.414,0.220952
249.3000,-1.3769,213.938,0.228286
249.2000,-1.2336,215.058,0.243938
249.1000,0.69493,213.89,0.22762
249.0000,-0.0138352,213.964,0.228651
248.9000,-0.344127,213.547,0.222811
248.8000,2.37218,213.92,0.228032
248.7000,-0.748536,214.932,0.242169
248.6000,1.2595,214.398,0.23472
248.5000,0.709885,213.989,0.229
248.4000,1.46044,214.128,0.23095
248.3000,0.313595,214.202,0.23198
248.2000,1.19776,214.315,0.233564
248.1000,-0.291991,214.661,0.238391
248.0000,1.49247,213.557,0.222953
247.9000,1.28838,214.103,0.230601
247.8000,1.14651,214.385,0.234546
247.7000,0.455594,213.956,0.22854
247.6000,0.601655,214.189,0.231806
247.5000,-0.00081114,214.211,0.232107
247.4000,-1.01334,214.221,0.232249
247.3000,-1.07176,215.16,0.245359
247.2000,1.17332,213.981,0.228889
247.1000,-2.52103,214.085,0.230348
247.0000,0.243228,213.68,0.224668
246.9000,1.22165,214.916,0.241948
246.8000,2.6064,214.886,0.241537
246.7000,1.43815,214.879,0.241442
246.6000,-0.88156,214.772,0.239941
246.5000,0.0735004,215.27,0.24689
246.4000,-2.35448,214.382,0.234498
246.3000,-1.08227,214.89,0.241584
246.2000,0.820239,214.466,0.23567
246.1000,1.32619,215.143,0.245122
246.0000,0.332387,215.603,0.251526
245.9000,0.577974,214.736,0.239435
245.8000,-0.180073,214.176,0.231616
245.7000,2.84699,215.452,0.249414
245.6000,1.68321,215.265,0.246811
245.5000,0.0812562,215.486,0.249887
245.4000,0.677198,215.551,0.250801
245.3000,-0.359107,215.508,0.250202
245.2000,0.318777,215.889,0.255495
245.1000,0.0349928,215.287,0.247127
245.0000,-0.118277,215.766,0.253779
244.9000,1.3613,215.627,0.251857
244.8000,-0.784411,215.262,0.246779
244.7000,-0.229866,215.555,0.250848
244.6000,1.38259,215.744,0.25348
244.5000,-0.397941,215.535,0.250581
244.4000,0.742316,215.244,0.246527
244.3000,0.722857,215.322,0.247616
244.2000,-1.04783,215.711,0.253023
244.1000,0.922347,215.333,0.247758
244.0000,0.313549,215.283,0.247064
243.9000,2.43772,215.948,0.256314
243.8000,-1.59089,215.15,0.245217
243.7000,0.403423,216.059,0.257856
243.6000,0.0775719,215.742,0.253448
243.5000,-0.382337,215.556,0.250864
243.4000,0.997784,216.015,0.257242
243.3000,1.76272,215.864,0.255149
243.2000,0.14261,215.43,0.249114
243.1000,-0.802762,216.812,0.268302
243.0000,-1.38347,215.563,0.250959
242.9000,0.542783,215.975,0.256691
242.8000,-1.03875,216.44,0.263138
242.7000,0.3858,216.451,0.263295
242.6000,-0.932413,216.637,0.26587
242.5000,0.619752,216.466,0.263499
242.4000,0.533544,216.073,0.258044
242.3000,2.04591,216.759,0.267565
242.2000,-0.365167,216.013,0.257211
242.1000,0.932888,216.478,0.263672
242.0000,1.08125,216.462,0.263452
241.9000,1.43736,216.124,0.258752
241.8000,-1.65609,217.048,0.271564
241.7000,-0.52604,216.969,0.270467
241.6000,-0.171296,217.214,0.273851
241.5000,0.207982,216.422,0.262886
241.4000,-0.318203,216.729,0.267141
241.3000,1.26445,217.191,0.273538
241.2000,-2.37746,216.971,0.270498
241.1000,0.220038,217.541,0.278375
241.0000,0.804388,217.245,0.27429
240.9000,0.545548,216.568,0.264912
240.8000,0.398034,216.924,0.269839
240.7000,-0.834987,217.329,0.275448
240.6000,-1.41025,217.544,0.278422
240.5000,-2.36012,216.918,0.269761
240.4000,-0.997071,217.7,0.280564
240.3000,1.5182,217.734,0.281033
240.2000,0.456713,217.851,0.282658
240.1000,1.15028,217.749,0.281252
240.0000,1.81968,218.007,0.284799
239.9000,1.4062,218.121,0.286375
239.8000,0.493777,218.032,0.285142
239.7000,0.632779,217.827,0.282315
239.6000,1.1482,218.115,0.286297
239.5000,1.16487,218.48,0.29132
239.4000,-0.506582,218.525,0.291928
239.3000,-0.356976,218.694,0.294265
239.2000,-1.11229,218.247,0.288108
239.1000,0.207144,218.245,0.288076
239.0000,0.204207,218.514,0.291788
238.9000,-0.185633,218.351,0.289543
238.8000,-0.443119,218.846,0.296352
238.7000,0.2082,218.581,0.292707
238.6000,-0.838783,219.032,0.298904
238.5000,1.48726,219.094,0.299759
238.4000,2.67166,219.259,0.302013
238.3000,0.783695,219.63,0.307108
238.2000,-1.07065,218.506,0.291679
238.1000,-1.6379,219.5,0.305322
238.0000,-0.00143218,219.015,0.29867
237.9000,-1.02093,218.917,0.297316
237.8000,-0.347582,219.326,0.30293
237.7000,0.59554,219.221,0.3015
237.6000,1.59345,218.617,0.293206
237.5000,0.990565,219.143,0.300428
237.4000,1.28212,219.659,0.307496
237.3000,0.999186,219.604,0.306751
237.2000,-2.3198,219.746,0.30869
237.1000,0.915885,219.03,0.298872
237.0000,1.15335,219.483,0.305089
236.9000,-0.841155,220.64,0.32091
236.8000,0.207073,220.383,0.317399
236.7000,0.0782508,220.024,0.312489
236.6000,-0.369258,220.369,0.317213
236.5000,-0.472728,220.391,0.317507
236.4000,0.298836,220.471,0.318606
236.3000,-0.409252,220.267,0.31582
236.2000,0.867436,220.819,0.323352
236.1000,-0.774161,220.45,0.318312
236.0000,0.298612,221.494,0.33255
235.9000,2.0552,220.957,0.325237
235.8000,1.00654,220.817,0.323322
235.7000,-0.598906,221.338,0.330423
235.6000,0.530946,221.264,0.32942
235.5000,0.09968,221.34,0.330453
235.4000,-0.0376427,222.023,0.339741
235.3000,2.53243,220.949,0.325129
235.2000,1.23668,221.856,0.337463
235.1000,1.68964,221.886,0.337879
235.0000,1.04254,221.075,0.326843
234.9000,1.06074,221.758,0.33614
234.8000,0.279318,221.824,0.337033
234.7000,0.933072,221.711,0.335493
234.6000,-0.265341,221.877,0.337756
234.5000,0.787703,222.984,0.352762
234.4000,0.513316,222.272,0.343108
234.3000,0.24472,221.298,0.329883
234.2000,-0.468602,221.657,0.334769
234.1000,0.848135,222.21,0.342278
234.0000,0.638896,222.456,0.345612
233.9000,-0.0859132,222.63,0.347961
233.8000,-0.880997,222.638,0.348069
233.7000,-0.818563,222.015,0.339633
233.6000,-0.618161,221.816,0.336925
233.5000,0.550977,223.177,0.355367
233.4000,-0.865768,223.411,0.358536
233.3000,-0.106435,222.761,0.349741
233.2000,0.301777,222.988,0.352808
233.1000,-1.49803,222.617,0.347793
233.0000,1.61082,223.457,0.359148
232.9000,0.412592,222.418,0.34509
232.8000,2.62176,223.569,0.360663
232.7000,0.312846,224.338,0.371033
232.6000,0.148431,223.106,0.354402
232.5000,0.629256,223.742,0.363002
232.4000,1.38755,223.632,0.361519
232.3000,-0.262158,224.099,0.367814
232.2000,0.999565,223.63,0.361488
232.1000,-0.831247,224.703,0.375941
232.0000,1.19923,224.24,0.369706
231.9000,1.23524,224.589,0.374402
231.8000,0.17239,224.155,0.368562
231.7000,-0.494609,223.204,0.355734
231.6000,2.49941,225.929,0.392384
231.5000,2.24152,224.267,0.370072
231.4000,-0.0196597,224.957,0.379351
231.3000,3.35779,224.454,0.372588
231.2000,0.946711,225.142,0.38183
231.1000,2.43069,225.158,0.382043
231.0000,-0.117155,225.695,0.389244
230.9000,-1.23796,224.958,0.379366
230.8000,-0.737659,225.032,0.380355
230.7000,-0.875655,225.483,0.386405
230.6000,0.877014,224.901,0.378605
230.5000,-0.0787542,226.197,0.39596
230.4000,0.423067,224.883,0.378362
230.3000,0.685179,225.307,0.38405
230.2000,1.39993,225.241,0.383168
230.1000,0.927395,226.119,0.39493
230.0000,0.494584,225.748,0.389957
229.9000,-0.072485,225.715,0.389517
229.8000,-1.70149,225.989,0.393187
229.7000,0.388528,226.212,0.396173
229.6000,-0.199835,225.902,0.39202
229.5000,-1.96085,225.892,0.391884
229.4000,-0.0345093,225.365,0.384825
229.3000,-0.454301,226.719,0.402937
229.2000,0.714139,226.555,0.400744
229.1000,-1.13379,225.99,0.393203
229.0000,2.14812,226.177,0.395703
228.9000,2.11981,226.686,0.402499
228.8000,-0.609772,226.61,0.401485
228.7000,0.199111,226.845,0.404615
228.6000,-0.139182,228.032,0.420419
228.5000,-0.927026,226.636,0.401833
228.4000,-0.77219,227.619,0.414922
228.3000,-0.725851,227.202,0.409372
228.2000,0.366448,227.943,0.41923
228.1000,-0.199464,227.225,0.409689
228.0000,3.94228,227.33,0.411077
227.9000,0.855867,226.603,0.401395
227.8000,-0.237821,227.935,0.419124
227.7000,0.738493,227.527,0.413701
227.6000,-1.10948,228.544,0.427214
227.5000,2.80981,227.91,0.418793
227.4000,-2.34165,228.366,0.424855
227.3000,-1.12509,227.791,0.417212
227.2000,0.600339,228.132,0.421743
227.1000,2.49928,228.665,0.42882
227.0000,0.280938,227.017,0.406911
226.9000,2.49605,229.486,0.439674
226.8000,0.713301,229.667,0.442068
226.7000,-0.942414,228.729,0.429661
226.6000,1.73503,229.418,0.438776
226.5000,-2.79428,228.764,0.430127
226.4000,1.42338,229.361,0.438027
226.3000,0.747217,229.267,0.436784
226.2000,0.253825,230.535,0.453509
226.1000,0.414074,228.752,0.429961
226.0000,0.0743581,229.369,0.438132
225.9000,-0.256649,229.462,0.43936
225.8000,2.06493,229.86,0.44461
225.7000,1.77771,230.271,0.450033
225.6000,1.88005,231.043,0.460183
225.5000,3.31376,229.339,0.437727
225.4000,-0.486225,230.935,0.458769
225.3000,-0.494588,230.84,0.457518
225.2000,0.818606,230.753,0.456371
225.1000,0.554498,230.783,0.456773
225.0000,-0.228551,230.943,0.458873
224.9000,-0.472379,231.191,0.462133
224.8000,0.351212,231.179,0.461969
224.7000,1.37548,231.112,0.461091
224.6000,-1.61667,231.206,0.462326
224.5000,-1.72297,231.721,0.469089
224.4000,0.733948,231.265,0.4631
224.3000,1.00804,232.155,0.474772
224.2000,0.623811,231.134,0.461389
224.1000,-0.35215,232.06,0.473526
224.0000,2.82216,231.344,0.464141
223.9000,1.77053,231.786,0.469935
223.8000,0.610551,232.614,0.480772
223.7000,1.51287,232.394,0.477899
223.6000,0.173564,231.662,0.468317
223.5000,-3.35602,233.28,0.489465
223.4000,1.83366,232.995,0.485742
223.3000,1.82336,231.35,0.464215
223.2000,0.684028,232.075,0.473719
223.1000,-1.16594,232.8,0.483198
223.0000,1.9908,233.08,0.48685
222.9000,2.0129,233.386,0.490838
222.8000,0.453936,233.389,0.490882
222.7000,1.63636,233.764,0.495765
222.6000,0.591557,233.807,0.496325
222.5000,-0.24712,233.344,0.490292
222.4000,2.7225,233.699,0.49491
222.3000,-0.2148,234.298,0.502702
222.2000,1.78325,233.752,0.495603
222.1000,0.0451648,234.445,0.504614
222.0000,0.248773,234.401,0.504041
221.9000,-0.173441,233.658,0.494379
221.8000,0.668626,234.44,0.504541
221.7000,0.482368,233.959,0.4983
221.6000,-0.018562,234.145,0.500715
221.5000,0.463409,234.595,0.506555
221.4000,-0.306104,234.614,0.506805
221.3000,-1.16002,235.072,0.512738
221.2000,0.273383,234.714,0.508098
221.1000,2.92395,234.304,0.502776
221.0000,0.133861,233.769,0.495824
220.9000,3.26908,236.688,0.533605
220.8000,0.987226,234.546,0.505923
220.7000,-0.969442,234.836,0.509685
220.6000,0.155433,235.223,0.51469
220.5000,1.03448,234.898,0.510492
220.4000,1.56429,235.76,0.521635
220.3000,-0.109366,236.369,0.529502
220.2000,0.11224,235.837,0.52263
220.1000,2.15604,236.713,0.533926
220.0000,1.60206,235.168,0.513985
219.9000,0.840142,236.812,0.535209
219.8000,-3.35797,236.208,0.527427
219.7000,1.48997,236.333,0.529035
219.6000,1.85104,236.071,0.525658
219.5000,0.0637937,236.637,0.532948
219.4000,0.393316,236.954,0.537032
219.3000,-1.2526,236.273,0.52826
219.2000,1.47379,236.433,0.53032
219.1000,0.570651,237.031,0.538023
219.0000,1.78606,236.572,0.532116
218.9000,-1.32678,238.142,0.552293
218.8000,4.36097,237.908,0.549286
218.7000,0.834099,236.692,0.533663
218.6000,2.43434,237.208,0.540296
218.5000,1.03064,237.966,0.550027
218.4000,1.44409,237.953,0.549867
218.3000,0.405883,237.497,0.544008
218.2000,-0.88366,237.505,0.54411
218.1000,2.76889,238.454,0.556283
218.0000,-0.492234,238.197,0.552989
217.9000,3.34298,237.369,0.542364
217.8000,1.00135,238.206,0.553105
217.7000,0.30576,238.088,0.551596
217.6000,-0.289763,238.142,0.552293
217.5000,-0.364059,238.887,0.561818
217.4000,-0.385544,237.895,0.549126
217.3000,-0.671227,239.127,0.564887
217.2000,2.39961,237.671,0.546248
217.1000,0.279314,238.94,0.562499
217.0000,2.26217,239.372,0.568011
216.9000,-0.0740881,239.222,0.566102
216.8000,1.40593,238.979,0.562991
216.7000,1.58429,240.017,0.576227
216.6000,0.933318,239.896,0.574698
216.5000,2.11514,239.052,0.563932
216.4000,2.87856,240.424,0.581416
216.3000,0.111088,240.38,0.580854
216.2000,1.27951,239.439,0.568864
216.1000,-0.29785,239.801,0.573486
216.0000,-4.20707,239.642,0.57145
215.9000,1.32097,240.047,0.576616
215.8000,-0.773908,239.453,0.569051
215.7000,1.06782,239.943,0.575289
215.6000,-0.306387,240.287,0.579673
215.5000,0.775267,240.403,0.581142
215.4000,-0.605138,240.478,0.582093
215.3000,1.29897,240.769,0.585792
215.2000,-1.30482,240.764,0.585735
215.1000,1.2632,241.271,0.59216
215.0000,0.22632,241.712,0.597743
214.9000,3.73304,240.798,0.586166
214.8000,1.78084,242.188,0.603761
214.7000,2.18395,241.914,0.600309
214.6000,-0.140841,241.456,0.5945
214.5000,-0.0676239,241.666,0.597169
214.4000,-0.994705,241.729,0.597958
214.3000,1.37993,242.303,0.60522
214.2000,-2.31207,242.076,0.602357
214.1000,3.13575,242.107,0.602744
214.0000,0.293118,242.055,0.602085
213.9000,2.67323,242.156,0.60336
213.8000,4.50989,241.977,0.601097
213.7000,-0.577079,242.121,0.602916
213.6000,0.320899,242.26,0.604677
213.5000,3.16623,242.67,0.609854
213.4000,0.854484,242.699,0.610212
213.3000,3.73353,242.173,0.603574
213.2000,1.9585,243.134,0.615696
213.1000,0.171122,242.871,0.612384
213.0000,-0.564896,243.459,0.619789
212.9000,1.59688,243.266,0.617365
212.8000,1.13491,242.939,0.613241
212.7000,-0.74645,243.714,0.622995
212.6000,1.71238,243.527,0.620644
212.5000,-0.855327,242.824,0.611798
212.4000,-1.22517,243.108,0.615367
212.3000,0.292031,244.142,0.628375
212.2000,-0.614766,243.758,0.623551
212.1000,2.99788,243.778,0.623807
212.0000,-1.28103,244.509,0.63298
211.9000,1.85719,243.962,0.626113
211.8000,-0.0206189,244.871,0.637509
211.7000,2.80545,244.94,0.638374
211.6000,-0.947251,244.865,0.637438
211.5000,1.10757,244.637,0.634585
211.4000,2.37603,244.943,0.638416
211.3000,0.691275,244.998,0.639097
211.2000,2.8207,245.703,0.647921
211.1000,-0.173295,245.296,0.642825
211.0000,0.95696,245.827,0.649463
210.9000,1.61547,245.536,0.645827
210.8000,3.71749,246.92,0.663084
210.7000,0.29863,245.344,0.643434
210.6000,1.1564,246.596,0.659053
210.5000,1.69458,246.315,0.655553
210.4000,1.36128,245.766,0.648699
210.3000,4.55291,246.253,0.654777
210.2000,0.891049,246.744,0.660886
210.1000,1.55994,246.389,0.656471
210.0000,0.984169,246.426,0.656936
209.9000,2.01032,247.248,0.667154
209.8000,2.41082,246.835,0.662027
209.7000,0.532571,247.086,0.665141
209.6000,3.1415,247.285,0.667618
209.5000,1.82582,247.335,0.668238
209.4000,3.00868,247.758,0.673482
209.3000,0.941664,247.767,0.673594
209.2000,-0.0466287,248.062,0.677259
209.1000,1.07691,247.87,0.674873
209.0000,1.48065,248.66,0.684649
208.9000,2.98065,248.626,0.684228
208.8000,0.7424,248.096,0.67768
208.7000,-0.110469,248.375,0.681131
208.6000,3.2923,248.898,0.687589
208.5000,-0.135704,248.421,0.681692
208.4000,-1.63955,249.381,0.693561
208.3000,2.9716,249.194,0.691255
208.2000,-1.85621,249.712,0.697639
208.1000,-0.912373,249.403,0.693827
208.0000,0.332129,250.079,0.702159
207.9000,0.666363,249.981,0.700946
207.8000,3.04315,250.109,0.702522
207.7000,0.29899,250.814,0.711183
207.6000,-1.75832,250.181,0.703414
207.5000,0.150104,250.212,0.70379
207.4000,0.101607,250.857,0.711711
207.3000,1.96535,250.612,0.708706
207.2000,0.765954,251.202,0.71595
207.1000,2.9264,251.084,0.714505
207.0000,1.09453,250.474,0.707008
206.9000,1.38602,251.575,0.720517
206.8000,2.11121,251.753,0.722695
206.7000,0.587209,251.914,0.724663
206.6000,2.38876,252.155,0.727613
206.5000,-2.72935,252.523,0.732111
206.4000,0.0872101,252.52,0.73207
206.3000,2.71103,252.258,0.728873
206.2000,1.12371,253.015,0.738108
206.1000,2.9891,252.438,0.731073
206.0000,-0.42415,253.115,0.739323
205.9000,1.70232,253.634,0.74564
205.8000,-0.564166,253.877,0.748601
205.7000,1.61464,253.563,0.744785
205.6000,0.492048,253.698,0.746425
205.5000,0.867108,253.774,0.747348
205.4000,0.356491,253.797,0.747624
205.3000,0.134806,255.267,0.765444
205.2000,0.192946,253.882,0.748656
205.1000,2.36378,254.322,0.753995
205.0000,2.11591,255.456,0.767732
204.9000,3.27406,255.446,0.767609
204.8000,3.09364,255.843,0.772414
204.7000,1.6526,255.229,0.764992
204.6000,3.75501,255.741,0.771182
204.5000,2.65538,256.3,0.777924
204.4000,2.75015,256.293,0.777842
204.3000,4.06514,256.315,0.778101
204.2000,3.95409,256.388,0.778989
204.1000,0.913521,256.179,0.776462
204.0000,0.0257637,257.283,0.789763
203.9000,0.426865,257.014,0.78652
203.8000,0.922954,256.6,0.781542
203.7000,-2.26328,257.47,0.792009
203.6000,-0.546897,257.545,0.792907
203.5000,0.658066,257.684,0.79458
203.4000,1.42271,258.154,0.800206
203.3000,4.67533,258.455,0.803817
203.2000,2.83742,258.432,0.803545
203.1000,-0.144804,258.55,0.804956
203.0000,-1.24414,259.151,0.812137
202.9000,-0.342506,259.523,0.816588
202.8000,-1.7807,259.523,0.816588
202.7000,-1.99907,259.279,0.813667
202.6000,0.255138,260.207,0.824732
202.5000,1.83688,260.132,0.823841
202.4000,0.113794,260.398,0.827011
202.3000,2.47032,260.238,0.825109
202.2000,5.06546,260.949,0.833558
202.1000,0.628206,261.502,0.84012
202.0000,-0.264082,261.512,0.840241
201.9000,0.846685,262.263,0.849138
201.8000,2.13219,261.941,0.845329
201.7000,-0.062713,262.414,0.85092
201.6000,-1.39431,262.678,0.85404
201.5000,2.43489,263.367,0.862169
201.4000,-2.07418,264.152,0.871414
201.3000,1.06488,263.039,0.858307
201.2000,0.0431773,263.907,0.868535
201.1000,-2.08975,263.923,0.868721
201.0000,2.06783,264.885,0.880024
200.9000,0.409556,264.254,0.872613
200.8000,1.18505,263.733,0.866481
200.7000,0.250147,265.496,0.887182
200.6000,1.43917,264.623,0.876952
200.5000,-1.08298,265.503,0.887261
200.4000,-1.20847,265.507,0.887315
200.3000,1.05131,266.407,0.897834
200.2000,-0.090296,266.541,0.899395
200.1000,2.70949,266.88,0.90336
200.0000,-0.718083,267.006,0.904826
199.9000,-0.329189,267.938,0.915665
199.8000,5.08743,267.635,0.912147
199.7000,0.326013,267.248,0.907637
199.6000,0.607149,268.6,0.923359
199.5000,-3.31139,268.886,0.926669
199.4000,1.2709,268.335,0.920283
199.3000,-1.92629,269.029,0.928323
199.2000,-0.105236,268.918,0.927037
199.1000,3.18403,268.874,0.926525
199.0000,0.182613,269.304,0.93151
198.9000,4.16095,269.565,0.934525
198.8000,0.342309,270.258,0.942534
198.7000,1.48714,270.317,0.943214
198.6000,-0.0320824,270.356,0.943658
198.5000,1.86184,270.475,0.94503
198.4000,1.59121,270.493,0.945239
198.3000,2.18356,272.009,0.962678
198.2000,-0.780761,271.721,0.959373
198.1000,-1.09386,271.891,0.961325
198.0000,-0.400013,272.785,0.971574
197.9000,-1.20462,272.461,0.967862
197.8000,-1.15065,272.749,0.971159
197.7000,-0.43709,273.194,0.976254
197.6000,3.44223,273.162,0.975891
197.5000,4.37969,274.106,0.98667
197.4000,2.63815,273.786,0.983024
197.3000,-0.453688,273.068,0.974816
197.2000,-1.44972,274.304,0.98893
197.1000,1.91426,275.24,0.999581
197.0000,3.1002,274.965,0.996451
196.9000,4.56145,275.394,1.00133
196.8000,4.28849,275.476,1.00226
196.7000,-1.48085,275.329,1.00059
196.6000,-0.0999517,276.132,1.0097
196.5000,6.86138,276.972,1.0192
196.4000,-0.740734,276.904,1.01844
196.3000,1.85334,276.674,1.01583
196.2000,1.97818,277.749,1.02798
196.1000,1.48967,278.465,1.03605
196.0000,1.4037,278.135,1.03234
195.9000,1.36078,278.42,1.03554
195.8000,0.451341,279.776,1.05077
195.7000,3.55215,279.209,1.04442
195.6000,1.36902,279.97,1.05295
195.5000,3.01168,280.278,1.0564
195.4000,-0.142226,280.841,1.0627
195.3000,-2.39305,280.16,1.05508
195.2000,-1.92332,280.759,1.06178
195.1000,0.692467,280.639,1.06044
195.0000,-1.65123,281.784,1.07322
194.9000,2.97966,281.985,1.07546
194.8000,0.301074,282.045,1.07613
194.7000,-6.47164,282.415,1.08024
194.6000,0.177609,283.096,1.08781
194.5000,-0.155256,283.76,1.09517
194.4000,0.17298,284.221,1.10028
194.3000,-1.28677,284.759,1.10623
194.2000,-1.91549,285.381,1.1131
194.1000,-0.74927,285.729,1.11693
194.0000,0.511375,286.715,1.12777
193.9000,-0.157765,287.003,1.13093
193.8000,-1.55955,287.597,1.13746
193.7000,0.935655,288.248,1.14458
193.6000,6.83372,289.026,1.15308
193.5000,3.071,290.078,1.16453
193.4000,-0.302295,290.703,1.17133
193.3000,-0.840452,290.658,1.17084
193.2000,5.02876,291.422,1.17913
193.1000,3.41843,291.951,1.18486
193.0000,5.10847,291.97,1.18506
192.9000,-1.15362,293.051,1.19674
192.8000,2.64998,294.2,1.20911
192.7000,-4.36234,295.033,1.21806
192.6000,-0.153035,295.854,1.22686
192.5000,2.04564,297.221,1.24145
192.4000,-0.378612,297.215,1.24139
192.3000,-0.339579,297.488,1.2443
192.2000,-2.6024,298.843,1.25871
192.1000,-0.482398,300.063,1.27164
192.0000,-3.17056,300.466,1.27589
191.9000,5.35598,301.592,1.28777
191.8000,-5.09321,302.615,1.29853
191.7000,-2.6627,303.201,1.30468
191.6000,1.58705,304.743,1.32081
191.5000,3.47777,304.048,1.31355
191.4000,1.52903,305.444,1.32813
191.3000,3.31282,307.307,1.34749
191.2000,6.14349,308.488,1.35971
191.1000,-2.94161,309.846,1.37372
191.0000,1.50347,311.025,1.38584
190.9000,4.72673,313.248,1.40859
190.8000,-2.87244,313.759,1.4138
190.7000,2.13179,314.882,1.42522
190.6000,0.801505,317.676,1.45351
190.5000,2.0032,318.477,1.46158
190.4000,0.262838,319.922,1.47609
190.3000,-3.3586,321.302,1.4899
190.2000,-5.25221,323.462,1.51142
190.1000,-3.52302,323.406,1.51086
190.0000,-2.0671,325.357,1.5302

##### Extended Information
[Comments]
Sample name,SHND.928.BUFFER
Comment,BUFFER BLANK 
User,SADIYYAH HOLSEY
Division
Company,Saint Mary's College

[Detailed Information]
Creation date,9/28/2022 2:32 PM

Data array type,Linear data array * 3
Horizontal axis,Wavelength [nm]
Vertical axis(1),CD [mdeg]
Vertical axis(2),HT [V]
Vertical axis(3),Abs
Start,320 nm
End,190 nm
Data interval,0.1 nm
Data points,1301    

[Measurement Information]
Instrument name,J-1500
Model name,J-1500
Serial No.,B051061638

Detector,PM-539
Detector S/N,B051061638
  Lock-in amp.,X mode
  HT volt,Auto

Accessory,PTC-517
Accessory S/N,B026561646
  Temperature,27.23 C
  Control sensor,Holder
  Monitor sensor,Holder

Measurement date,9/28/2022 2:32 PM

CD Overload detect,1257
Photometric mode,CD, HT, Abs
Measure range,320 - 190 nm
Data pitch,0.1 nm
CD scale,20 mdeg/0.05 dOD
FL scale,20 mdeg/0.05 dOD
D.I.T.,8 msec
Bandwidth,2.00 nm
Start mode,Immediately
Scanning mode,Continuous
Scanning speed,200 nm/min
Baseline correction,None
Shutter control,Auto
No. of cycle,1/1
N2 Flowmeter,Manual

Solvent,NaPO4 buffer

