TITLE,SHND.928.BUFFER
DATA TYPE,
ORIGIN,JASCO
OWNER,
DATE,22/09/28
TIME,15:31:55
SPECTROMETER/DATA SYSTEM,
LOCALE,1033
RESOLUTION,
DELTAX,-0.1
XUNITS,NANOMETERS
YUNITS,CD [mdeg]
Y2UNITS,HT [V]
Y3UNITS,ABSORBANCE
FIRSTX,  320.0000
LASTX,  190.0000
NPOINTS,    1301
FIRSTY,     1.32792
MAXY,     6.87736
MINY,    -5.66956
XYDATA
320.0000,1.32792,209.326,0.163156
319.9000,1.07528,208.501,0.151382
319.8000,0.837369,208.739,0.154782
319.7000,0.807565,208.941,0.157662
319.6000,2.29151,208.729,0.154636
319.5000,0.550836,209.072,0.159537
319.4000,0.472271,208.733,0.154685
319.3000,1.0373,208.983,0.15826
319.2000,0.726483,208.376,0.149583
319.1000,1.47799,209.102,0.159957
319.0000,1.6396,208.929,0.157484
318.9000,1.57462,209.067,0.159456
318.8000,0.946604,209.511,0.165787
318.7000,0.957546,208.771,0.155235
318.6000,2.16312,208.874,0.156707
318.5000,1.15455,209.113,0.160119
318.4000,0.29852,209.014,0.158696
318.3000,1.85214,209.346,0.16343
318.2000,-0.32667,208.482,0.151106
318.1000,-0.188988,208.934,0.157565
318.0000,1.36395,209.505,0.165706
317.9000,0.950031,208.985,0.158292
317.8000,0.771542,208.785,0.155429
317.7000,1.74066,208.994,0.158422
317.6000,0.46379,209.221,0.161654
317.5000,1.63167,209.789,0.169738
317.4000,0.921505,208.72,0.154507
317.3000,1.47558,207.996,0.14415
317.2000,1.85947,209.104,0.159989
317.1000,1.37221,209.338,0.163317
317.0000,2.72754,208.782,0.155397
316.9000,0.668176,208.916,0.157306
316.8000,0.182822,209.39,0.16406
316.7000,1.64958,208.503,0.151398
316.6000,1.95074,209.492,0.165513
316.5000,2.53916,208.605,0.152855
316.4000,3.64876,208.628,0.153195
316.3000,1.7991,209.34,0.16335
316.2000,0.87414,208.743,0.154831
316.1000,-0.441093,208.1,0.145642
316.0000,-0.0743861,208.457,0.15075
315.9000,1.66523,209.268,0.162332
315.8000,-0.235338,208.711,0.154377
315.7000,2.24672,208.155,0.146421
315.6000,1.11607,208.152,0.146389
315.5000,0.416687,208.739,0.154782
315.4000,0.906001,208.96,0.157937
315.3000,1.21509,209.296,0.16272
315.2000,1.06547,209.256,0.162154
315.1000,2.88814,208.786,0.155445
315.0000,1.39992,208.189,0.146908
314.9000,1.22784,208.151,0.146372
314.8000,1.29258,208.674,0.153843
314.7000,0.852091,208.705,0.154296
314.6000,-0.153793,209.231,0.161799
314.5000,1.08392,208.03,0.144636
314.4000,-0.27357,208.401,0.14994
314.3000,1.26516,208.668,0.153762
314.2000,0.951145,208.138,0.146178
314.1000,-0.112648,208.011,0.14436
314.0000,0.241808,208.761,0.15509
313.9000,2.52185,208.288,0.148335
313.8000,2.77446,209.15,0.160636
313.7000,1.03222,208.782,0.155397
313.6000,1.37197,208.872,0.156675
313.5000,1.96382,207.952,0.143516
313.4000,0.689198,208.827,0.156028
313.3000,-0.621797,208.942,0.157678
313.2000,-0.0136015,209.297,0.162736
313.1000,0.241988,208.506,0.151447
313.0000,-0.303498,208.248,0.147751
312.9000,1.80311,207.857,0.142152
312.8000,1.6524,208.369,0.149486
312.7000,0.699671,208.622,0.153098
312.6000,1.20597,208.574,0.152418
312.5000,0.607014,209.154,0.160701
312.4000,0.665698,209.272,0.162381
312.3000,0.498822,207.938,0.143322
312.2000,0.734348,208.462,0.150815
312.1000,-0.0223805,208.271,0.148092
312.0000,1.99189,209.736,0.168996
311.9000,0.115576,208.019,0.144474
311.8000,0.0164804,208.288,0.148335
311.7000,0.788976,208.68,0.15394
311.6000,1.42764,208.314,0.148708
311.5000,1.10069,207.368,0.135146
311.4000,-0.209018,208.224,0.147411
311.3000,0.244581,208.202,0.147102
311.2000,-0.550142,208.418,0.150183
311.1000,0.895354,208.669,0.153779
311.0000,1.27673,209.393,0.164108
310.9000,1.34435,208.388,0.149761
310.8000,0.563516,208.237,0.147605
310.7000,1.8918,208.82,0.155931
310.6000,0.426315,209.268,0.162332
310.5000,1.24377,207.91,0.142916
310.4000,-0.187908,208.279,0.148205
310.3000,-0.579067,208.696,0.154167
310.2000,0.711402,208.435,0.150426
310.1000,0.741605,208.717,0.154458
310.0000,-0.0837274,209.198,0.161331
309.9000,0.645497,208.616,0.153017
309.8000,1.14234,208.381,0.149664
309.7000,2.40421,208.619,0.153066
309.6000,0.861665,208.139,0.146194
309.5000,1.80907,208.006,0.144296
309.4000,0.387587,207.805,0.141405
309.3000,1.81975,208.411,0.150085
309.2000,2.39735,208.181,0.146794
309.1000,2.51268,208.36,0.149356
309.0000,2.15794,207.645,0.139114
308.9000,0.508787,208.592,0.152677
308.8000,0.359032,208.439,0.150491
308.7000,2.4664,208.737,0.15475
308.6000,1.68837,207.958,0.143598
308.5000,-1.11015,209.227,0.161735
308.4000,1.38733,208.52,0.151641
308.3000,0.406626,208.288,0.148335
308.2000,0.493119,208.355,0.149291
308.1000,2.17779,208.095,0.145561
308.0000,0.222533,208.727,0.154604
307.9000,-0.987754,208.503,0.151398
307.8000,1.29049,207.655,0.13926
307.7000,-0.498025,208.45,0.150653
307.6000,1.01705,209.875,0.170962
307.5000,0.0538,207.494,0.136952
307.4000,-1.09636,209.638,0.167594
307.3000,1.99312,208.288,0.148335
307.2000,2.34929,207.802,0.141373
307.1000,0.22523,208.789,0.155494
307.0000,1.18807,208.669,0.153779
306.9000,0.615304,208.564,0.152273
306.8000,-0.408404,208.514,0.15156
306.7000,0.554691,208.471,0.150944
306.6000,2.06361,208.098,0.14561
306.5000,1.39665,208.067,0.145172
306.4000,0.598851,208.493,0.151268
306.3000,1.16546,209.46,0.165061
306.2000,0.513767,208.118,0.145902
306.1000,2.62118,208.294,0.148416
306.0000,0.0677908,209.203,0.161395
305.9000,0.803696,208.68,0.15394
305.8000,-0.616907,208.539,0.151916
305.7000,0.304827,207.948,0.143468
305.6000,-0.113719,208.606,0.152872
305.5000,1.6336,207.717,0.140154
305.4000,0.828092,208.103,0.145675
305.3000,0.373735,208.211,0.147232
305.2000,1.08909,209.063,0.159408
305.1000,1.72008,208.08,0.145351
305.0000,0.967267,208.558,0.152192
304.9000,2.41492,208.246,0.147735
304.8000,2.3266,208.241,0.147654
304.7000,1.26315,208.155,0.146421
304.6000,1.32788,208.872,0.156675
304.5000,0.496163,207.947,0.143451
304.4000,1.084,208.225,0.147427
304.3000,0.675911,209.066,0.15944
304.2000,2.16483,208.413,0.150118
304.1000,-1.55921,208.235,0.147573
304.0000,2.4254,208.256,0.147865
303.9000,1.02503,208.475,0.151009
303.8000,-0.101671,208.571,0.15237
303.7000,2.8009,208.109,0.145772
303.6000,0.401861,208.913,0.157257
303.5000,2.33475,207.999,0.144198
303.4000,1.95988,208.243,0.147686
303.3000,1.57385,209.24,0.161928
303.2000,0.931546,208.67,0.153795
303.1000,-0.939492,208.054,0.144977
303.0000,-0.0636613,208.959,0.15792
302.9000,-0.0215599,207.781,0.141064
302.8000,1.58006,207.491,0.136903
302.7000,0.672761,208.649,0.153487
302.6000,1.1825,207.694,0.139813
302.5000,0.243442,208.415,0.15015
302.4000,1.01624,208.023,0.144539
302.3000,1.34372,208.645,0.153438
302.2000,1.48356,208.634,0.153276
302.1000,0.320426,208.248,0.147751
302.0000,0.696286,208.044,0.144831
301.9000,1.61899,206.99,0.129707
301.8000,0.0849142,207.201,0.132737
301.7000,1.23377,207.933,0.14324
301.6000,-0.523629,207.976,0.143857
301.5000,1.00313,207.653,0.139228
301.4000,1.81316,208.999,0.158486
301.3000,0.979162,207.776,0.140999
301.2000,1.22043,207.731,0.140349
301.1000,0.705009,208.101,0.145659
301.0000,0.804173,208.446,0.150588
300.9000,2.60562,207.064,0.130766
300.8000,-0.731993,208.486,0.151155
300.7000,0.43675,208.036,0.144718
300.6000,-0.39055,207.397,0.135553
300.5000,0.394339,208.68,0.15394
300.4000,1.18863,207.189,0.132574
300.3000,0.815133,208.254,0.147848
300.2000,1.38137,208.066,0.145156
300.1000,-0.406544,208.701,0.154232
300.0000,1.48123,207.969,0.14376
299.9000,1.79242,207.658,0.139309
299.8000,-0.484857,208.185,0.146859
299.7000,1.44039,208.06,0.145058
299.6000,0.0248855,206.487,0.122464
299.5000,3.13459,206.838,0.127522
299.4000,0.880386,206.983,0.129609
299.3000,0.551876,206.798,0.126951
299.2000,0.498599,208.761,0.15509
299.1000,0.502745,207.24,0.133306
299.0000,0.191082,207.384,0.135374
298.9000,0.401782,207.488,0.13687
298.8000,0.934139,208.117,0.145886
298.7000,1.2737,207.036,0.130375
298.6000,1.23725,207.222,0.133046
298.5000,-1.21273,207.8,0.14134
298.4000,-0.210415,207.81,0.141486
298.3000,0.34815,207.162,0.132183
298.2000,-0.761587,207.85,0.142055
298.1000,1.44446,208.363,0.149405
298.0000,1.67424,206.643,0.124716
297.9000,0.24665,206.916,0.128647
297.8000,2.05192,207.755,0.14069
297.7000,0.961493,207.653,0.139228
297.6000,0.247969,207.209,0.132851
297.5000,1.22129,207.576,0.138123
297.4000,0.0534091,207.755,0.14069
297.3000,1.91287,208.207,0.147167
297.2000,0.116308,207.62,0.138756
297.1000,0.859268,207.85,0.142055
297.0000,2.76384,207.765,0.140837
296.9000,1.78908,206.655,0.12488
296.8000,1.55783,208.075,0.145286
296.7000,0.913965,207.42,0.135894
296.6000,2.32596,208.133,0.146113
296.5000,0.898712,208.507,0.151463
296.4000,0.81,207.647,0.139147
296.3000,-0.336152,206.994,0.129772
296.2000,1.32854,207.45,0.136317
296.1000,0.0524037,207.52,0.137326
296.0000,1.34941,207.069,0.130847
295.9000,1.08151,207.254,0.133502
295.8000,1.48935,208.019,0.144474
295.7000,0.823728,207.407,0.135699
295.6000,-0.170473,206.623,0.124423
295.5000,1.4459,207.609,0.138594
295.4000,0.65328,207.638,0.139017
295.3000,0.192482,207.476,0.136691
295.2000,1.9539,207.33,0.134592
295.1000,1.17812,208.18,0.146778
295.0000,0.233904,208.026,0.144571
294.9000,1.89625,207.407,0.135699
294.8000,-0.194313,207.832,0.141795
294.7000,1.20664,207.841,0.141925
294.6000,1.1549,207.763,0.140804
294.5000,1.46717,208.402,0.149956
294.4000,1.94592,207.512,0.137212
294.3000,0.455858,206.605,0.124162
294.2000,0.91156,207.152,0.132037
294.1000,1.77538,208.353,0.149259
294.0000,1.55405,207.155,0.132085
293.9000,2.04282,206.468,0.122186
293.8000,0.798491,207.452,0.13635
293.7000,-0.0558378,207.221,0.13303
293.6000,-0.852516,207.469,0.136594
293.5000,-0.801517,207.631,0.138919
293.4000,0.0493983,206.87,0.127979
293.3000,0.752119,207.738,0.140447
293.2000,0.837064,207.38,0.135309
293.1000,2.14637,207.417,0.135846
293.0000,0.712854,207.397,0.135553
292.9000,2.36794,206.925,0.128778
292.8000,1.27821,207.113,0.131483
292.7000,0.188052,207.347,0.134837
292.6000,0.0118034,207.684,0.139683
292.5000,0.365082,206.883,0.128174
292.4000,1.73147,207.291,0.134039
292.3000,0.231733,206.889,0.128256
292.2000,-0.988704,206.959,0.129267
292.1000,0.0915492,208.09,0.145496
292.0000,1.59386,206.381,0.120945
291.9000,0.951107,206.584,0.123868
291.8000,0.127328,206.648,0.124782
291.7000,1.11936,207.034,0.130342
291.6000,-0.764989,207.415,0.135813
291.5000,0.359015,207.163,0.132199
291.4000,2.53801,206.345,0.120422
291.3000,0.817957,206.37,0.120781
291.2000,1.97669,207.937,0.143305
291.1000,1.25122,206.813,0.127164
291.0000,0.359858,206.183,0.118085
290.9000,0.978708,206.7,0.125532
290.8000,1.34505,206.743,0.126152
290.7000,0.63211,206.23,0.118755
290.6000,2.26343,206.386,0.12101
290.5000,1.16061,206.613,0.124276
290.4000,-0.88042,205.975,0.115075
290.3000,0.609258,206.281,0.119491
290.2000,0.00546642,207.232,0.133193
290.1000,0.142433,206.475,0.1223
290.0000,0.670828,207.686,0.139699
289.9000,2.33778,206.763,0.126446
289.8000,1.58321,206.849,0.127685
289.7000,-0.263242,207.116,0.131515
289.6000,0.440629,207.258,0.133567
289.5000,1.89752,208.229,0.147492
289.4000,1.02724,206.743,0.126152
289.3000,1.11857,207.221,0.13303
289.2000,1.43692,207.011,0.130016
289.1000,1.48549,207.045,0.130505
289.0000,0.259481,207.797,0.141292
288.9000,0.667729,206.194,0.118248
288.8000,0.732649,206.844,0.127604
288.7000,1.51079,207.483,0.136789
288.6000,1.95261,205.243,0.10449
288.5000,2.62963,207.406,0.135683
288.4000,-1.01417,207.214,0.132932
288.3000,-0.384301,207.132,0.131743
288.2000,1.47634,206.17,0.117888
288.1000,1.06983,207.028,0.130261
288.0000,-0.160607,206.972,0.129446
287.9000,1.00831,207.844,0.141974
287.8000,0.90553,208.036,0.144718
287.7000,0.213274,206.892,0.128305
287.6000,1.02714,207.422,0.13591
287.5000,1.6507,206.266,0.119278
287.4000,1.08607,206.973,0.129462
287.3000,0.897938,208.267,0.148027
287.2000,0.228303,206.447,0.121892
287.1000,-0.219791,206.742,0.126136
287.0000,-0.420505,207.545,0.137683
286.9000,2.06886,206.111,0.117038
286.8000,-0.619333,206.068,0.116417
286.7000,1.17903,207.044,0.130489
286.6000,3.4005,206.577,0.12377
286.5000,-0.781998,207.451,0.136334
286.4000,0.24456,208.055,0.144993
286.3000,-0.267149,207.211,0.132883
286.2000,0.699411,206.965,0.129348
286.1000,0.337108,206.196,0.118265
286.0000,0.00286769,205.943,0.114617
285.9000,1.68042,206.429,0.121631
285.8000,1.98723,207.374,0.135227
285.7000,-0.651056,207.658,0.139309
285.6000,-0.131162,206.811,0.127131
285.5000,-0.0907737,205.596,0.109606
285.4000,1.58377,206.278,0.119458
285.3000,0.63367,207.74,0.140479
285.2000,-1.90874,207.015,0.130065
285.1000,0.979988,206.004,0.115501
285.0000,1.4986,206.855,0.127767
284.9000,1.23798,206.485,0.122431
284.8000,0.618901,207.215,0.132948
284.7000,0.13008,207.423,0.135927
284.6000,-0.501104,206.998,0.129821
284.5000,0.994819,205.891,0.113864
284.4000,0.649827,206.551,0.123394
284.3000,0.307341,207.143,0.131906
284.2000,1.19459,206.489,0.122496
284.1000,0.772166,206.482,0.122399
284.0000,0.985416,207.026,0.130228
283.9000,-0.0270289,206.264,0.119245
283.8000,1.06295,206.154,0.11766
283.7000,0.544609,207.128,0.131695
283.6000,0.439438,208.189,0.146908
283.5000,-0.718602,207.36,0.135032
283.4000,1.88775,207.045,0.130505
283.3000,0.72522,206.949,0.12912
283.2000,0.464935,207.299,0.134153
283.1000,0.601711,206.565,0.12359
283.0000,1.71954,207.11,0.131434
282.9000,1.0417,206.759,0.126381
282.8000,-0.0535041,207.349,0.134869
282.7000,-0.701632,207.096,0.131238
282.6000,0.759866,206.988,0.129674
282.5000,1.64556,206.89,0.128272
282.4000,0.0360221,207.111,0.13145
282.3000,1.8691,207.065,0.130782
282.2000,0.632052,207.076,0.130945
282.1000,0.49106,206.993,0.129756
282.0000,-0.265196,207.517,0.137277
281.9000,3.44996,206.929,0.128826
281.8000,0.0495429,206.863,0.127881
281.7000,1.56675,206.313,0.119965
281.6000,0.935359,207.201,0.132737
281.5000,0.215893,207.264,0.133649
281.4000,0.782876,206.993,0.129756
281.3000,-1.25395,206.649,0.124798
281.2000,2.10923,207.824,0.141681
281.1000,2.48797,206.485,0.122431
281.0000,0.448533,207.286,0.133958
280.9000,2.18611,206.438,0.121762
280.8000,-0.817845,207.65,0.139195
280.7000,1.08366,205.923,0.114323
280.6000,-0.338841,206.721,0.125842
280.5000,0.56173,206.95,0.129136
280.4000,1.48456,207.108,0.131401
280.3000,-0.198749,207.149,0.131988
280.2000,-0.592446,206.788,0.126805
280.1000,0.0889211,206.777,0.126642
280.0000,0.753917,207.209,0.132851
279.9000,0.981952,206.517,0.122905
279.8000,-1.0538,207.333,0.134641
279.7000,1.84863,206.669,0.125092
279.6000,0.272509,207.449,0.136301
279.5000,-0.0679577,206.594,0.124015
279.4000,0.519005,207.389,0.135439
279.3000,-0.414752,207.189,0.132574
279.2000,2.18245,207.049,0.130554
279.1000,0.370156,207.244,0.133355
279.0000,2.04514,206.421,0.121517
278.9000,1.13382,207.338,0.134707
278.8000,0.581609,207.213,0.132916
278.7000,0.578345,206.912,0.128582
278.6000,0.517873,206.521,0.122953
278.5000,-0.416814,206.73,0.125973
278.4000,0.316561,206.051,0.116171
278.3000,-0.109659,205.826,0.112931
278.2000,0.491564,206.84,0.127555
278.1000,0.261883,207.248,0.133421
278.0000,0.66345,207.295,0.134088
277.9000,0.499376,207.389,0.135439
277.8000,0.834624,206.609,0.124227
277.7000,1.17391,206.715,0.125745
277.6000,0.813381,207.189,0.132574
277.5000,-0.39962,207.442,0.136203
277.4000,0.385513,207.98,0.143922
277.3000,0.359229,207.392,0.135487
277.2000,0.539913,205.773,0.112161
277.1000,1.58421,206.962,0.129299
277.0000,0.848419,206.235,0.118837
276.9000,0.641951,207.304,0.134218
276.8000,0.956619,207.692,0.139797
276.7000,0.641196,207.643,0.139081
276.6000,-1.3845,207.329,0.134576
276.5000,0.797684,207.934,0.143257
276.4000,0.890014,206.923,0.128745
276.3000,0.149451,206.206,0.118412
276.2000,0.773105,207.064,0.130766
276.1000,0.784532,206.213,0.11851
276.0000,0.295783,207.376,0.13526
275.9000,0.612672,207.334,0.134658
275.8000,1.0266,207.573,0.13809
275.7000,-0.326838,207.56,0.137895
275.6000,1.01957,206.244,0.118968
275.5000,0.66256,207.291,0.134039
275.4000,-1.7865,207.334,0.134658
275.3000,1.1288,206.931,0.128859
275.2000,-1.95967,207.385,0.13539
275.1000,0.636869,207.193,0.132623
275.0000,1.66409,207.339,0.134723
274.9000,0.638899,206.211,0.118494
274.8000,0.229367,207.376,0.13526
274.7000,0.38198,207.064,0.130766
274.6000,-1.2875,206.798,0.126951
274.5000,0.529967,207.159,0.132134
274.4000,1.33117,208.144,0.146275
274.3000,-0.658317,206.598,0.124064
274.2000,0.578435,207.383,0.135357
274.1000,-1.0793,206.763,0.126446
274.0000,0.660312,206.376,0.120863
273.9000,0.389163,207.453,0.136366
273.8000,0.996282,207.173,0.132346
273.7000,1.15991,207.938,0.143322
273.6000,0.471368,207.112,0.131466
273.5000,0.318364,207.189,0.132574
273.4000,0.513957,206.576,0.123753
273.3000,-0.629033,207.79,0.141194
273.2000,0.0102857,207.096,0.131238
273.1000,0.0341442,207.041,0.13044
273.0000,1.01286,206.988,0.129674
272.9000,1.75592,208.318,0.148757
272.8000,-0.272539,207.95,0.143484
272.7000,-0.20519,206.515,0.122872
272.6000,0.174174,206.614,0.124292
272.5000,-1.03126,206.784,0.12674
272.4000,-1.21674,206.431,0.121664
272.3000,-0.788548,206.57,0.123656
272.2000,-0.796705,207.212,0.132899
272.1000,0.148761,206.299,0.119752
272.0000,0.966845,206.844,0.127604
271.9000,1.80701,207.207,0.132835
271.8000,0.264623,207.526,0.137407
271.7000,0.858819,208.319,0.148773
271.6000,-1.04398,207.951,0.1435
271.5000,1.30926,207.494,0.136952
271.4000,-0.873163,207.776,0.140999
271.3000,-0.0853488,208.001,0.144215
271.2000,1.98765,207.905,0.142851
271.1000,0.433553,207.465,0.136529
271.0000,-1.44945,207.392,0.135487
270.9000,2.23329,207.456,0.136398
270.8000,1.25958,207.851,0.142071
270.7000,1.52284,208.004,0.144263
270.6000,0.296387,208.381,0.149664
270.5000,0.372551,207.183,0.132476
270.4000,-0.547663,208.046,0.144864
270.3000,1.18841,208.58,0.152499
270.2000,-1.76796,207.372,0.135195
270.1000,2.00775,207.546,0.1377
270.0000,-0.00833996,208.546,0.152013
269.9000,0.0228989,208.622,0.153098
269.8000,0.149497,207.836,0.14186
269.7000,1.33033,207.885,0.142558
269.6000,-1.13763,207.4,0.135602
269.5000,-0.914587,207.822,0.141649
269.4000,-0.0828699,208.515,0.151576
269.3000,2.13502,208.516,0.151592
269.2000,0.315016,208.226,0.147443
269.1000,0.091757,207.621,0.138773
269.0000,0.206419,207.433,0.136073
268.9000,-0.537255,209.054,0.159279
268.8000,0.34217,207.018,0.130114
268.7000,0.571137,208.202,0.147102
268.6000,1.48646,208.225,0.147427
268.5000,0.00407819,207.896,0.142721
268.4000,0.277278,208.762,0.155106
268.3000,1.81376,208.104,0.145691
268.2000,-0.726346,207.929,0.143192
268.1000,0.376265,209.156,0.160733
268.0000,0.561051,208.43,0.150361
267.9000,2.17627,207.661,0.139342
267.8000,1.51497,208.243,0.147686
267.7000,0.263369,208.524,0.151706
267.6000,0.730195,208.29,0.148351
267.5000,2.44703,207.988,0.144036
267.4000,0.599917,209.074,0.159553
267.3000,1.66202,208.159,0.146486
267.2000,0.901519,208.036,0.144718
267.1000,0.68949,208.146,0.146291
267.0000,-0.517418,207.952,0.143516
266.9000,0.373682,209.528,0.166029
266.8000,-0.185479,208.567,0.152321
266.7000,0.162551,208.328,0.148902
266.6000,0.593393,208.699,0.154199
266.5000,2.23387,208.441,0.150523
266.4000,-1.4246,208.617,0.153034
266.3000,-0.912438,208.043,0.144815
266.2000,2.11395,209.014,0.158696
266.1000,0.397704,208.74,0.154798
266.0000,0.135636,209.181,0.161088
265.9000,-0.177543,209.154,0.160701
265.8000,-0.391775,209.804,0.169963
265.7000,0.642653,208.5,0.151366
265.6000,0.931338,208.006,0.144296
265.5000,1.56478,209.446,0.164867
265.4000,-0.742509,208.755,0.155009
265.3000,1.66862,209.522,0.165948
265.2000,1.26966,209.205,0.161428
265.1000,1.01386,209.425,0.16456
265.0000,-0.626056,207.735,0.140414
264.9000,-1.92301,208.619,0.153066
264.8000,-0.85495,208.59,0.152645
264.7000,0.354252,208.968,0.15805
264.6000,0.111798,209.971,0.172332
264.5000,-0.824146,209.338,0.163317
264.4000,1.32397,209.21,0.161492
264.3000,-0.270051,209.225,0.161719
264.2000,0.766091,210.287,0.176823
264.1000,-0.811551,209.291,0.162655
264.0000,-0.73553,209.986,0.172541
263.9000,1.29093,209.466,0.165141
263.8000,-0.737064,208.822,0.155963
263.7000,2.12182,209.919,0.171591
263.6000,0.64409,207.834,0.141827
263.5000,0.510963,209.62,0.167335
263.4000,0.808213,209.095,0.15986
263.3000,0.771146,208.853,0.1564
263.2000,-0.603403,209.046,0.159165
263.1000,-0.693989,209.203,0.161395
263.0000,0.99213,209.996,0.172686
262.9000,1.67397,209.625,0.167416
262.8000,3.92633,208.691,0.154086
262.7000,2.99264,209.945,0.171961
262.6000,1.16195,209.859,0.170737
262.5000,1.03772,210.335,0.177498
262.4000,1.79423,209.059,0.159343
262.3000,-0.282728,209.208,0.161476
262.2000,-1.74094,209.814,0.170093
262.1000,1.44052,209.424,0.164544
262.0000,-1.66968,209.438,0.164754
261.9000,-0.752108,209.707,0.168577
261.8000,0.423171,209.803,0.169947
261.7000,0.554666,210.532,0.180296
261.6000,-0.0988475,210.329,0.177418
261.5000,0.316151,209.854,0.170673
261.4000,0.413666,210.797,0.184054
261.3000,-0.453137,209.406,0.164286
261.2000,-0.255804,209.397,0.164157
261.1000,0.538486,210.092,0.174055
261.0000,-0.169183,210.141,0.174747
260.9000,-0.903619,209.465,0.165125
260.8000,0.0923267,209.018,0.158761
260.7000,1.58722,211.26,0.190615
260.6000,0.882783,210.253,0.17634
260.5000,0.0376695,210.604,0.181324
260.4000,0.175957,210.641,0.181838
260.3000,0.154514,209.705,0.168545
260.2000,1.26416,209.799,0.169883
260.1000,1.07288,210.402,0.178447
260.0000,0.917857,210.443,0.179042
259.9000,1.55199,210.525,0.180199
259.8000,1.5712,209.717,0.168722
259.7000,0.973314,210.082,0.17391
259.6000,1.35338,210.267,0.176533
259.5000,-1.35211,211.066,0.187857
259.4000,-0.214196,211.854,0.199002
259.3000,0.723506,209.155,0.160717
259.2000,0.276196,212.111,0.20263
259.1000,-0.483441,210.258,0.176404
259.0000,0.209875,211.106,0.188435
258.9000,0.577233,211.063,0.187825
258.8000,1.71042,211.567,0.194955
258.7000,0.694991,210.407,0.178527
258.6000,0.0607025,210.414,0.178624
258.5000,-0.0138857,210.595,0.181196
258.4000,0.283711,210.83,0.18452
258.3000,-0.759979,211.771,0.197835
258.2000,0.226374,210.824,0.18444
258.1000,-0.667745,210.862,0.184969
258.0000,1.03008,212.292,0.205168
257.9000,-2.43089,211.02,0.187216
257.8000,-0.0731112,210.985,0.186718
257.7000,-0.0561475,211.462,0.193466
257.6000,-0.304966,210.727,0.183059
257.5000,-0.0388444,210.942,0.186109
257.4000,1.66598,210.933,0.18598
257.3000,0.241941,212.004,0.201112
257.2000,0.532526,210.871,0.185098
257.1000,-0.0124767,211.096,0.18829
257.0000,0.716758,211.997,0.201016
256.9000,-0.739601,211.527,0.194379
256.8000,0.0784385,211.643,0.196027
256.7000,0.179629,211.433,0.193049
256.6000,1.5374,210.906,0.185595
256.5000,-0.2671,212.573,0.209125
256.4000,0.918773,211.161,0.189204
256.3000,0.0561341,211.994,0.200968
256.2000,0.352504,211.989,0.200904
256.1000,-0.419621,212.134,0.202949
256.0000,0.210827,210.626,0.181629
255.9000,0.373876,212.225,0.204226
255.8000,-0.12638,211.034,0.187408
255.7000,-0.314347,211.996,0.201
255.6000,1.56189,211.834,0.198714
255.5000,0.597078,211.921,0.199945
255.4000,-1.30868,211.992,0.200952
255.3000,-0.0595821,211.029,0.187344
255.2000,0.922326,212.281,0.205025
255.1000,2.11404,212.492,0.207992
255.0000,-1.40142,212.568,0.209061
254.9000,-1.66445,212.175,0.203524
254.8000,-0.388813,211.791,0.198107
254.7000,0.891097,211.939,0.200201
254.6000,0.649697,212.331,0.205727
254.5000,-0.0720972,211.83,0.198666
254.4000,0.572444,211.68,0.196539
254.3000,0.692621,212.401,0.206716
254.2000,-0.788155,211.717,0.197067
254.1000,-0.209184,212.707,0.211021
254.0000,2.07973,212.035,0.201559
253.9000,0.521965,212.45,0.207402
253.8000,0.45634,212.115,0.202678
253.7000,2.60267,212.122,0.202773
253.6000,-1.64041,212.042,0.201655
253.5000,0.184557,212.986,0.21494
253.4000,1.03557,212.541,0.208678
253.3000,0.448427,212.588,0.209348
253.2000,0.374565,212.294,0.2052
253.1000,0.947617,212.355,0.206062
253.0000,-1.02882,212.156,0.203253
252.9000,-0.594237,211.931,0.200089
252.8000,2.72246,212.737,0.211436
252.7000,0.733409,212.416,0.206924
252.6000,2.13787,212.638,0.210049
252.5000,-1.30972,212.306,0.205376
252.4000,0.242704,213.01,0.215274
252.3000,-1.08491,212.676,0.210575
252.2000,-0.0995022,213.736,0.225462
252.1000,0.958896,212.884,0.213507
252.0000,1.72864,212.493,0.208008
251.9000,-0.464453,212.46,0.207546
251.8000,-0.368466,212.627,0.20989
251.7000,-1.29475,213.592,0.223446
251.6000,1.42488,212.691,0.210798
251.5000,0.761462,213.788,0.226192
251.4000,0.80153,212.774,0.211961
251.3000,0.713386,213.615,0.223764
251.2000,1.09195,213.142,0.217135
251.1000,-0.555353,212.699,0.21091
251.0000,1.42389,213.932,0.228207
250.9000,-0.195782,212.884,0.213507
250.8000,1.78025,213.01,0.215274
250.7000,0.186078,213.48,0.221873
250.6000,-1.65938,213.429,0.221158
250.5000,-1.51946,212.877,0.213411
250.4000,-0.374879,214.416,0.234973
250.3000,1.08569,213.426,0.22111
250.2000,-0.848903,214.086,0.230363
250.1000,0.600499,213.091,0.216419
250.0000,1.1748,213.448,0.221428
249.9000,-2.02806,213.009,0.215258
249.8000,1.64137,213.35,0.220046
249.7000,0.611211,214.113,0.230744
249.6000,-1.86776,212.915,0.213936
249.5000,0.598509,213.199,0.217931
249.4000,-0.610057,213.839,0.226906
249.3000,-1.14144,214.425,0.2351
249.2000,-0.7867,214.278,0.233041
249.1000,-0.022228,212.952,0.214462
249.0000,-0.880338,214.068,0.23011
248.9000,1.60434,213.84,0.226922
248.8000,1.03163,212.831,0.212758
248.7000,0.203739,213.755,0.225732
248.6000,-0.18278,213.655,0.224319
248.5000,-0.890027,213.512,0.222318
248.4000,0.821912,214.076,0.230221
248.3000,-0.710697,213.752,0.225684
248.2000,-0.159471,213.674,0.224589
248.1000,1.24872,214.046,0.229793
248.0000,0.833014,213.573,0.223176
247.9000,0.0428193,213.723,0.225272
247.8000,-0.132241,214.253,0.232693
247.7000,0.876829,214.321,0.233643
247.6000,1.3609,214.283,0.233121
247.5000,-0.0574659,214.053,0.229904
247.4000,1.62901,213.585,0.22335
247.3000,1.57051,214.126,0.230918
247.2000,-0.439138,214.619,0.237806
247.1000,0.937471,214.324,0.233691
247.0000,0.0923727,214.628,0.237932
246.9000,0.23446,214.911,0.241884
246.8000,0.323735,215.192,0.245801
246.7000,0.944609,214.698,0.238913
246.6000,0.79881,214.884,0.241505
246.5000,0.376422,214.169,0.23152
246.4000,0.818686,214.672,0.238549
246.3000,0.0469973,214.686,0.238739
246.2000,-1.06838,214.644,0.238154
246.1000,0.0208672,215.022,0.243433
246.0000,1.36076,215.064,0.244017
245.9000,-0.95216,214.441,0.235321
245.8000,1.13744,215.342,0.247884
245.7000,-0.17132,215.729,0.253275
245.6000,2.08271,215.16,0.245359
245.5000,-0.41496,214.868,0.241284
245.4000,-0.364952,214.905,0.241805
245.3000,1.72054,215.188,0.245738
245.2000,0.186296,215.96,0.256487
245.1000,-1.54983,214.911,0.241884
245.0000,1.25859,215.807,0.254362
244.9000,1.01291,215.275,0.246953
244.8000,1.29355,215.53,0.250502
244.7000,0.820009,215.083,0.244286
244.6000,0.916814,215.83,0.254677
244.5000,-0.534732,215.557,0.25088
244.4000,-0.561827,216.477,0.263656
244.3000,2.42207,216.467,0.263515
244.2000,0.471081,215.322,0.247616
244.1000,-0.237385,215.17,0.245485
244.0000,-0.16569,216.113,0.258611
243.9000,1.67166,216.395,0.262525
243.8000,0.0527658,214.966,0.242643
243.7000,-0.448951,215.696,0.252818
243.6000,0.174031,215.79,0.254126
243.5000,0.952298,217.155,0.273036
243.4000,0.51325,216.188,0.259649
243.3000,1.15483,215.778,0.253952
243.2000,0.0668621,216.55,0.264661
243.1000,0.89005,216.89,0.269369
243.0000,-0.71712,215.406,0.248783
242.9000,1.12243,214.847,0.240984
242.8000,1.01667,216.096,0.258375
242.7000,-0.347821,216.5,0.26397
242.6000,0.246412,216.189,0.259664
242.5000,0.495795,216.827,0.268506
242.4000,-0.0359944,215.494,0.249997
242.3000,1.73065,216.765,0.267644
242.2000,2.15366,216.873,0.269134
242.1000,0.513507,217.584,0.278969
242.0000,1.43185,216.766,0.267659
241.9000,0.391586,217.558,0.27861
241.8000,0.802464,217.318,0.275292
241.7000,-0.797207,217.47,0.277389
241.6000,0.498096,217.08,0.272002
241.5000,-0.632445,217.229,0.274071
241.4000,-0.270649,216.65,0.266058
241.3000,-0.523018,216.901,0.269526
241.2000,-1.49869,217.73,0.280986
241.1000,-0.247258,217.921,0.283612
241.0000,-0.26606,217.075,0.27194
240.9000,0.727166,217.865,0.282846
240.8000,1.27352,217.925,0.283674
240.7000,-1.88142,216.505,0.264049
240.6000,-1.48546,217.361,0.275887
240.5000,-1.32196,218.265,0.288357
240.4000,-0.443915,217.657,0.27997
240.3000,-0.35995,218.029,0.285111
240.2000,-0.218791,217.321,0.275339
240.1000,-1.51532,218.307,0.288934
240.0000,-1.13005,217.558,0.27861
239.9000,1.02841,218.225,0.287811
239.8000,-2.09588,218.233,0.28792
239.7000,0.289586,218.149,0.286766
239.6000,-0.616505,218.518,0.291835
239.5000,0.666475,219.798,0.309404
239.4000,-1.12129,218.367,0.289761
239.3000,0.127682,219.247,0.301858
239.2000,-0.714483,218.707,0.294436
239.1000,-0.792757,218.594,0.292878
239.0000,0.320288,219.081,0.299572
238.9000,0.635571,218.274,0.288482
238.8000,-0.30815,218.645,0.29358
238.7000,-2.07551,219.542,0.305897
238.6000,-1.43527,218.784,0.295495
238.5000,0.22472,219.178,0.30091
238.4000,0.0352262,218.512,0.291757
238.3000,-0.825469,218.995,0.29839
238.2000,1.4171,219.171,0.300816
238.1000,2.52948,218.965,0.297986
238.0000,0.191637,219.021,0.298748
237.9000,1.27623,219.698,0.308039
237.8000,-0.214951,219.39,0.303816
237.7000,0.184129,220.313,0.316439
237.6000,1.52955,219.916,0.311017
237.5000,0.937658,220.439,0.318172
237.4000,1.82209,220.392,0.317523
237.3000,0.00038198,219.85,0.310117
237.2000,-0.250041,219.879,0.310505
237.1000,-0.431436,219.686,0.307868
237.0000,2.30161,220.559,0.319812
236.9000,2.23692,220.725,0.32207
236.8000,1.47634,220.644,0.320972
236.7000,0.386662,220.555,0.319751
236.6000,-1.07718,220.597,0.320323
236.5000,-1.76748,220.711,0.321884
236.4000,-0.27152,220.544,0.319596
236.3000,-0.495577,221.184,0.328325
236.2000,0.485631,220.31,0.316408
236.1000,-0.413615,221.415,0.331471
236.0000,-1.19366,221.119,0.327445
235.9000,1.56866,221.469,0.332211
235.8000,0.749811,222.406,0.344936
235.7000,-0.765991,221.42,0.331533
235.6000,-0.258428,221.072,0.326797
235.5000,-0.853041,221.271,0.329513
235.4000,-0.922946,221.008,0.325932
235.3000,-0.991321,221.663,0.334846
235.2000,0.231849,221.029,0.32621
235.1000,0.273895,220.983,0.325592
235.0000,1.43882,221.926,0.338418
234.9000,-0.447337,221.473,0.332257
234.8000,1.36321,221.616,0.334199
234.7000,-0.449481,222.172,0.341755
234.6000,-0.870431,221.112,0.327352
234.5000,1.08972,222.446,0.345474
234.4000,-0.597747,222.094,0.340694
234.3000,1.0345,222.395,0.344783
234.2000,0.99686,223.04,0.353513
234.1000,-0.594744,222.513,0.34638
234.0000,1.19191,222.644,0.348161
233.9000,-0.549234,222.973,0.352609
233.8000,0.856115,222.863,0.351122
233.7000,-0.203101,222.546,0.346825
233.6000,0.753114,222.272,0.343108
233.5000,0.73261,223.612,0.361244
233.4000,-0.480445,223.133,0.35477
233.3000,2.59516,223.998,0.366455
233.2000,2.54583,223.306,0.357112
233.1000,0.125926,223.512,0.359898
233.0000,0.505814,223.214,0.355872
232.9000,-0.95911,223.283,0.356806
232.8000,1.09811,223.975,0.366134
232.7000,-0.624683,224.227,0.369538
232.6000,1.06682,223.467,0.359286
232.5000,1.47457,223.541,0.36028
232.4000,1.20807,223.733,0.36288
232.3000,0.360721,224.393,0.371765
232.2000,0.276992,224.582,0.374311
232.1000,1.60394,223.6,0.361076
232.0000,0.607581,223.916,0.36534
231.9000,0.623563,224.803,0.377281
231.8000,-0.842035,224.542,0.373777
231.7000,0.392127,223.895,0.365065
231.6000,-1.6948,225.384,0.385083
231.5000,-1.11793,225.029,0.380325
231.4000,-1.39956,225.644,0.388561
231.3000,0.967018,225.133,0.381709
231.2000,-1.79808,223.85,0.364454
231.1000,2.37739,224.963,0.379427
231.0000,1.84657,225.441,0.385843
230.9000,-0.358762,225.125,0.381602
230.8000,1.05221,224.83,0.377646
230.7000,1.74786,224.739,0.376428
230.6000,-1.60952,225.041,0.380477
230.5000,0.663361,225.012,0.380096
230.4000,0.121614,224.66,0.375362
230.3000,1.01026,225.103,0.381313
230.2000,0.562325,225.343,0.384536
230.1000,1.86809,225.267,0.383518
230.0000,0.683874,224.66,0.375362
229.9000,-1.01473,225.991,0.393218
229.8000,-0.472068,225.624,0.388303
229.7000,-0.208573,226.3,0.397339
229.6000,1.91797,226.806,0.404101
229.5000,0.234441,225.223,0.382925
229.4000,0.407175,226.888,0.405189
229.3000,0.733134,226.208,0.396112
229.2000,2.39255,227.565,0.414214
229.1000,-1.0184,226.569,0.400941
229.0000,-1.51379,226.156,0.395415
228.9000,0.260764,226.419,0.398928
228.8000,-0.0031623,226.536,0.400502
228.7000,0.854398,227.423,0.412314
228.6000,0.552662,227.282,0.410444
228.5000,0.891216,227.42,0.412284
228.4000,-0.198329,226.961,0.406171
228.3000,0.0422699,226.985,0.406489
228.2000,2.84922,226.54,0.400548
228.1000,0.979052,228.668,0.428851
228.0000,2.66014,227.648,0.415314
227.9000,0.665994,227.512,0.413506
227.8000,0.194497,228.014,0.420178
227.7000,-0.212093,228.42,0.425561
227.6000,-2.06765,227.801,0.417348
227.5000,1.4167,228.037,0.420479
227.4000,0.570761,228.688,0.429121
227.3000,1.45055,228.545,0.427229
227.2000,0.0331551,227.657,0.415435
227.1000,0.183812,228.378,0.425005
227.0000,2.25533,229.493,0.439764
226.9000,-1.42311,228.85,0.431267
226.8000,-0.297621,229.377,0.438237
226.7000,1.88057,229.301,0.437233
226.6000,-1.05964,229.448,0.43918
226.5000,0.713535,229.695,0.442442
226.4000,0.511659,230.019,0.446717
226.3000,1.01174,229.712,0.442666
226.2000,0.764789,228.926,0.432272
226.1000,-0.912588,228.618,0.42819
226.0000,-0.187736,230.009,0.446583
225.9000,-0.84746,229.948,0.445776
225.8000,-1.25619,229.637,0.441664
225.7000,0.118202,230.339,0.450928
225.6000,-1.48728,230.39,0.4516
225.5000,2.29694,230.34,0.450943
225.4000,-0.955322,230.26,0.449883
225.3000,-1.04954,230.295,0.450346
225.2000,-0.57497,230.182,0.448853
225.1000,0.541832,230.868,0.45789
225.0000,-3.00971,230.746,0.456281
224.9000,-2.53115,230.576,0.454045
224.8000,0.951304,231.403,0.464914
224.7000,1.279,231.202,0.462282
224.6000,0.574234,230.918,0.458546
224.5000,0.745129,230.918,0.458546
224.4000,0.767148,231.369,0.464468
224.3000,0.979837,231.908,0.471538
224.2000,-0.397293,230.92,0.458575
224.1000,1.96416,232.22,0.475617
224.0000,-0.562012,231.734,0.469252
223.9000,-0.379919,232.015,0.472933
223.8000,-0.144463,231.471,0.465806
223.7000,1.341,232.048,0.473363
223.6000,2.51698,232.334,0.477114
223.5000,1.29646,231.902,0.471449
223.4000,0.499033,232.474,0.478936
223.3000,0.434851,232.945,0.485091
223.2000,0.300261,232.724,0.482207
223.1000,0.381123,232.488,0.479128
223.0000,0.675847,232.985,0.485609
222.9000,1.27985,233.838,0.496723
222.8000,1.53398,233.547,0.492934
222.7000,0.781669,233.084,0.486909
222.6000,-2.22535,233.778,0.495942
222.5000,-0.753147,233.908,0.497637
222.4000,0.361234,234.307,0.50282
222.3000,0.538698,234.113,0.500303
222.2000,2.91943,233.606,0.493701
222.1000,-0.578503,234.582,0.506394
222.0000,-0.199508,233.827,0.496576
221.9000,0.326996,233.636,0.494099
221.8000,0.469238,235.088,0.512944
221.7000,-1.31056,234.195,0.501363
221.6000,2.28577,235.181,0.514147
221.5000,0.403876,234.866,0.510067
221.4000,1.22803,234.204,0.501481
221.3000,1.32321,235.089,0.512958
221.2000,-0.928243,234.692,0.507819
221.1000,1.13455,236.477,0.53089
221.0000,1.25041,234.919,0.510757
220.9000,4.78988,234.7,0.507922
220.8000,1.37498,234.57,0.506232
220.7000,1.32834,236.017,0.524956
220.6000,0.845226,234.978,0.51152
220.5000,-1.4457,235.629,0.519951
220.4000,3.4473,235.438,0.517475
220.3000,-3.50295,235.525,0.518603
220.2000,1.37386,235.177,0.514103
220.1000,-0.0391881,235.309,0.515804
220.0000,2.30515,236.384,0.529692
219.9000,-0.132902,237.024,0.537936
219.8000,0.701322,236.624,0.532787
219.7000,-0.0246592,236.209,0.527442
219.6000,-0.128236,236.577,0.532175
219.5000,0.392326,237.367,0.542349
219.4000,1.21556,236.036,0.525205
219.3000,-0.0924298,236.982,0.537396
219.2000,-1.87634,236.801,0.535063
219.1000,3.15978,237.519,0.544299
219.0000,3.67387,236.943,0.536886
218.9000,1.46944,238.037,0.550942
218.8000,-0.273699,237.315,0.541679
218.7000,-0.499666,236.869,0.535939
218.6000,2.16609,237.876,0.548879
218.5000,5.27362,238.394,0.555514
218.4000,1.55361,237.626,0.545667
218.3000,1.07913,238.006,0.55055
218.2000,1.21984,238.433,0.556007
218.1000,-0.224028,238.105,0.551813
218.0000,-1.6012,237.884,0.548981
217.9000,3.74649,238.595,0.558081
217.8000,2.41107,237.715,0.546816
217.7000,0.668307,237.643,0.545885
217.6000,2.56447,238.562,0.55766
217.5000,-0.526273,238.615,0.558341
217.4000,-0.0945716,238.418,0.555819
217.3000,1.79874,238.887,0.561818
217.2000,1.43874,238.524,0.557182
217.1000,0.120695,238.405,0.555659
217.0000,1.13975,238.808,0.560805
216.9000,-1.07244,239.283,0.566883
216.8000,-0.736614,238.882,0.561761
216.7000,-0.408529,239.962,0.575535
216.6000,1.40002,239.073,0.564192
216.5000,1.00956,239.157,0.565263
216.4000,1.68201,240.652,0.58431
216.3000,2.92316,239.166,0.565379
216.2000,1.97383,239.949,0.575362
216.1000,0.535705,239.15,0.565176
216.0000,0.0123164,240.533,0.582799
215.9000,1.2709,240.197,0.57852
215.8000,-1.45869,239.985,0.575823
215.7000,1.35877,240.492,0.58228
215.6000,-0.91208,240.622,0.583922
215.5000,2.2271,240.159,0.578044
215.4000,0.677169,240.794,0.586109
215.3000,1.70278,240.922,0.587734
215.2000,1.07013,240.6,0.583648
215.1000,2.51557,241.337,0.592993
215.0000,2.22282,240.528,0.582727
214.9000,-0.0516769,240.405,0.581171
214.8000,1.40741,241.584,0.596122
214.7000,2.6719,240.907,0.587547
214.6000,-0.174036,241.374,0.593467
214.5000,0.950135,241.35,0.593165
214.4000,3.09782,242.359,0.605922
214.3000,1.98018,241.394,0.593725
214.2000,-0.409767,241.635,0.596767
214.1000,5.52429,241.732,0.598001
214.0000,0.595902,241.786,0.598689
213.9000,5.60462,242.295,0.60512
213.8000,-0.20897,242.206,0.60399
213.7000,2.04717,242.334,0.605607
213.6000,-0.766784,243.031,0.614397
213.5000,1.24032,242.638,0.609454
213.4000,-2.32329,242.45,0.60708
213.3000,0.0703533,242.52,0.607953
213.2000,-0.306712,242.448,0.607052
213.1000,1.7604,242.384,0.606237
213.0000,0.920302,242.763,0.611026
212.9000,1.25855,242.679,0.609969
212.8000,0.440024,243.458,0.619775
212.7000,1.10637,244.259,0.62984
212.6000,0.941799,243.343,0.618335
212.5000,1.33187,243.911,0.625473
212.4000,1.58889,243.638,0.622041
212.3000,0.494983,244.683,0.635153
212.2000,2.24521,243.62,0.621813
212.1000,0.778286,244.212,0.629257
212.0000,-0.0337121,244.284,0.630152
211.9000,2.94968,244.411,0.631744
211.8000,-0.853428,244.986,0.638955
211.7000,3.22663,244.525,0.633179
211.6000,-0.94001,244.36,0.631105
211.5000,1.33649,244.956,0.638573
211.4000,3.08169,244.61,0.634244
211.3000,-2.11165,245.342,0.643406
211.2000,-0.368359,245.054,0.639806
211.1000,1.38302,245.443,0.644666
211.0000,2.39123,245.296,0.642825
210.9000,-1.51317,245.426,0.644454
210.8000,-0.767843,245.533,0.645799
210.7000,0.206119,245.578,0.646351
210.6000,-1.00243,246.01,0.651753
210.5000,1.70867,245.451,0.644765
210.4000,3.50376,245.429,0.644496
210.3000,0.567949,246.423,0.656894
210.2000,2.93426,246.37,0.656231
210.1000,0.575761,246.545,0.658418
210.0000,1.7548,246.169,0.653731
209.9000,2.43214,246.856,0.662281
209.8000,-0.615756,247.141,0.665831
209.7000,-0.050322,247.338,0.66828
209.6000,3.03061,247.519,0.670516
209.5000,-1.15986,247.31,0.667928
209.4000,1.88261,248.087,0.677568
209.3000,2.47391,247.93,0.675617
209.2000,0.16843,247.508,0.67039
209.1000,2.27141,248.082,0.677498
209.0000,-0.402406,248.383,0.681229
208.9000,0.473082,248.191,0.678845
208.8000,-0.846001,247.964,0.676038
208.7000,2.20471,248.397,0.681398
208.6000,-0.0707934,248.825,0.686694
208.5000,0.529241,248.862,0.687155
208.4000,1.40806,249.371,0.693435
208.3000,5.46333,249.371,0.693435
208.2000,1.71934,249.415,0.69398
208.1000,2.34272,249.835,0.699147
208.0000,3.43962,249.675,0.697179
207.9000,-0.367637,249.949,0.700556
207.8000,1.00661,249.821,0.698979
207.7000,-0.74805,249.598,0.696229
207.6000,1.00547,252.027,0.726049
207.5000,1.66415,251.207,0.716006
207.4000,-0.594786,250.945,0.712796
207.3000,2.45451,250.937,0.712698
207.2000,1.86728,251.348,0.717741
207.1000,0.0448464,251.999,0.725702
207.0000,2.59531,251.473,0.719268
206.9000,-0.0851109,251.748,0.722639
206.8000,-1.67644,251.645,0.721377
206.7000,3.77305,252.256,0.728846
206.6000,-0.542285,252.309,0.729496
206.5000,1.61986,252.257,0.728859
206.4000,-0.197495,252.197,0.728126
206.3000,-0.515455,252.05,0.726326
206.2000,0.00793835,252.875,0.736396
206.1000,1.23446,252.333,0.729787
206.0000,1.63162,253.319,0.741807
205.9000,0.9651,252.501,0.731834
205.8000,1.57487,252.849,0.736078
205.7000,0.819307,254.183,0.752317
205.6000,1.2922,253.874,0.74856
205.5000,-1.36497,254.05,0.750694
205.4000,0.00216955,253.861,0.748409
205.3000,1.52412,253.971,0.749744
205.2000,4.91348,254.093,0.751216
205.1000,1.32232,254.495,0.756098
205.0000,-0.596913,253.593,0.745144
204.9000,4.25703,255.085,0.76325
204.8000,1.54284,255.507,0.768349
204.7000,3.86937,255.099,0.763415
204.6000,0.413213,255.286,0.765677
204.5000,0.118419,255.276,0.765553
204.4000,1.63504,256.114,0.775682
204.3000,-0.355629,256.289,0.777787
204.2000,2.05835,255.87,0.772742
204.1000,2.60938,256.684,0.782552
204.0000,3.01795,256.097,0.775477
203.9000,-1.25994,257.325,0.790266
203.8000,1.43298,257.52,0.792607
203.7000,1.94681,257.773,0.795641
203.6000,-1.95984,259.01,0.810458
203.5000,2.49119,258.216,0.800953
203.4000,3.17334,258.039,0.798834
203.3000,1.66364,259.051,0.810946
203.2000,3.00927,257.907,0.797245
203.1000,1.50053,258.094,0.799487
203.0000,-0.0885803,258.953,0.809781
202.9000,0.94521,258.656,0.806217
202.8000,1.22211,259.418,0.81533
202.7000,-2.35971,259.552,0.816926
202.6000,0.337788,260.036,0.822694
202.5000,0.741444,260.566,0.829006
202.4000,1.98901,260.343,0.82635
202.3000,0.918696,260.746,0.831148
202.2000,-1.18955,260.14,0.823936
202.1000,-2.33664,261.263,0.837284
202.0000,-2.59955,260.996,0.834123
201.9000,1.69401,261.17,0.836181
201.8000,1.65756,262.719,0.854522
201.7000,2.38123,262.529,0.852286
201.6000,0.792218,262.952,0.857278
201.5000,2.95511,262.857,0.856154
201.4000,-0.0483303,262.901,0.856676
201.3000,1.18898,264.072,0.870468
201.2000,0.935483,264.447,0.874876
201.1000,-2.27193,264.423,0.874597
201.0000,2.14676,263.532,0.864119
200.9000,0.134353,264.328,0.873478
200.8000,1.23503,264.215,0.87216
200.7000,-0.424655,265.205,0.883771
200.6000,0.571453,265.132,0.882921
200.5000,1.11062,265.516,0.887421
200.4000,0.264937,266.372,0.897424
200.3000,1.73406,266.422,0.898006
200.2000,-0.32783,266.127,0.894565
200.1000,-0.600295,266.757,0.90192
200.0000,-0.408386,267.156,0.906568
199.9000,3.31369,267.362,0.90897
199.8000,1.05646,267.672,0.912582
199.7000,0.971136,267.685,0.912727
199.6000,-1.09106,268.515,0.922374
199.5000,5.37747,268.685,0.924345
199.4000,-1.0035,269.056,0.928638
199.3000,-3.67575,268.929,0.927168
199.2000,2.27562,269.208,0.930396
199.1000,3.84744,269.604,0.934983
199.0000,-0.252335,270.043,0.940049
198.9000,3.69891,269.737,0.936516
198.8000,0.728296,270.174,0.941566
198.7000,-0.0749753,270.315,0.943188
198.6000,0.119333,270.001,0.939565
198.5000,2.67372,270.666,0.947237
198.4000,-0.555397,271.438,0.956118
198.3000,0.174756,271.725,0.959426
198.2000,1.21784,271.874,0.96113
198.1000,-1.14438,272.185,0.964706
198.0000,0.890842,271.751,0.959725
197.9000,2.52383,271.986,0.962418
197.8000,0.780962,272.937,0.973312
197.7000,0.122553,272.839,0.972197
197.6000,1.36916,273.864,0.983904
197.5000,0.884746,273.141,0.975645
197.4000,-0.862944,272.897,0.972858
197.3000,1.4826,273.507,0.979829
197.2000,5.29284,274.063,0.986179
197.1000,0.221714,273.736,0.982442
197.0000,5.94522,275.031,0.997198
196.9000,3.05587,275.264,0.999851
196.8000,1.67079,275.904,1.00712
196.7000,-2.26457,275.968,1.00784
196.6000,-1.41022,275.92,1.0073
196.5000,0.0990626,276.67,1.0158
196.4000,1.82078,276.958,1.01905
196.3000,1.5997,277.138,1.02109
196.2000,-0.133813,277.741,1.02789
196.1000,-3.27018,277.873,1.02939
196.0000,2.17227,277.82,1.02879
195.9000,-0.413354,278.594,1.0375
195.8000,-1.51475,278.881,1.04073
195.7000,-0.263703,279.536,1.04808
195.6000,0.863031,280.127,1.05471
195.5000,-0.139866,280.084,1.05423
195.4000,0.15034,280.398,1.05774
195.3000,1.09227,281.03,1.06481
195.2000,0.392968,281.253,1.0673
195.1000,1.82228,281.583,1.07098
195.0000,0.193602,280.957,1.06399
194.9000,1.88435,282.113,1.07689
194.8000,-0.283171,282.544,1.08168
194.7000,2.16976,283.124,1.08812
194.6000,0.00408791,282.783,1.08434
194.5000,0.167316,283.463,1.09188
194.4000,2.20011,283.949,1.09727
194.3000,0.80767,285.514,1.11456
194.2000,0.671539,284.08,1.09873
194.1000,0.6844,285.825,1.11799
194.0000,4.24684,287.006,1.13097
193.9000,3.83671,286.586,1.12635
193.8000,3.3811,287.637,1.13789
193.7000,-4.98608,288.754,1.15011
193.6000,2.1181,289.056,1.1534
193.5000,0.363831,290.189,1.16574
193.4000,-0.288129,290.072,1.16447
193.3000,2.56639,290.428,1.16834
193.2000,2.51793,291.5,1.17997
193.1000,-2.04754,292.7,1.19295
193.0000,-0.213755,293.105,1.19733
192.9000,3.02857,293.183,1.19817
192.8000,-2.6589,293.716,1.20391
192.7000,1.47227,294.216,1.20928
192.6000,2.50857,295.762,1.22588
192.5000,3.35291,296.177,1.23031
192.4000,4.91087,297.13,1.24049
192.3000,6.87736,297.698,1.24653
192.2000,1.29646,299.21,1.2626
192.1000,3.45472,300.491,1.27615
192.0000,-1.22531,299.889,1.26979
191.9000,-0.391408,301.36,1.28532
191.8000,-0.402263,301.904,1.29105
191.7000,2.8621,303.226,1.30494
191.6000,0.129407,303.821,1.31117
191.5000,-5.66956,304.699,1.32035
191.4000,2.06827,306.481,1.33892
191.3000,0.551234,307.534,1.34984
191.2000,-2.35427,308.039,1.35507
191.1000,1.85817,308.728,1.36219
191.0000,4.82109,311.477,1.39048
190.9000,0.349855,312.081,1.39666
190.8000,0.289784,314.64,1.42277
190.7000,-2.83425,315.725,1.43378
190.6000,-2.277,317.774,1.4545
190.5000,2.98518,319.286,1.46971
190.4000,-2.56956,320.349,1.48037
190.3000,-5.26545,322.429,1.50114
190.2000,-2.73461,323.257,1.50939
190.1000,0.898891,324.382,1.52055
190.0000,6.4214,326.107,1.5376

##### Extended Information
[Comments]
Sample name,SHND.928.BUFFER
Comment,BUFFER BLANK 
User,SADIYYAH HOLSEY
Division
Company,Saint Mary's College

[Detailed Information]
Creation date,9/28/2022 2:31 PM

Data array type,Linear data array * 3
Horizontal axis,Wavelength [nm]
Vertical axis(1),CD [mdeg]
Vertical axis(2),HT [V]
Vertical axis(3),Abs
Start,320 nm
End,190 nm
Data interval,0.1 nm
Data points,1301    

[Measurement Information]
Instrument name,J-1500
Model name,J-1500
Serial No.,B051061638

Detector,PM-539
Detector S/N,B051061638
  Lock-in amp.,X mode
  HT volt,Auto

Accessory,PTC-517
Accessory S/N,B026561646
  Temperature,27.21 C
  Control sensor,Holder
  Monitor sensor,Holder

Measurement date,9/28/2022 2:31 PM

CD Overload detect,1276
Photometric mode,CD, HT, Abs
Measure range,320 - 190 nm
Data pitch,0.1 nm
CD scale,20 mdeg/0.05 dOD
FL scale,20 mdeg/0.05 dOD
D.I.T.,8 msec
Bandwidth,2.00 nm
Start mode,Immediately
Scanning mode,Continuous
Scanning speed,200 nm/min
Baseline correction,None
Shutter control,Auto
No. of cycle,1/1
N2 Flowmeter,Manual

Solvent,NaPO4 buffer

