TITLE,SHND.928.BUFFER+PROTEIN
DATA TYPE,
ORIGIN,JASCO
OWNER,
DATE,22/09/28
TIME,15:40:43
SPECTROMETER/DATA SYSTEM,
LOCALE,1033
RESOLUTION,
DELTAX,-0.1
XUNITS,NANOMETERS
YUNITS,CD [mdeg]
Y2UNITS,HT [V]
Y3UNITS,ABSORBANCE
FIRSTX,  320.0000
LASTX,  190.0000
NPOINTS,    1301
FIRSTY,     2.23097
MAXY,    49.51204
MINY,   -63.47731
XYDATA
320.0000,2.23097,208.55,0.152078
319.9000,1.35548,208.226,0.147443
319.8000,1.5687,208.751,0.154944
319.7000,1.7032,208.893,0.156982
319.6000,1.42374,209.055,0.159295
319.5000,0.655811,208.771,0.155235
319.4000,0.657829,208.95,0.157791
319.3000,1.4107,208.735,0.154717
319.2000,2.9296,208.963,0.157969
319.1000,0.993234,209.104,0.159989
319.0000,1.27938,208.51,0.151511
318.9000,0.629772,208.989,0.158341
318.8000,2.21614,208.309,0.148627
318.7000,1.76409,208.572,0.152386
318.6000,1.13013,208.013,0.144393
318.5000,3.20759,208.971,0.158082
318.4000,1.54352,208.614,0.152985
318.3000,1.61106,208.416,0.150167
318.2000,0.327234,208.184,0.146843
318.1000,3.07883,208.399,0.149923
318.0000,1.72447,208.387,0.149745
317.9000,2.12017,208.311,0.148659
317.8000,0.895644,208.607,0.152888
317.7000,0.513746,208.387,0.149745
317.6000,1.60162,209.211,0.161508
317.5000,0.71926,208.852,0.156384
317.4000,1.4268,208.26,0.147929
317.3000,1.42814,209.639,0.16761
317.2000,2.59329,209.249,0.162058
317.1000,0.695134,208.358,0.149324
317.0000,0.79136,207.723,0.140236
316.9000,-0.459887,207.788,0.141162
316.8000,1.90108,208.709,0.154345
316.7000,2.02764,208.798,0.155623
316.6000,0.54895,208.446,0.150588
316.5000,-0.62434,209.041,0.159084
316.4000,0.623053,208.989,0.158341
316.3000,0.839189,207.871,0.142364
316.2000,1.62413,209.051,0.15923
316.1000,1.38498,207.987,0.14402
316.0000,2.20011,208.694,0.154135
315.9000,-0.0820002,208.622,0.153098
315.8000,2.7632,208.948,0.157759
315.7000,1.69074,208.561,0.15224
315.6000,1.45601,208.651,0.153519
315.5000,2.21617,208.384,0.149696
315.4000,1.45693,208.305,0.148578
315.3000,0.687039,208.226,0.147443
315.2000,2.68986,208.155,0.146421
315.1000,1.95087,208.446,0.150588
315.0000,1.1235,207.167,0.132248
314.9000,0.845905,208.033,0.144685
314.8000,0.774698,208.559,0.152208
314.7000,0.0290053,208.597,0.152742
314.6000,0.0725815,208.274,0.148124
314.5000,0.877138,208.292,0.148384
314.4000,2.37612,209.589,0.1669
314.3000,2.14398,207.902,0.142802
314.2000,1.63941,208.564,0.152273
314.1000,1.051,207.672,0.139504
314.0000,0.994532,208.274,0.148124
313.9000,2.05686,207.733,0.140382
313.8000,0.821887,208.639,0.153341
313.7000,1.92984,208.538,0.1519
313.6000,2.0545,207.26,0.133583
313.5000,0.0996827,207.587,0.138285
313.4000,0.597108,208.901,0.157096
313.3000,0.586519,207.981,0.143938
313.2000,1.63605,207.471,0.136626
313.1000,2.09559,208.381,0.149664
313.0000,1.50753,208.156,0.146437
312.9000,1.7819,208.053,0.144961
312.8000,-0.096614,208.078,0.145318
312.7000,0.273869,207.76,0.140772
312.6000,1.82303,207.775,0.140983
312.5000,1.44278,208.522,0.151673
312.4000,2.26517,208.976,0.158163
312.3000,1.31931,208.056,0.14501
312.2000,2.90249,208.026,0.144571
312.1000,1.71268,207.967,0.143728
312.0000,2.08488,207.831,0.141779
311.9000,1.87989,208.214,0.147265
311.8000,2.06858,208.013,0.144393
311.7000,1.37416,208.064,0.145123
311.6000,1.46217,207.697,0.139862
311.5000,0.885884,208.118,0.145902
311.4000,-0.270765,208.433,0.15041
311.3000,1.09428,207.707,0.140008
311.2000,1.93979,207.801,0.141356
311.1000,2.0583,208.135,0.146145
311.0000,0.829021,207.815,0.141551
310.9000,1.17457,208.354,0.149275
310.8000,0.800599,207.747,0.140577
310.7000,0.778663,207.994,0.144117
310.6000,2.88809,208.722,0.154539
310.5000,0.496007,208.256,0.147865
310.4000,0.210039,208.857,0.156465
310.3000,1.40673,208.422,0.150248
310.2000,2.34636,208.157,0.146454
310.1000,0.679672,208.39,0.149794
310.0000,2.82991,207.738,0.140447
309.9000,-0.749532,207.816,0.141568
309.8000,1.90848,208.338,0.149048
309.7000,2.88488,208.166,0.146583
309.6000,3.46459,207.993,0.144101
309.5000,0.779852,207.802,0.141373
309.4000,0.315685,209.063,0.159408
309.3000,1.81367,208.967,0.158034
309.2000,0.77022,208.354,0.149275
309.1000,2.4686,208.747,0.154895
309.0000,1.02459,208.365,0.149437
308.9000,1.31541,208.771,0.155235
308.8000,0.895797,207.695,0.139829
308.7000,0.582637,208.248,0.147751
308.6000,1.32342,207.273,0.133779
308.5000,0.409014,207.863,0.14225
308.4000,1.56692,208.991,0.158373
308.3000,1.05187,208.679,0.153924
308.2000,2.99373,207.922,0.143094
308.1000,2.44563,208.103,0.145675
308.0000,1.73122,207.692,0.139797
307.9000,0.800967,207.977,0.143873
307.8000,1.6825,208.113,0.145821
307.7000,1.69217,208.142,0.146243
307.6000,1.44334,208.692,0.154102
307.5000,1.77196,208.348,0.149194
307.4000,1.2431,207.417,0.135846
307.3000,-0.513096,207.53,0.137472
307.2000,-0.0687284,207.911,0.142932
307.1000,1.04163,208.045,0.144847
307.0000,2.18519,208.942,0.157678
306.9000,1.62227,208.728,0.15462
306.8000,2.11079,208.089,0.14548
306.7000,2.45461,208.113,0.145821
306.6000,2.16541,208.446,0.150588
306.5000,1.66839,207.955,0.143565
306.4000,1.62625,208.131,0.146081
306.3000,1.01182,207.665,0.139407
306.2000,-0.994606,208.586,0.152596
306.1000,1.67737,207.47,0.13661
306.0000,0.461055,208.818,0.155899
305.9000,0.393541,208.207,0.147167
305.8000,0.162859,208.13,0.146064
305.7000,0.777604,207.694,0.139813
305.6000,0.875514,208.39,0.149794
305.5000,0.46718,208.214,0.147265
305.4000,1.47583,207.204,0.132786
305.3000,1.41511,207.468,0.136578
305.2000,2.00166,207.724,0.140252
305.1000,1.67023,207.943,0.143386
305.0000,2.30423,208.214,0.147265
304.9000,2.38225,207.956,0.143581
304.8000,1.11924,208.319,0.148773
304.7000,1.40421,208.539,0.151916
304.6000,1.96344,207.768,0.140886
304.5000,0.612842,208.504,0.151414
304.4000,2.47948,208.429,0.150345
304.3000,1.04549,208.079,0.145334
304.2000,1.13908,207.903,0.142818
304.1000,-0.135397,207.314,0.134365
304.0000,-1.16501,208.249,0.147767
303.9000,0.701702,208.105,0.145707
303.8000,2.97627,208.27,0.148075
303.7000,1.68353,208.523,0.15169
303.6000,2.92478,208.214,0.147265
303.5000,1.60628,208.6,0.152791
303.4000,1.48226,208.154,0.146405
303.3000,2.06051,207.839,0.141893
303.2000,2.99499,208.058,0.145042
303.1000,1.70261,208.131,0.146081
303.0000,1.49665,208.083,0.145399
302.9000,0.263046,207.743,0.140528
302.8000,0.93454,207.861,0.142217
302.7000,2.03139,208.124,0.145983
302.6000,0.0950749,208.513,0.151544
302.5000,1.71592,208.525,0.151722
302.4000,2.73413,208.16,0.146502
302.3000,2.03754,207.244,0.133355
302.2000,1.27423,208.024,0.144555
302.1000,0.156122,208.371,0.149518
302.0000,1.42277,207.826,0.141714
301.9000,0.302602,208.091,0.145513
301.8000,2.45847,207.513,0.137228
301.7000,-0.110339,207.621,0.138773
301.6000,1.09803,208.307,0.148594
301.5000,2.44997,207.507,0.13713
301.4000,2.37119,208.077,0.145302
301.3000,1.18075,207.512,0.137212
301.2000,1.82846,207.886,0.142574
301.1000,1.42914,207.149,0.131988
301.0000,1.42748,207.665,0.139407
300.9000,-0.144852,207.35,0.134885
300.8000,0.437308,207.87,0.142347
300.7000,1.51394,207.364,0.135081
300.6000,0.318447,207.692,0.139797
300.5000,2.09374,207.058,0.130684
300.4000,1.33729,207.661,0.139342
300.3000,2.10793,208.047,0.14488
300.2000,3.05613,207.755,0.14069
300.1000,2.65694,207.755,0.14069
300.0000,2.31548,207.475,0.136675
299.9000,1.90499,207.358,0.134999
299.8000,0.545172,207.477,0.136708
299.7000,2.23103,207.85,0.142055
299.6000,1.0795,207.503,0.137082
299.5000,0.282788,207.674,0.139537
299.4000,-1.24764,206.93,0.128843
299.3000,1.80533,206.866,0.12793
299.2000,0.169818,206.951,0.129152
299.1000,1.60676,207.462,0.136496
299.0000,0.87725,207.488,0.13687
298.9000,2.4683,207.027,0.130245
298.8000,3.21664,206.737,0.126071
298.7000,0.832994,207.623,0.138805
298.6000,0.738276,207.646,0.13913
298.5000,1.33039,207.073,0.130896
298.4000,1.32888,207.731,0.140349
298.3000,1.84721,207.701,0.139927
298.2000,1.60707,207.167,0.132248
298.1000,1.35119,207.904,0.142835
298.0000,2.15208,207.548,0.137732
297.9000,0.835844,207.125,0.131646
297.8000,1.20004,207.962,0.143663
297.7000,0.922667,207.389,0.135439
297.6000,0.978636,207.91,0.142916
297.5000,1.24829,208.228,0.147476
297.4000,1.62242,207.369,0.135162
297.3000,0.952042,206.983,0.129609
297.2000,1.57517,207.447,0.136268
297.1000,0.683022,207.885,0.142558
297.0000,-0.399641,207.444,0.136236
296.9000,1.22743,207.457,0.136415
296.8000,1.4636,207.296,0.134104
296.7000,1.15475,207.288,0.13399
296.6000,1.16605,207.134,0.131776
296.5000,1.30707,207.408,0.135715
296.4000,1.29361,208.228,0.147476
296.3000,-0.293834,207.681,0.139634
296.2000,0.459719,207.938,0.143322
296.1000,1.89616,207.093,0.131189
296.0000,0.688564,207.385,0.13539
295.9000,2.6112,206.647,0.124766
295.8000,0.947413,208.127,0.146032
295.7000,0.406887,207.745,0.140544
295.6000,1.62733,207.13,0.131727
295.5000,0.460406,207.597,0.138431
295.4000,2.73481,207.441,0.136187
295.3000,2.7044,207.303,0.134202
295.2000,1.58891,207.228,0.133127
295.1000,0.583835,207.42,0.135894
295.0000,1.65567,207.374,0.135227
294.9000,0.579604,207.631,0.138919
294.8000,1.96486,207.791,0.14121
294.7000,-0.191786,207.105,0.131369
294.6000,2.31025,208.266,0.14801
294.5000,0.287564,207.484,0.136805
294.4000,1.72755,207.674,0.139537
294.3000,2.17223,207.45,0.136317
294.2000,-0.32845,207.843,0.141958
294.1000,2.11363,206.73,0.125973
294.0000,0.446116,207.262,0.133616
293.9000,1.86273,207.509,0.137163
293.8000,0.843473,207.592,0.13835
293.7000,1.05233,208.139,0.146194
293.6000,0.883486,207.638,0.139017
293.5000,0.855202,207.585,0.138252
293.4000,0.565024,206.641,0.124684
293.3000,1.93354,207.115,0.131499
293.2000,1.0782,207.272,0.133762
293.1000,1.32492,207.862,0.142234
293.0000,2.8331,207.658,0.139309
292.9000,1.08424,207.939,0.143338
292.8000,2.49403,206.895,0.128337
292.7000,1.27011,207.604,0.138529
292.6000,-0.395737,206.132,0.117349
292.5000,-0.212461,207.544,0.137667
292.4000,1.58876,206.946,0.129071
292.3000,0.774191,206.587,0.1239
292.2000,1.8624,206.421,0.121517
292.1000,1.26177,206.991,0.129723
292.0000,2.17298,207.153,0.132053
291.9000,1.31311,207.447,0.136268
291.8000,0.52888,207.291,0.134039
291.7000,1.3071,206.571,0.123672
291.6000,0.742804,207.39,0.135455
291.5000,2.2711,206.398,0.12119
291.4000,0.859432,207.612,0.138643
291.3000,2.25161,206.83,0.127408
291.2000,1.27858,207.964,0.143695
291.1000,1.35569,207.168,0.132265
291.0000,2.27788,206.911,0.128566
290.9000,2.82876,206.853,0.127734
290.8000,1.35925,207.836,0.14186
290.7000,2.75478,207.136,0.131808
290.6000,0.597197,207.445,0.136252
290.5000,2.10491,206.865,0.127914
290.4000,1.83269,207.069,0.130847
290.3000,4.22045,207.688,0.139732
290.2000,2.10233,206.502,0.122676
290.1000,1.01304,207.476,0.136691
290.0000,0.580205,207.099,0.131271
289.9000,0.493872,207.041,0.13044
289.8000,0.905303,207.326,0.134544
289.7000,0.1378,207.329,0.134576
289.6000,0.306979,208.415,0.15015
289.5000,1.61828,207.309,0.1343
289.4000,0.647582,207.756,0.140707
289.3000,1.35044,208.683,0.153973
289.2000,1.62246,207.853,0.142104
289.1000,0.911363,207.968,0.143744
289.0000,0.0238424,207.273,0.133779
288.9000,1.60989,207.391,0.135471
288.8000,1.15114,208.398,0.149907
288.7000,0.727823,207.478,0.136724
288.6000,2.90879,207.374,0.135227
288.5000,2.28304,208.18,0.146778
288.4000,0.572715,207.917,0.143013
288.3000,0.202744,208.284,0.14827
288.2000,0.287839,207.284,0.133941
288.1000,-1.28164,206.822,0.127294
288.0000,-0.426462,208.003,0.144247
287.9000,1.86177,207.365,0.135097
287.8000,0.881494,207.636,0.138984
287.7000,0.9942,207.451,0.136334
287.6000,1.15777,207.436,0.136122
287.5000,0.483771,206.707,0.12563
287.4000,1.2569,207.537,0.13757
287.3000,-0.279948,208.106,0.145724
287.2000,0.799287,207.222,0.133046
287.1000,2.07406,207.006,0.129935
287.0000,1.07007,207.384,0.135374
286.9000,0.990649,207.626,0.138838
286.8000,2.03836,207.904,0.142835
286.7000,1.03112,208.556,0.152159
286.6000,1.6593,208.033,0.144685
286.5000,-1.6308,207.624,0.138821
286.4000,1.43761,207.899,0.142753
286.3000,1.20494,207.943,0.143386
286.2000,0.752001,208.06,0.145058
286.1000,0.350869,208.081,0.145367
286.0000,0.533782,207.943,0.143386
285.9000,1.32728,207.43,0.136024
285.8000,1.41277,207.663,0.139374
285.7000,0.0087288,208.311,0.148659
285.6000,-0.874671,208.052,0.144945
285.5000,-0.033071,208.132,0.146097
285.4000,-0.212728,207.036,0.130375
285.3000,0.287142,208.276,0.148156
285.2000,1.99706,207.481,0.136756
285.1000,0.195076,207.993,0.144101
285.0000,0.0759503,207.952,0.143516
284.9000,2.46774,207.46,0.136464
284.8000,0.556462,207.411,0.135764
284.7000,0.762897,207.948,0.143468
284.6000,1.14208,207.892,0.142656
284.5000,-0.0927496,207.808,0.141454
284.4000,0.620377,207.29,0.134023
284.3000,1.41681,208.262,0.147962
284.2000,1.59609,207.62,0.138756
284.1000,-0.345213,207.402,0.135634
284.0000,1.25034,207.879,0.142477
283.9000,-0.20295,207.781,0.141064
283.8000,1.12086,207.604,0.138529
283.7000,2.72105,208.175,0.146713
283.6000,2.31461,207.646,0.13913
283.5000,0.373925,208.321,0.148805
283.4000,0.654032,208.031,0.144653
283.3000,1.11843,207.712,0.140073
283.2000,-0.290318,208.563,0.152256
283.1000,-0.673669,207.99,0.144068
283.0000,2.20898,207.805,0.141405
282.9000,0.399926,207.539,0.137602
282.8000,1.31325,207.709,0.14004
282.7000,1.50344,207.55,0.137748
282.6000,0.590486,208.005,0.144279
282.5000,0.0370428,207.803,0.141389
282.4000,1.38883,207.469,0.136594
282.3000,2.07593,207.751,0.140642
282.2000,2.74299,207.79,0.141194
282.1000,0.558941,207.431,0.136041
282.0000,3.14723,208.071,0.145221
281.9000,2.28019,207.91,0.142916
281.8000,2.32875,207.658,0.139309
281.7000,2.39831,208.16,0.146502
281.6000,0.28213,208.52,0.151641
281.5000,0.388762,208.096,0.145577
281.4000,0.976415,207.988,0.144036
281.3000,1.29358,207.78,0.141048
281.2000,2.74876,207.738,0.140447
281.1000,-0.373241,208.449,0.150636
281.0000,0.471872,207.388,0.135422
280.9000,1.97728,207.996,0.14415
280.8000,2.7009,207.968,0.143744
280.7000,3.00785,207.791,0.14121
280.6000,0.72055,207.513,0.137228
280.5000,-0.288429,208.28,0.148221
280.4000,0.522539,207.844,0.141974
280.3000,-0.319985,207.959,0.143614
280.2000,1.35151,207.426,0.135976
280.1000,1.37715,207.84,0.141909
280.0000,0.0689338,207.613,0.138659
279.9000,2.51383,207.364,0.135081
279.8000,1.28104,208.378,0.149615
279.7000,1.85087,207.535,0.137537
279.6000,2.66033,207.808,0.141454
279.5000,1.12549,207.493,0.136935
279.4000,0.958448,208.493,0.151268
279.3000,1.27489,207.542,0.137635
279.2000,0.593459,207.748,0.140593
279.1000,1.09797,208.277,0.148173
279.0000,0.600001,207.977,0.143873
278.9000,-0.674927,208.091,0.145513
278.8000,-1.0753,206.891,0.128289
278.7000,0.107875,208.143,0.146259
278.6000,1.05533,207.533,0.137505
278.5000,0.791778,208.186,0.146875
278.4000,0.416785,208.558,0.152192
278.3000,1.0899,207.91,0.142916
278.2000,0.990137,207.824,0.141681
278.1000,0.54379,207.806,0.141421
278.0000,0.406472,208.088,0.145464
277.9000,0.0983585,207.818,0.1416
277.8000,0.422555,208.173,0.146681
277.7000,1.59522,208.058,0.145042
277.6000,1.3005,207.687,0.139715
277.5000,0.92432,208.354,0.149275
277.4000,-0.642344,207.921,0.143078
277.3000,1.27546,208.481,0.15109
277.2000,0.858378,208.608,0.152904
277.1000,1.02407,208.278,0.148189
277.0000,2.79946,209.059,0.159343
276.9000,-1.1136,208.31,0.148643
276.8000,-0.335887,208.097,0.145594
276.7000,2.86947,208.292,0.148384
276.6000,0.536109,208.399,0.149923
276.5000,1.10863,208.753,0.154976
276.4000,0.756799,208.092,0.145529
276.3000,2.15304,208.438,0.150474
276.2000,0.256702,208.382,0.14968
276.1000,0.633759,208.52,0.151641
276.0000,0.0396815,207.434,0.13609
275.9000,-1.52745,208.325,0.148854
275.8000,1.21006,208.254,0.147848
275.7000,2.39392,208.176,0.14673
275.6000,1.73711,207.802,0.141373
275.5000,1.54,208.053,0.144961
275.4000,0.135683,208.815,0.155866
275.3000,1.73772,207.865,0.142266
275.2000,0.529539,208.062,0.145091
275.1000,0.758716,208.433,0.15041
275.0000,0.82225,208.601,0.152807
274.9000,2.40438,208.022,0.144523
274.8000,0.750192,208.253,0.147832
274.7000,0.00926545,208.735,0.154717
274.6000,1.35652,208.033,0.144685
274.5000,1.43672,208.793,0.155542
274.4000,1.31919,208.444,0.150555
274.3000,2.58396,208.466,0.15088
274.2000,0.556579,208.379,0.149632
274.1000,0.733742,208.172,0.146665
274.0000,0.983176,207.533,0.137505
273.9000,-0.389953,207.461,0.13648
273.8000,1.2686,207.746,0.140561
273.7000,1.00334,207.747,0.140577
273.6000,-0.945695,207.741,0.140495
273.5000,1.28495,208.08,0.145351
273.4000,3.05658,208.135,0.146145
273.3000,-1.01204,207.435,0.136106
273.2000,1.38849,208.309,0.148627
273.1000,0.557011,208.781,0.155381
273.0000,1.23566,208.185,0.146859
272.9000,-1.18411,207.79,0.141194
272.8000,0.52473,208.333,0.148967
272.7000,-0.473329,207.999,0.144198
272.6000,1.77812,208.231,0.147508
272.5000,0.693671,208.202,0.147102
272.4000,0.962377,208.51,0.151511
272.3000,0.177677,207.875,0.142412
272.2000,1.64193,208.049,0.144912
272.1000,0.0643174,207.715,0.140122
272.0000,1.05702,208.372,0.149534
271.9000,1.18745,208.584,0.152564
271.8000,-0.127378,207.599,0.138464
271.7000,-0.181431,208.645,0.153438
271.6000,1.78012,207.822,0.141649
271.5000,2.09722,208.538,0.1519
271.4000,0.801234,208.259,0.147913
271.3000,-0.0311131,208.214,0.147265
271.2000,0.348085,209.041,0.159084
271.1000,-0.187674,208.41,0.150069
271.0000,0.718107,208.455,0.150717
270.9000,0.378172,208.554,0.152127
270.8000,-0.328082,208.635,0.153293
270.7000,0.76997,208.458,0.150766
270.6000,1.95398,208.319,0.148773
270.5000,0.925782,208.437,0.150458
270.4000,1.13796,207.941,0.143354
270.3000,1.78618,208.804,0.155704
270.2000,0.827375,208.611,0.152953
270.1000,-0.757581,208.542,0.151965
270.0000,1.61015,208.563,0.152256
269.9000,2.52036,207.942,0.14337
269.8000,-0.00289494,208.351,0.149226
269.7000,1.2156,208.916,0.157306
269.6000,0.628194,209.292,0.162671
269.5000,0.604342,208.873,0.156691
269.4000,1.69998,208.807,0.155753
269.3000,-0.812655,208.789,0.155494
269.2000,0.270175,209,0.158502
269.1000,1.84227,208.856,0.156449
269.0000,1.02714,208.487,0.151171
268.9000,0.15474,208.813,0.155834
268.8000,0.300252,208.689,0.15407
268.7000,1.43152,208.555,0.152143
268.6000,-0.407686,209.097,0.159893
268.5000,1.38153,209.391,0.164076
268.4000,0.135635,209.664,0.167964
268.3000,0.38389,208.701,0.154232
268.2000,0.220585,209.225,0.161719
268.1000,2.29838,208.892,0.156966
268.0000,0.00349064,208.814,0.15585
267.9000,0.530117,209.051,0.15923
267.8000,-1.10584,208.978,0.158195
267.7000,-0.886199,209.41,0.16435
267.6000,1.01073,209.262,0.162235
267.5000,1.28254,208.88,0.156788
267.4000,-0.969843,209.032,0.158955
267.3000,-0.228026,209.751,0.169206
267.2000,-0.357857,209.021,0.15881
267.1000,0.237878,209.309,0.162914
267.0000,1.07774,209.201,0.161363
266.9000,0.545759,209.431,0.164641
266.8000,1.54848,208.433,0.15041
266.7000,0.629486,209.48,0.165351
266.6000,0.87466,209.39,0.16406
266.5000,1.57313,209.08,0.15965
266.4000,0.69875,209.478,0.165319
266.3000,0.602881,209.91,0.171462
266.2000,1.22857,209.162,0.160814
266.1000,0.225923,209.211,0.161508
266.0000,-0.725245,209.719,0.168755
265.9000,-1.27378,210.218,0.175841
265.8000,-0.381244,210.084,0.173942
265.7000,0.620251,209.583,0.166819
265.6000,0.134455,209.52,0.165916
265.5000,1.45819,209.837,0.170431
265.4000,-0.0809895,210.85,0.184809
265.3000,-0.417203,209.377,0.163882
265.2000,-0.0801594,209.485,0.165416
265.1000,-0.839905,209.004,0.158567
265.0000,1.89103,209.795,0.169834
264.9000,0.487012,209.436,0.164722
264.8000,0.608317,209.537,0.166158
264.7000,-0.684244,209.421,0.164512
264.6000,-0.0296931,209.846,0.17056
264.5000,-1.11202,210.625,0.181613
264.4000,0.0774736,209.709,0.168609
264.3000,0.188592,209.421,0.164512
264.2000,0.554783,210.108,0.17428
264.1000,-1.03236,209.377,0.163882
264.0000,1.11924,210.113,0.174344
263.9000,1.74503,209.363,0.163672
263.8000,0.691733,209.207,0.16146
263.7000,0.380857,209.452,0.164948
263.6000,-0.752316,209.868,0.170866
263.5000,1.04784,209.678,0.168158
263.4000,0.525877,209.427,0.164592
263.3000,-0.915548,209.825,0.170254
263.2000,0.904306,209.648,0.167739
263.1000,0.929767,210.179,0.175294
263.0000,0.614255,209.812,0.170076
262.9000,0.110261,209.791,0.16977
262.8000,0.413197,210.308,0.177112
262.7000,0.0271035,210.158,0.174988
262.6000,1.39098,210.441,0.17901
262.5000,-0.0145122,210.723,0.183011
262.4000,-0.28068,209.53,0.166061
262.3000,1.9412,209.835,0.170398
262.2000,-0.599912,210.697,0.182641
262.1000,-0.982442,210.862,0.184969
262.0000,-0.827489,210.683,0.182432
261.9000,0.46131,210.207,0.17568
261.8000,1.18521,210.414,0.178624
261.7000,-0.363084,209.949,0.172026
261.6000,0.484993,210.436,0.178929
261.5000,-0.145189,210.714,0.182882
261.4000,-0.169479,210.441,0.17901
261.3000,-1.0239,210.183,0.175343
261.2000,0.294028,211.083,0.188098
261.1000,1.31186,210.737,0.183203
261.0000,1.98612,210.269,0.176565
260.9000,1.49104,209.889,0.171172
260.8000,-0.963023,210.533,0.180312
260.7000,1.47843,210.488,0.179669
260.6000,-0.838611,209.792,0.169786
260.5000,-0.0001194,211.054,0.187697
260.4000,0.948678,210.787,0.18391
260.3000,0.681548,210.941,0.186093
260.2000,-0.333814,211.472,0.19361
260.1000,0.762312,211.084,0.188114
260.0000,0.289344,211.104,0.188402
259.9000,1.16422,210.919,0.185788
259.8000,1.09272,211.038,0.187472
259.7000,0.643856,211.828,0.198634
259.6000,-2.68287,210.28,0.176726
259.5000,0.198065,211.13,0.188771
259.4000,-0.470083,210.696,0.182625
259.3000,-0.738434,210.987,0.186751
259.2000,1.13367,210.77,0.183669
259.1000,1.03774,211.775,0.197883
259.0000,-0.331795,209.809,0.170028
258.9000,0.0897729,210.688,0.182513
258.8000,0.636315,211.044,0.187553
258.7000,0.767808,211.499,0.193994
258.6000,1.40207,210.746,0.183332
258.5000,-1.92766,211.197,0.189717
258.4000,0.884508,211.248,0.190438
258.3000,-0.392649,210.891,0.185387
258.2000,2.28658,211.307,0.191271
258.1000,0.422883,212.277,0.204961
258.0000,0.289331,211.583,0.195179
257.9000,-0.657133,212.251,0.204594
257.8000,2.05551,211.514,0.194203
257.7000,-0.955767,211.103,0.188386
257.6000,0.482059,211.132,0.188803
257.5000,-0.159089,211.771,0.197835
257.4000,1.8672,211.996,0.201
257.3000,1.11717,211.596,0.195355
257.2000,2.1446,210.833,0.184568
257.1000,-0.0988332,211.89,0.199514
257.0000,-1.30778,211.362,0.192057
256.9000,0.0482062,211.715,0.197035
256.8000,-0.492527,210.842,0.184696
256.7000,-0.576371,211.485,0.193786
256.6000,-1.12764,211.708,0.196939
256.5000,1.95183,212.255,0.204658
256.4000,-0.689038,211.263,0.190647
256.3000,0.324669,211.799,0.198219
256.2000,1.41481,212.573,0.209125
256.1000,1.78475,211.889,0.199498
256.0000,1.09093,211.85,0.198938
255.9000,-0.272565,211.748,0.197499
255.8000,1.25181,212.364,0.20619
255.7000,0.552709,212.467,0.207642
255.6000,1.47693,212.134,0.202949
255.5000,2.82088,212.224,0.204211
255.4000,2.55715,212.706,0.211005
255.3000,0.163406,212.224,0.204211
255.2000,0.0633585,212.234,0.204354
255.1000,1.24462,212.365,0.206206
255.0000,-0.244667,212.284,0.205057
254.9000,-0.268785,212.246,0.20453
254.8000,0.226661,212.613,0.209699
254.7000,-0.506129,212.567,0.209045
254.6000,1.4033,212.094,0.20239
254.5000,-0.757538,211.651,0.196139
254.4000,0.0922649,212.72,0.211197
254.3000,2.29693,212.548,0.208774
254.2000,-0.122376,212.609,0.209635
254.1000,1.39669,212.122,0.202773
254.0000,2.60447,212.405,0.206764
253.9000,-0.0167551,212.583,0.209268
253.8000,0.428424,212.75,0.211627
253.7000,0.0344146,212.645,0.210145
253.6000,2.63517,212.78,0.212041
253.5000,2.29063,212.935,0.214223
253.4000,1.34023,213.362,0.22022
253.3000,1.02904,213.216,0.218169
253.2000,0.414192,212.495,0.20804
253.1000,1.71645,213.273,0.218964
253.0000,2.09368,213.209,0.218074
252.9000,0.507754,212.582,0.209252
252.8000,-0.272619,213.153,0.217279
252.7000,0.493679,213.269,0.218917
252.6000,0.687309,213.053,0.215878
252.5000,1.33965,213.108,0.216658
252.4000,0.0491823,213.352,0.220077
252.3000,0.619371,212.818,0.212583
252.2000,1.61257,212.865,0.213236
252.1000,0.719007,213.533,0.22262
252.0000,1.53158,213.294,0.219267
251.9000,-0.900339,213.124,0.216881
251.8000,0.104236,214.074,0.230189
251.7000,1.53276,213.528,0.22254
251.6000,0.138411,213.454,0.221508
251.5000,-0.623194,213.86,0.227192
251.4000,1.98401,213.656,0.224335
251.3000,-0.231913,213.302,0.219378
251.2000,0.985504,213.752,0.225684
251.1000,-0.365862,213.889,0.227604
251.0000,0.836905,214.142,0.23114
250.9000,-0.431712,213.869,0.227319
250.8000,-0.461714,213.014,0.215338
250.7000,0.720971,213.962,0.228619
250.6000,0.203853,213.439,0.221301
250.5000,0.369363,213.877,0.22743
250.4000,0.938865,213.711,0.225113
250.3000,1.62242,214.059,0.229983
250.2000,0.966106,213.8,0.226351
250.1000,1.12104,213.852,0.227081
250.0000,0.72316,214.971,0.242722
249.9000,-0.408437,213.732,0.225399
249.8000,-1.49802,214.409,0.234878
249.7000,-0.153874,213.598,0.223525
249.6000,0.910629,213.92,0.228032
249.5000,2.01105,214.63,0.237964
249.4000,1.88574,213.84,0.226922
249.3000,-1.02211,214.019,0.229428
249.2000,0.191819,214.222,0.232265
249.1000,-0.557689,214.017,0.229396
249.0000,-1.12443,213.759,0.22578
248.9000,0.502982,214.595,0.237474
248.8000,-1.11674,214.498,0.236113
248.7000,0.634909,214.757,0.239735
248.6000,0.418945,213.938,0.228286
248.5000,-0.471362,214.442,0.235337
248.4000,0.0208614,214.833,0.240794
248.3000,3.04225,214.188,0.23179
248.2000,0.0879434,214.282,0.233104
248.1000,-2.00661,214.749,0.239624
248.0000,-2.74977,214.781,0.240067
247.9000,-0.415783,213.988,0.228984
247.8000,-0.715402,214.373,0.234371
247.7000,-0.30817,214.794,0.240257
247.6000,0.0149651,214.748,0.239609
247.5000,0.802254,214.226,0.232312
247.4000,-1.45351,214.044,0.229777
247.3000,-0.648199,215.216,0.246132
247.2000,-0.394155,214.43,0.235163
247.1000,-0.0229396,214.719,0.239197
247.0000,0.651629,215.363,0.248184
246.9000,-1.83909,215.363,0.248184
246.8000,-0.440016,215.189,0.245754
246.7000,-1.16552,215.139,0.245059
246.6000,-0.80802,215.59,0.251337
246.5000,-1.17435,215.402,0.24872
246.4000,-0.258166,215.252,0.246638
246.3000,-2.04092,214.992,0.243006
246.2000,-1.02839,216.102,0.258454
246.1000,-0.726512,215.108,0.244633
246.0000,-2.52502,216.171,0.259413
245.9000,-1.95995,215.287,0.247127
245.8000,-1.93027,215.669,0.25244
245.7000,-1.11035,216.011,0.257195
245.6000,-2.64252,215.639,0.252015
245.5000,-2.11371,215.252,0.246638
245.4000,-1.72509,216.661,0.2662
245.3000,-1.47782,216.232,0.260262
245.2000,-1.01969,215.548,0.250754
245.1000,-1.68777,216.028,0.257431
245.0000,-1.27806,216.294,0.261111
244.9000,-0.310271,215.939,0.256188
244.8000,-0.303291,215.827,0.254629
244.7000,-1.99444,216.187,0.259633
244.6000,-1.32377,216.313,0.261378
244.5000,-3.12433,216.754,0.267487
244.4000,-3.78525,216.563,0.26485
244.3000,-1.68126,216.416,0.262808
244.2000,0.079,216.49,0.263829
244.1000,-3.56918,216.433,0.263043
244.0000,-1.60138,216.493,0.263876
243.9000,-3.73123,216.473,0.263593
243.8000,-3.86614,216.401,0.262603
243.7000,-2.84966,217.207,0.273757
243.6000,-2.90378,217.099,0.272269
243.5000,-1.78445,217.002,0.270921
243.4000,-3.75189,217.617,0.279423
243.3000,-4.74339,216.974,0.270545
243.2000,-4.89872,216.927,0.269886
243.1000,-1.58543,217.342,0.27562
243.0000,-3.34459,216.913,0.269698
242.9000,-2.27231,217.765,0.281471
242.8000,-3.20174,216.989,0.270749
242.7000,-3.27673,217.218,0.273914
242.6000,-2.28584,217.576,0.27886
242.5000,-3.37538,217.539,0.278343
242.4000,-1.55223,218.168,0.287015
242.3000,-4.89749,218.012,0.284877
242.2000,-3.01476,217.84,0.282502
242.1000,-4.62228,217.55,0.2785
242.0000,-2.29944,217.677,0.280252
241.9000,-4.79043,218.418,0.290463
241.8000,-3.83547,217.957,0.284111
241.7000,-4.95566,217.927,0.283705
241.6000,-4.71993,218.173,0.287093
241.5000,-3.25093,218.126,0.286438
241.4000,-2.17988,218.497,0.291554
241.3000,-4.30602,218.68,0.294063
241.2000,-2.71793,218.917,0.297316
241.1000,-6.07872,218.63,0.293377
241.0000,-5.28093,219.479,0.305027
240.9000,-4.7701,219.244,0.301811
240.8000,-4.83683,219.605,0.306766
240.7000,-5.21691,219.413,0.304126
240.6000,-5.04759,218.964,0.29797
240.5000,-7.4439,218.843,0.296305
240.4000,-5.9086,219.017,0.298701
240.3000,-6.53405,219.728,0.308442
240.2000,-5.65696,219.323,0.302899
240.1000,-7.56359,219.255,0.301967
240.0000,-7.79292,219.588,0.306533
239.9000,-7.42704,219.406,0.304033
239.8000,-6.97064,221.255,0.329297
239.7000,-6.13126,220.717,0.321962
239.6000,-4.61029,220.121,0.313822
239.5000,-8.39811,220.783,0.322858
239.4000,-6.47813,220.804,0.323152
239.3000,-7.41725,221.108,0.327291
239.2000,-8.06068,221.48,0.33235
239.1000,-6.99251,221.461,0.332103
239.0000,-7.56347,221.427,0.331641
238.9000,-7.22569,221.331,0.33033
238.8000,-8.0622,221.963,0.338925
238.7000,-8.9736,222.201,0.342155
238.6000,-7.72661,221.618,0.33423
238.5000,-7.82971,222.675,0.348575
238.4000,-10.12,221.531,0.333043
238.3000,-9.14662,221.993,0.339325
238.2000,-8.62226,221.501,0.332643
238.1000,-9.64381,222.337,0.343999
238.0000,-9.68126,222.907,0.35172
237.9000,-10.5392,222.668,0.348483
237.8000,-11.3276,222.948,0.352271
237.7000,-9.83809,222.565,0.347086
237.6000,-11.1649,222.878,0.351321
237.5000,-11.1021,223.33,0.357434
237.4000,-11.5317,224.245,0.369782
237.3000,-14.0077,223.588,0.360923
237.2000,-11.935,223.805,0.363843
237.1000,-12.7113,224.168,0.368745
237.0000,-12.4045,223.808,0.363889
236.9000,-11.3069,223.877,0.36482
236.8000,-12.9655,224.441,0.372421
236.7000,-13.2129,224.899,0.378575
236.6000,-14.9241,224.256,0.36992
236.5000,-11.734,224.636,0.375042
236.4000,-12.7904,224.947,0.379214
236.3000,-14.1676,224.543,0.373793
236.2000,-13.8813,225.225,0.382956
236.1000,-15.0283,226.343,0.397914
236.0000,-16.8402,226.327,0.397702
235.9000,-17.213,225.837,0.391155
235.8000,-14.1768,225.786,0.390473
235.7000,-14.0629,225.91,0.392126
235.6000,-14.4265,226.54,0.400548
235.5000,-16.021,226.883,0.405129
235.4000,-17.8026,227.09,0.407893
235.3000,-17.2287,226.487,0.399837
235.2000,-17.318,227.407,0.412103
235.1000,-17.5443,227.965,0.419531
235.0000,-16.3146,227.483,0.413113
234.9000,-18.5002,227.58,0.41441
234.8000,-19.2052,228.905,0.431987
234.7000,-19.337,228.072,0.420945
234.6000,-20.6765,228.367,0.42487
234.5000,-17.8556,228.852,0.431297
234.4000,-21.8965,229.009,0.433367
234.3000,-21.886,229.125,0.434911
234.2000,-19.3002,229.502,0.439883
234.1000,-18.4318,228.844,0.431192
234.0000,-19.2576,229.766,0.443369
233.9000,-21.0028,229.192,0.435795
233.8000,-20.8833,230.195,0.449032
233.7000,-22.6296,229.82,0.444087
233.6000,-20.417,230.419,0.451987
233.5000,-21.4698,230.04,0.446986
233.4000,-22.4597,230.344,0.450988
233.3000,-23.6251,230.938,0.458814
233.2000,-23.9471,231.182,0.462014
233.1000,-24.7115,231.418,0.465107
233.0000,-22.813,231.496,0.466133
232.9000,-25.3804,231.479,0.46591
232.8000,-25.9403,231.922,0.471716
232.7000,-23.5036,231.506,0.466267
232.6000,-25.4186,231.972,0.472369
232.5000,-22.8917,232.461,0.478773
232.4000,-24.9574,231.828,0.470484
232.3000,-26.7185,232.849,0.483834
232.2000,-25.2554,233.576,0.493317
232.1000,-27.482,234.05,0.499478
232.0000,-25.0638,233.38,0.490764
231.9000,-27.3621,234.007,0.498919
231.8000,-30.3741,233.79,0.496104
231.7000,-26.7956,234.097,0.500097
231.6000,-29.3674,234.726,0.50826
231.5000,-29.2525,234.466,0.504879
231.4000,-27.0462,234.835,0.50967
231.3000,-29.8123,234.397,0.503982
231.2000,-29.6049,235.174,0.514059
231.1000,-29.5716,234.766,0.508774
231.0000,-30.738,235.891,0.523333
230.9000,-28.6885,235.95,0.524093
230.8000,-31.1994,235.518,0.518516
230.7000,-32.8365,234.529,0.505703
230.6000,-31.3515,236.12,0.526287
230.5000,-29.5966,235.747,0.521474
230.4000,-30.6625,235.969,0.524342
230.3000,-32.7597,236.702,0.533794
230.2000,-32.9874,236.17,0.52693
230.1000,-32.112,236.178,0.527033
230.0000,-33.9383,236.478,0.530904
229.9000,-29.9302,237.33,0.541869
229.8000,-32.9152,237.508,0.544154
229.7000,-34.0331,237.414,0.542946
229.6000,-34.7539,237.213,0.540369
229.5000,-35.9334,237.914,0.549359
229.4000,-35.2675,238.268,0.553904
229.3000,-35.5525,238.029,0.550841
229.2000,-38.3369,238.793,0.560616
229.1000,-35.97,238.639,0.558646
229.0000,-37.6805,239.631,0.57132
228.9000,-37.8815,238.866,0.561558
228.8000,-41.8957,239.697,0.572157
228.7000,-38.4945,239.787,0.573298
228.6000,-40.2765,240.182,0.578332
228.5000,-40.1755,239.549,0.570265
228.4000,-38.3936,240.335,0.580278
228.3000,-40.4116,241.349,0.593151
228.2000,-39.2737,240.781,0.58595
228.1000,-40.128,241.471,0.594701
228.0000,-39.8813,240.725,0.585231
227.9000,-37.5999,242.113,0.602816
227.8000,-42.1282,241.826,0.599191
227.7000,-39.1537,242.73,0.610612
227.6000,-43.1968,242.824,0.611798
227.5000,-41.1607,242.917,0.612969
227.4000,-42.4673,243.43,0.619433
227.3000,-43.7466,243.351,0.618435
227.2000,-42.152,244.287,0.630195
227.1000,-40.4573,243.33,0.618164
227.0000,-45.6551,244.744,0.635919
226.9000,-43.0731,243.419,0.61929
226.8000,-42.8671,244.356,0.631062
226.7000,-48.3063,244.196,0.629058
226.6000,-43.6743,245.28,0.642627
226.5000,-45.3916,244.85,0.637253
226.4000,-47.8267,245.644,0.647186
226.3000,-44.8941,245.955,0.651061
226.2000,-46.0842,245.412,0.644284
226.1000,-46.4564,245.657,0.647341
226.0000,-46.3394,245.554,0.646053
225.9000,-44.9394,246.102,0.652898
225.8000,-45.022,245.785,0.64894
225.7000,-46.1219,247.665,0.67233
225.6000,-48.1563,247.187,0.666394
225.5000,-49.4681,246.906,0.662901
225.4000,-47.9893,247.236,0.667013
225.3000,-49.2563,247.088,0.665169
225.2000,-47.1391,247.435,0.669475
225.1000,-48.38,247.738,0.673243
225.0000,-49.1263,248.164,0.678522
224.9000,-49.2324,247.649,0.672133
224.8000,-47.5991,248.22,0.67921
224.7000,-48.7533,248.806,0.686455
224.6000,-50.8467,248.774,0.686063
224.5000,-49.9857,249.21,0.691451
224.4000,-48.9269,250.205,0.703706
224.3000,-49.9351,250.858,0.711725
224.2000,-47.0707,250.536,0.707774
224.1000,-46.5749,250.365,0.705671
224.0000,-51.2936,250.426,0.706423
223.9000,-50.7431,250.44,0.70659
223.8000,-47.4279,250.398,0.706075
223.7000,-49.2768,251.311,0.717283
223.6000,-51.917,252.037,0.726173
223.5000,-51.3376,250.79,0.71089
223.4000,-50.0234,251.485,0.719421
223.3000,-49.692,252.085,0.726755
223.2000,-48.5426,252.211,0.728292
223.1000,-50.6988,252.122,0.727212
223.0000,-47.9251,253.269,0.7412
222.9000,-50.8018,252.758,0.734973
222.8000,-51.146,253.336,0.742014
222.7000,-51.8689,253.698,0.746425
222.6000,-49.4754,254.233,0.752922
222.5000,-50.405,253.813,0.747816
222.4000,-49.1112,254.318,0.753954
222.3000,-53.3468,254.161,0.752042
222.2000,-49.6806,254.733,0.758982
222.1000,-52.0287,255.491,0.768157
222.0000,-51.2968,254.94,0.761494
221.9000,-51.8966,255.461,0.767801
221.8000,-53.8287,255.966,0.773891
221.7000,-52.9713,256.228,0.777063
221.6000,-54.3051,256.065,0.775095
221.5000,-51.2622,256.359,0.778634
221.4000,-52.6291,256.523,0.780614
221.3000,-50.9963,256.597,0.781501
221.2000,-51.7285,257.058,0.787052
221.1000,-48.7271,257.136,0.787992
221.0000,-49.9707,257.952,0.797788
220.9000,-51.9224,257.764,0.795532
220.8000,-48.4757,258.021,0.798617
220.7000,-50.2274,258.074,0.799255
220.6000,-50.2253,258.743,0.807261
220.5000,-51.5963,258.466,0.803952
220.4000,-49.5452,259.007,0.810418
220.3000,-50.9741,259.491,0.816196
220.2000,-51.2278,259.881,0.820858
220.1000,-50.1123,258.935,0.809564
220.0000,-53.3502,260.32,0.826081
219.9000,-50.7876,260.431,0.827402
219.8000,-50.209,260.399,0.827025
219.7000,-51.6543,261.029,0.834513
219.6000,-50.4282,260.589,0.829275
219.5000,-50.9755,261.183,0.836343
219.4000,-50.6713,262.123,0.847475
219.3000,-50.6197,261.933,0.845235
219.2000,-48.4971,262.193,0.848306
219.1000,-50.7459,261.938,0.845289
219.0000,-51.9995,261.869,0.84447
218.9000,-53.4484,262.991,0.857732
218.8000,-49.1331,262.446,0.851295
218.7000,-48.7987,262.983,0.857639
218.6000,-50.96,263.438,0.863011
218.5000,-51.6939,264.255,0.872626
218.4000,-49.7246,263.825,0.867561
218.3000,-55.2449,264.492,0.875409
218.2000,-49.6523,264.261,0.872692
218.1000,-54.3136,264.636,0.877098
218.0000,-50.6785,264.955,0.880848
217.9000,-52.6467,265.668,0.889198
217.8000,-47.3574,265.543,0.887739
217.7000,-49.2801,265.058,0.882057
217.6000,-50.2372,266.723,0.901523
217.5000,-49.1941,265.738,0.89002
217.4000,-49.6415,266.725,0.901549
217.3000,-53.105,267.285,0.908073
217.2000,-50.1916,267.589,0.911607
217.1000,-51.6226,267.921,0.915467
217.0000,-50.1698,267.173,0.906766
216.9000,-48.2903,268.033,0.91677
216.8000,-49.244,268.564,0.922939
216.7000,-50.7738,268.725,0.924804
216.6000,-52.7487,268.768,0.925304
216.5000,-51.3519,269.586,0.934774
216.4000,-49.0549,269.462,0.933332
216.3000,-49.773,270.138,0.941148
216.2000,-50.1347,269.881,0.938178
216.1000,-51.6483,270.135,0.941109
216.0000,-51.7905,270.52,0.945553
215.9000,-51.2242,271.409,0.955793
215.8000,-51.034,271.861,0.960987
215.7000,-48.7141,271.353,0.955141
215.6000,-50.2417,271.614,0.95815
215.5000,-51.2861,272.852,0.97234
215.4000,-46.9575,272.684,0.97042
215.3000,-48.0185,272.69,0.970484
215.2000,-50.9878,273.11,0.975295
215.1000,-48.2435,273.564,0.980489
215.0000,-51.6208,274.409,0.990118
214.9000,-47.181,273.488,0.979621
214.8000,-47.1559,273.939,0.98477
214.7000,-47.8898,274.362,0.989588
214.6000,-53.2201,274.815,0.994749
214.5000,-54.5444,275.246,0.999645
214.4000,-51.2396,274.895,0.995651
214.3000,-47.9067,275.987,1.00806
214.2000,-50.3621,276.056,1.00884
214.1000,-50.7296,276.116,1.00952
214.0000,-50.5396,276.853,1.01786
213.9000,-52.2974,277.111,1.02078
213.8000,-49.8008,276.748,1.01668
213.7000,-52.2598,276.904,1.01844
213.6000,-46.3461,278.093,1.03186
213.5000,-49.763,278.605,1.03763
213.4000,-48.6899,278.541,1.0369
213.3000,-51.1977,279.02,1.04229
213.2000,-43.7732,279.186,1.04415
213.1000,-54.5254,279.627,1.04911
213.0000,-48.4862,280.067,1.05404
212.9000,-52.1883,280.255,1.05614
212.8000,-47.4464,280.243,1.056
212.7000,-49.6995,280.95,1.06391
212.6000,-51.0042,281.372,1.06863
212.5000,-48.617,281.975,1.07535
212.4000,-52.9519,281.913,1.07466
212.3000,-48.7871,281.826,1.07368
212.2000,-51.8068,283.416,1.09137
212.1000,-50.4663,283.483,1.09211
212.0000,-53.5659,284.478,1.10312
211.9000,-52.2297,283.581,1.09319
211.8000,-52.6715,284.736,1.10598
211.7000,-51.9595,284.735,1.10597
211.6000,-57.1465,285.94,1.11925
211.5000,-54.7638,285.386,1.11315
211.4000,-45.4578,286.289,1.12309
211.3000,-51.6365,285.846,1.11822
211.2000,-51.0233,286.841,1.12915
211.1000,-57.2174,287.678,1.13834
211.0000,-50.944,288.181,1.14384
210.9000,-54.4728,288.644,1.14891
210.8000,-53.6011,288.951,1.15226
210.7000,-50.4657,288.682,1.14932
210.6000,-53.9628,289.849,1.16204
210.5000,-52.7139,291.291,1.17771
210.4000,-54.7788,291.318,1.17801
210.3000,-54.3803,291.145,1.17613
210.2000,-53.3538,291.282,1.17761
210.1000,-53.7919,292.799,1.19403
210.0000,-50.9018,293.282,1.19923
209.9000,-58.805,293.078,1.19703
209.8000,-51.1553,293.895,1.20584
209.7000,-48.6481,294.82,1.21577
209.6000,-55.4776,294.712,1.21462
209.5000,-60.946,296.032,1.22876
209.4000,-52.4882,295.997,1.22839
209.3000,-63.4773,296.246,1.23105
209.2000,-57.2279,298.561,1.25572
209.1000,-56.7519,297.87,1.24837
209.0000,-57.2413,298.444,1.25448
208.9000,-52.6517,299.286,1.26341
208.8000,-55.8394,299.722,1.26803
208.7000,-58.8102,300.349,1.27466
208.6000,-52.3162,301.38,1.28554
208.5000,-51.8055,301.006,1.2816
208.4000,-55.2963,303.089,1.3035
208.3000,-53.6928,302.896,1.30148
208.2000,-49.0557,303.371,1.30646
208.1000,-57.3804,305.114,1.32468
208.0000,-55.6538,305.272,1.32633
207.9000,-53.9503,305.949,1.33338
207.8000,-54.9505,306.727,1.34147
207.7000,-49.2297,307.405,1.3485
207.6000,-53.9619,307.913,1.35377
207.5000,-53.7542,308.585,1.36072
207.4000,-48.5876,309.378,1.3689
207.3000,-56.8773,309.62,1.37139
207.2000,-53.0002,311.061,1.38621
207.1000,-48.1213,310.557,1.38103
207.0000,-51.1496,312.297,1.39888
206.9000,-46.2901,312.78,1.40381
206.8000,-50.1841,314.336,1.41967
206.7000,-43.9603,314.053,1.4168
206.6000,-50.1084,315.375,1.43023
206.5000,-49.4117,315.338,1.42986
206.4000,-44.889,317.062,1.44731
206.3000,-38.8028,318.148,1.45827
206.2000,-34.5617,319.034,1.46718
206.1000,-42.1184,319.741,1.47428
206.0000,-43.3735,320.499,1.48188
205.9000,-36.6621,321.042,1.48731
205.8000,-39.6281,322.025,1.49711
205.7000,-48.1069,323.01,1.50693
205.6000,-45.0191,323.849,1.51526
205.5000,-48.2132,324.729,1.52399
205.4000,-35.824,326.251,1.53902
205.3000,-34.7226,326.575,1.54222
205.2000,-35.3286,328.222,1.55842
205.1000,-43.0083,329.026,1.56629
205.0000,-32.3247,329.873,1.57459
204.9000,-33.2414,331.258,1.58809
204.8000,-37.9659,331.667,1.59207
204.7000,-33.4267,333.217,1.60712
204.6000,-28.504,334.82,1.62263
204.5000,-36.1462,334.491,1.61944
204.4000,-30.2904,335.616,1.6303
204.3000,-24.0581,337.216,1.64568
204.2000,-34.015,338.357,1.65661
204.1000,-32.9432,339.61,1.66858
204.0000,-30.7219,340.498,1.67704
203.9000,-27.299,341.627,1.68777
203.8000,-10.3742,343.97,1.70994
203.7000,-20.1143,344.835,1.7181
203.6000,-22.5842,345.846,1.7276
203.5000,-21.9041,346.94,1.73786
203.4000,-14.5312,348.17,1.74937
203.3000,-16.8341,348.939,1.75655
203.2000,-14.557,350.058,1.76696
203.1000,-17.942,351.133,1.77695
203.0000,-12.7776,352.368,1.78839
202.9000,-16.2569,353.421,1.79811
202.8000,-12.9006,353.962,1.8031
202.7000,-15.6425,356.134,1.82306
202.6000,-8.12795,357.405,1.83469
202.5000,-9.91152,357.846,1.83872
202.4000,-15.503,359.917,1.85757
202.3000,-8.22674,361.694,1.87369
202.2000,-4.73406,362.075,1.87713
202.1000,-5.05063,364.049,1.89493
202.0000,-7.17883,366.884,1.92036
201.9000,4.72115,367.249,1.92362
201.8000,4.08321,369.394,1.94273
201.7000,3.21786,370.46,1.9522
201.6000,-2.25025,372.286,1.96836
201.5000,6.47512,373.561,1.9796
201.4000,5.70795,375.116,1.99326
201.3000,12.3776,376.406,2.00457
201.2000,8.50618,378.442,2.02235
201.1000,9.92633,379.493,2.03149
201.0000,7.85167,381.197,2.04627
200.9000,4.92722,383.113,2.06282
200.8000,13.771,383.248,2.06398
200.7000,9.61339,385.429,2.08273
200.6000,19.6861,386.926,2.09555
200.5000,15.5805,388.579,2.10966
200.4000,15.0617,390.941,2.12973
200.3000,5.19823,391.715,2.13629
200.2000,11.8029,393.251,2.14926
200.1000,15.7473,395.22,2.16583
200.0000,9.29919,397.379,2.18392
199.9000,25.3461,399.566,2.20216
199.8000,14.5075,400.769,2.21216
199.7000,9.6478,402.092,2.22312
199.6000,19.5333,403.139,2.23178
199.5000,16.2204,405.396,2.25038
199.4000,15.3343,405.789,2.25361
199.3000,26.885,408.028,2.27196
199.2000,23.2666,409.881,2.28708
199.1000,28.4835,410.958,2.29584
199.0000,38.0372,412.585,2.30904
198.9000,33.7023,414.404,2.32375
198.8000,29.837,416.323,2.3392
198.7000,28.8868,417.95,2.35226
198.6000,28.0936,419.918,2.368
198.5000,28.8695,421.176,2.37803
198.4000,20.7167,424.098,2.40122
198.3000,23.5095,425.046,2.40872
198.2000,31.7542,427.521,2.42822
198.1000,38.1903,428.774,2.43806
198.0000,31.9953,430.064,2.44816
197.9000,26.5886,432.121,2.46422
197.8000,31.5245,432.975,2.47086
197.7000,27.8699,435.658,2.49167
197.6000,28.8245,436.118,2.49523
197.5000,31.8707,438.294,2.51202
197.4000,34.115,440.285,2.52732
197.3000,32.6196,441.335,2.53536
197.2000,35.3012,443.917,2.55507
197.1000,26.1158,444.645,2.56061
197.0000,33.6728,446.954,2.57813
196.9000,39.2754,448.229,2.58777
196.8000,20.0363,450.538,2.60518
196.7000,37.3052,452.025,2.61634
196.6000,30.445,453.738,2.62917
196.5000,34.0099,455.081,2.6392
196.4000,27.308,457.045,2.65382
196.3000,23.4191,458.547,2.66496
196.2000,30.3311,460.01,2.67579
196.1000,34.4855,463.069,2.69833
196.0000,31.6842,463.827,2.7039
195.9000,27.6203,465.192,2.7139
195.8000,49.512,467.289,2.72923
195.7000,40.2791,468.287,2.73649
195.6000,27.5204,470.262,2.75084
195.5000,31.0553,471.057,2.75661
195.4000,41.3836,472.713,2.76859
195.3000,42.9973,474.103,2.77861
195.2000,34.9695,474.85,2.78399
195.1000,38.2543,476.168,2.79346
195.0000,28.0474,477.847,2.8055
194.9000,37.7014,478.73,2.81181
194.8000,20.6919,479.419,2.81673
194.7000,27.6293,480.468,2.82421
194.6000,35.733,481.895,2.83436
194.5000,35.2061,483.984,2.84918
194.4000,16.1031,484.535,2.85307
194.3000,30.2968,485.492,2.85984
194.2000,29.3114,487.451,2.87365
194.1000,13.214,488.648,2.88206
194.0000,29.6509,489.134,2.88547
193.9000,28.5722,490.711,2.89652
193.8000,27.3306,491.985,2.90542
193.7000,15.2083,493.449,2.91563
193.6000,35.5127,494.127,2.92036
193.5000,24.9996,495.429,2.9294
193.4000,26.7251,496.098,2.93404
193.3000,29.3947,496.969,2.94007
193.2000,23.3081,498.246,2.9489
193.1000,23.6154,498.996,2.95408
193.0000,25.0033,500.112,2.96178
192.9000,20.5112,501.002,2.9679
192.8000,22.2064,501.991,2.97469
192.7000,25.5972,502.328,2.97701
192.6000,18.5405,503.858,2.98749
192.5000,13.2359,505.137,2.99623
192.4000,32.6757,506.811,3.00764
192.3000,3.61283,507.076,3.00945
192.2000,19.0746,508.667,3.02026
192.1000,15.2928,508.844,3.02146
192.0000,23.5963,509.848,3.02826
191.9000,13.685,510.331,3.03154
191.8000,11.0406,512.528,3.04638
191.7000,4.23194,512.528,3.04638
191.6000,20.0231,513.933,3.05585
191.5000,15.132,513.818,3.05507
191.4000,16.3688,514.802,3.06169
191.3000,13.7497,515.938,3.06931
191.2000,21.097,516.529,3.07328
191.1000,16.5453,517.447,3.07942
191.0000,13.8376,519.625,3.09397
190.9000,26.9582,520.524,3.09996
190.8000,35.2423,521.256,3.10483
190.7000,-0.922571,522.355,3.11213
190.6000,33.8377,524.584,3.12689
190.5000,19.5303,524.155,3.12405
190.4000,18.9442,525.322,3.13177
190.3000,30.1834,526.229,3.13776
190.2000,4.52507,526.759,3.14125
190.1000,5.10844,527.762,3.14786
190.0000,5.15002,527.64,3.14705

##### Extended Information
[Comments]
Sample name,SHND.928.BUFFER+PROTEIN
Comment,BUFFER + PROTEIN 
User,SADIYYAH HOLSEY
Division
Company,Saint Mary's College

[Detailed Information]
Creation date,9/28/2022 2:40 PM

Data array type,Linear data array * 3
Horizontal axis,Wavelength [nm]
Vertical axis(1),CD [mdeg]
Vertical axis(2),HT [V]
Vertical axis(3),Abs
Start,320 nm
End,190 nm
Data interval,0.1 nm
Data points,1301    

[Measurement Information]
Instrument name,J-1500
Model name,J-1500
Serial No.,B051061638

Detector,PM-539
Detector S/N,B051061638
  Lock-in amp.,X mode
  HT volt,Auto

Accessory,PTC-517
Accessory S/N,B026561646
  Temperature,27.41 C
  Control sensor,Holder
  Monitor sensor,Holder

Measurement date,9/28/2022 2:40 PM

CD Overload detect,994
Photometric mode,CD, HT, Abs
Measure range,320 - 190 nm
Data pitch,0.1 nm
CD scale,20 mdeg/0.05 dOD
FL scale,20 mdeg/0.05 dOD
D.I.T.,8 msec
Bandwidth,2.00 nm
Start mode,Immediately
Scanning mode,Continuous
Scanning speed,200 nm/min
Baseline correction,None
Shutter control,Auto
No. of cycle,1/1
N2 Flowmeter,Manual

Solvent,NaPO4 buffer

