TITLE,SHND.928.ADDITIVE+PROTEIN
DATA TYPE,
ORIGIN,JASCO
OWNER,
DATE,22/09/28
TIME,15:48:32
SPECTROMETER/DATA SYSTEM,
LOCALE,1033
RESOLUTION,
DELTAX,-0.1
XUNITS,NANOMETERS
YUNITS,CD [mdeg]
Y2UNITS,HT [V]
Y3UNITS,ABSORBANCE
FIRSTX,  320.0000
LASTX,  190.0000
NPOINTS,    1301
FIRSTY,     0.55903
MAXY,    20.43646
MINY,   -74.11901
XYDATA
320.0000,0.55903,208.444,0.150555
319.9000,1.90711,208.717,0.154458
319.8000,0.640213,208.072,0.145237
319.7000,1.08765,208.683,0.153973
319.6000,0.626608,208.572,0.152386
319.5000,2.35198,208.537,0.151884
319.4000,1.63932,208.722,0.154539
319.3000,2.26642,208.822,0.155963
319.2000,1.33637,208.926,0.157451
319.1000,1.99007,209.031,0.158939
319.0000,0.267418,208.937,0.157597
318.9000,2.07222,208.925,0.157435
318.8000,1.32807,208.069,0.145188
318.7000,0.622609,208.842,0.156254
318.6000,-0.597308,209.103,0.159973
318.5000,1.02169,208.515,0.151576
318.4000,0.541754,209.377,0.163882
318.3000,2.87865,209.028,0.158907
318.2000,1.99206,208.203,0.147119
318.1000,1.47903,208.291,0.148367
318.0000,2.0495,207.836,0.14186
317.9000,1.80174,208.745,0.154863
317.8000,1.5004,208.191,0.14694
317.7000,0.0737925,209.248,0.162042
317.6000,0.417383,208.186,0.146875
317.5000,2.60398,208.527,0.151754
317.4000,3.30941,208.824,0.155996
317.3000,1.98756,208.712,0.154393
317.2000,2.09803,208.397,0.149891
317.1000,1.30399,208.7,0.154215
317.0000,1.81594,208.14,0.14621
316.9000,2.97132,208.363,0.149405
316.8000,-0.0565225,208.346,0.149162
316.7000,2.02837,208.981,0.158228
316.6000,0.958443,208.971,0.158082
316.5000,1.30933,208.118,0.145902
316.4000,1.92823,208.31,0.148643
316.3000,2.31369,208.538,0.1519
316.2000,0.649049,208.222,0.147378
316.1000,0.0810173,208.547,0.15203
316.0000,2.87779,208.574,0.152418
315.9000,0.460582,208.071,0.145221
315.8000,1.87248,208.608,0.152904
315.7000,2.68024,208.36,0.149356
315.6000,3.07797,207.972,0.143809
315.5000,1.8622,209.207,0.16146
315.4000,1.73121,208.373,0.149551
315.3000,0.385647,209.004,0.158567
315.2000,-0.33731,208.091,0.145513
315.1000,1.30206,208.949,0.157775
315.0000,0.635864,208.712,0.154393
314.9000,1.30089,208.157,0.146454
314.8000,1.01514,207.02,0.130147
314.7000,1.44653,208.157,0.146454
314.6000,0.574325,207.279,0.13386
314.5000,1.44668,208.143,0.146259
314.4000,1.03162,208.217,0.147313
314.3000,1.24287,207.697,0.139862
314.2000,0.0582932,207.478,0.136724
314.1000,2.3726,207.912,0.142948
314.0000,1.56069,207.707,0.140008
313.9000,0.998931,208.189,0.146908
313.8000,-0.621185,208.346,0.149162
313.7000,1.0962,208.351,0.149226
313.6000,1.85624,208.209,0.1472
313.5000,1.1971,208.682,0.153957
313.4000,0.63173,208.368,0.149469
313.3000,1.24293,208.464,0.150847
313.2000,0.689686,207.629,0.138886
313.1000,2.50709,208.083,0.145399
313.0000,2.43625,207.895,0.142705
312.9000,0.449718,208.208,0.147183
312.8000,1.56097,207.998,0.144182
312.7000,1.43869,207.791,0.14121
312.6000,0.895986,207.843,0.141958
312.5000,-0.66343,207.752,0.140658
312.4000,0.975902,207.641,0.139065
312.3000,2.76395,207.976,0.143857
312.2000,1.14494,207.661,0.139342
312.1000,1.43896,208.043,0.144815
312.0000,2.41653,208.171,0.146648
311.9000,0.826214,207.556,0.137846
311.8000,1.09402,207.982,0.143955
311.7000,0.451526,207.61,0.13861
311.6000,0.217954,208.118,0.145902
311.5000,1.3933,208.55,0.152078
311.4000,1.48477,208.259,0.147913
311.3000,0.920851,207.635,0.138968
311.2000,2.02822,207.831,0.141779
311.1000,2.45187,207.897,0.142737
311.0000,-0.146367,208.15,0.146356
310.9000,1.15989,207.874,0.142396
310.8000,0.393868,208.634,0.153276
310.7000,0.869289,208.753,0.154976
310.6000,0.631536,208.134,0.146129
310.5000,0.848841,207.695,0.139829
310.4000,1.85269,208.131,0.146081
310.3000,1.48735,208.518,0.151625
310.2000,-0.342112,207.992,0.144085
310.1000,1.44666,207.681,0.139634
310.0000,1.22208,208.972,0.158098
309.9000,1.53361,208.524,0.151706
309.8000,1.23411,208.897,0.157031
309.7000,-0.603315,208.625,0.153147
309.6000,0.820104,208.022,0.144523
309.5000,-0.716654,208.37,0.149502
309.4000,1.73919,208.566,0.152305
309.3000,1.5319,208.176,0.14673
309.2000,-0.210692,207.918,0.143029
309.1000,0.523688,208.021,0.144506
309.0000,-0.00287123,207.741,0.140495
308.9000,-0.268893,207.969,0.14376
308.8000,1.88984,208.768,0.155187
308.7000,0.673853,208.861,0.156513
308.6000,0.889858,207.286,0.133958
308.5000,1.57324,208.268,0.148043
308.4000,0.0255376,207.65,0.139195
308.3000,1.1595,208.057,0.145026
308.2000,1.94865,208.36,0.149356
308.1000,0.803904,208.76,0.155073
308.0000,0.696794,208.174,0.146697
307.9000,1.40585,207.767,0.140869
307.8000,0.756334,208.355,0.149291
307.7000,0.510827,208.121,0.145935
307.6000,-0.220371,208.339,0.149064
307.5000,1.41882,208.543,0.151981
307.4000,1.78279,207.918,0.143029
307.3000,2.03801,207.801,0.141356
307.2000,1.06701,208.057,0.145026
307.1000,2.28481,208.717,0.154458
307.0000,-0.386109,208.047,0.14488
306.9000,0.217149,208.379,0.149632
306.8000,1.22934,208.177,0.146746
306.7000,1.15571,207.524,0.137374
306.6000,0.702633,207.875,0.142412
306.5000,1.16649,207.956,0.143581
306.4000,2.18592,207.928,0.143175
306.3000,0.556709,208.01,0.144344
306.2000,0.572209,207.542,0.137635
306.1000,1.79028,207.788,0.141162
306.0000,3.05834,207.912,0.142948
305.9000,1.21583,208.299,0.148481
305.8000,2.08033,208.29,0.148351
305.7000,-0.183204,207.768,0.140886
305.6000,-0.475898,208.111,0.145789
305.5000,0.411906,206.848,0.127669
305.4000,0.758109,208.299,0.148481
305.3000,1.17034,209.026,0.158874
305.2000,0.684865,208.063,0.145107
305.1000,-1.44183,207.853,0.142104
305.0000,1.43662,208.024,0.144555
304.9000,1.08933,208.016,0.144442
304.8000,1.56043,207.772,0.140934
304.7000,0.193706,207.683,0.139667
304.6000,0.775561,207.916,0.142997
304.5000,1.53888,208.387,0.149745
304.4000,1.5819,207.819,0.141617
304.3000,1.56755,207.604,0.138529
304.2000,0.808586,207.867,0.142299
304.1000,0.32033,207.729,0.140317
304.0000,0.962231,207.466,0.136545
303.9000,1.0149,207.7,0.139911
303.8000,1.66339,207.922,0.143094
303.7000,1.53397,207.614,0.138675
303.6000,1.9272,207.283,0.133925
303.5000,2.08902,207.879,0.142477
303.4000,0.748431,207.196,0.132672
303.3000,0.818792,208.039,0.144766
303.2000,1.01839,207.665,0.139407
303.1000,0.311308,207.081,0.13101
303.0000,1.46473,208.339,0.149064
302.9000,0.843479,207.954,0.143549
302.8000,1.8032,208.09,0.145496
302.7000,1.85835,208.333,0.148967
302.6000,1.73139,207.873,0.14238
302.5000,3.80819,208.465,0.150863
302.4000,0.821406,207.33,0.134592
302.3000,1.17537,208.334,0.148983
302.2000,2.05696,208.307,0.148594
302.1000,2.5152,207.992,0.144085
302.0000,-0.276223,207.773,0.14095
301.9000,0.957965,207.922,0.143094
301.8000,1.96547,207.678,0.139586
301.7000,-0.407949,207.709,0.14004
301.6000,1.16732,207.633,0.138952
301.5000,1.25563,207.575,0.138106
301.4000,0.96478,207.499,0.137017
301.3000,0.542952,207.811,0.141503
301.2000,0.684158,207.706,0.139992
301.1000,1.26911,207.194,0.132639
301.0000,-0.304647,208.288,0.148335
300.9000,1.03444,207.814,0.141535
300.8000,1.00934,207.538,0.137586
300.7000,1.32293,207.729,0.140317
300.6000,1.13293,207.176,0.132378
300.5000,0.324357,208.326,0.14887
300.4000,0.837502,207.782,0.14108
300.3000,2.59561,207.282,0.133909
300.2000,1.36693,207.389,0.135439
300.1000,-0.0543126,207.695,0.139829
300.0000,1.84962,207.509,0.137163
299.9000,-0.526488,208.038,0.14475
299.8000,-0.0297565,206.983,0.129609
299.7000,3.01722,207.741,0.140495
299.6000,1.72326,207.356,0.134967
299.5000,0.545903,207.031,0.130293
299.4000,-0.692677,206.653,0.124863
299.3000,0.20087,207.027,0.130245
299.2000,1.19851,207.585,0.138252
299.1000,-0.134166,207.711,0.140057
299.0000,0.0520955,207.953,0.143533
298.9000,-0.668807,207.249,0.133437
298.8000,0.599009,207.486,0.136838
298.7000,1.18428,206.941,0.129006
298.6000,0.103018,207.541,0.137618
298.5000,1.63014,207.071,0.13088
298.4000,1.99291,207.577,0.138139
298.3000,-0.0840906,207.458,0.136431
298.2000,0.878848,207.069,0.130847
298.1000,2.90175,207.827,0.14173
298.0000,2.86903,207.724,0.140252
297.9000,0.0146526,207.384,0.135374
297.8000,0.353388,207.79,0.141194
297.7000,0.305464,207.663,0.139374
297.6000,0.718235,207.485,0.136822
297.5000,0.433519,207.386,0.135406
297.4000,0.630621,207.048,0.130538
297.3000,1.11105,207.033,0.130326
297.2000,0.798371,207.375,0.135243
297.1000,0.549423,207.394,0.13552
297.0000,0.8013,207.401,0.135618
296.9000,0.550892,207.611,0.138626
296.8000,1.62524,207.086,0.131092
296.7000,-1.76151,207.166,0.132232
296.6000,2.21701,207.669,0.139455
296.5000,1.1033,207.558,0.137862
296.4000,1.93959,207.257,0.133551
296.3000,0.184692,208.212,0.147248
296.2000,1.50218,206.53,0.123084
296.1000,0.804684,207.916,0.142997
296.0000,0.588685,207.713,0.140089
295.9000,0.79641,207.964,0.143695
295.8000,0.947897,207.564,0.13796
295.7000,3.04196,207.298,0.134137
295.6000,0.296343,207.308,0.134283
295.5000,0.114324,207.411,0.135764
295.4000,1.07284,207.828,0.141746
295.3000,0.848019,207.448,0.136285
295.2000,2.35225,207.907,0.142867
295.1000,0.345481,207.147,0.131971
295.0000,1.52195,206.98,0.12956
294.9000,2.17486,206.956,0.129218
294.8000,-0.824975,207.282,0.133909
294.7000,1.9544,207.712,0.140073
294.6000,0.134814,206.912,0.128582
294.5000,-1.70526,206.797,0.126935
294.4000,1.07131,207.534,0.137521
294.3000,1.57529,208.355,0.149291
294.2000,-0.340281,207.563,0.137943
294.1000,0.941618,207.405,0.135666
294.0000,1.02474,207.32,0.134446
293.9000,0.58989,207.366,0.135113
293.8000,1.1326,207.22,0.133014
293.7000,0.900152,207.135,0.131792
293.6000,0.684964,207.606,0.138561
293.5000,1.57317,207.343,0.134788
293.4000,0.129071,207.279,0.13386
293.3000,1.97577,207.076,0.130945
293.2000,1.73479,207.576,0.138123
293.1000,0.796772,207.902,0.142802
293.0000,-0.218752,206.781,0.126707
292.9000,1.68718,207.503,0.137082
292.8000,1.00629,207.492,0.136919
292.7000,0.632748,207.337,0.13469
292.6000,0.548729,206.84,0.127555
292.5000,1.27352,206.916,0.128647
292.4000,0.435955,207.543,0.137651
292.3000,1.92895,207.263,0.133632
292.2000,0.88415,207.662,0.139358
292.1000,1.65629,207.706,0.139992
292.0000,1.84594,207.088,0.131124
291.9000,1.61987,206.779,0.126674
291.8000,2.22265,207.078,0.130978
291.7000,-0.11108,207.016,0.130082
291.6000,1.83192,206.797,0.126935
291.5000,0.731044,206.789,0.126821
291.4000,1.19022,207.371,0.135178
291.3000,1.1341,207.028,0.130261
291.2000,2.49948,207.645,0.139114
291.1000,0.794897,207.297,0.13412
291.0000,-0.42295,206.89,0.128272
290.9000,-0.439711,206.746,0.126201
290.8000,0.964793,207.265,0.133665
290.7000,1.18174,207.338,0.134707
290.6000,0.260129,207.384,0.135374
290.5000,1.45073,207.397,0.135553
290.4000,0.983118,208.256,0.147865
290.3000,0.228514,207.278,0.133844
290.2000,1.58533,207.406,0.135683
290.1000,1.16307,207.318,0.13443
290.0000,-0.221696,207.328,0.13456
289.9000,1.0407,207.475,0.136675
289.8000,0.845476,207.835,0.141844
289.7000,1.24521,207.971,0.143792
289.6000,-0.374309,207.598,0.138448
289.5000,0.434376,207.605,0.138545
289.4000,1.18214,207.692,0.139797
289.3000,0.936049,207.374,0.135227
289.2000,0.804719,208.446,0.150588
289.1000,1.17901,207.939,0.143338
289.0000,1.48353,207.97,0.143776
288.9000,1.42145,207.793,0.141243
288.8000,-0.430934,207.202,0.132753
288.7000,0.749004,207.897,0.142737
288.6000,0.547223,208.259,0.147913
288.5000,1.29206,208.381,0.149664
288.4000,2.56367,207.416,0.135829
288.3000,0.630497,208.045,0.144847
288.2000,0.599998,207.866,0.142282
288.1000,0.383697,208.159,0.146486
288.0000,0.123533,207.78,0.141048
287.9000,-0.669313,207.952,0.143516
287.8000,-0.128135,207.748,0.140593
287.7000,0.703017,207.885,0.142558
287.6000,0.404571,207.832,0.141795
287.5000,-0.0601643,208.441,0.150523
287.4000,1.76308,208.75,0.154928
287.3000,-0.297735,208.106,0.145724
287.2000,1.36397,208.15,0.146356
287.1000,0.439021,208.833,0.156125
287.0000,1.44995,207.751,0.140642
286.9000,1.4933,208.08,0.145351
286.8000,-0.4521,207.884,0.142542
286.7000,0.35277,208.056,0.14501
286.6000,-0.0227248,207.99,0.144068
286.5000,0.401147,208.771,0.155235
286.4000,-0.514907,208.062,0.145091
286.3000,0.821287,207.803,0.141389
286.2000,2.11311,208.048,0.144896
286.1000,1.92626,207.356,0.134967
286.0000,1.56495,208.464,0.150847
285.9000,0.151327,208.377,0.149599
285.8000,0.00893142,208.081,0.145367
285.7000,1.09569,208.566,0.152305
285.6000,2.10266,208.117,0.145886
285.5000,1.66954,207.223,0.133062
285.4000,1.89612,208.523,0.15169
285.3000,-0.867615,208.89,0.156934
285.2000,-0.534653,208.053,0.144961
285.1000,-0.122516,208.297,0.148465
285.0000,2.00571,208.123,0.145967
284.9000,-0.345113,208.283,0.148254
284.8000,0.697237,208.572,0.152386
284.7000,0.600438,208.829,0.15606
284.6000,-0.507826,208.242,0.14767
284.5000,0.337468,208.506,0.151447
284.4000,1.05094,208.21,0.147216
284.3000,-0.268322,208.156,0.146437
284.2000,-0.0793667,208.44,0.150507
284.1000,0.440296,208.18,0.146778
284.0000,0.587223,208.027,0.144588
283.9000,0.940491,208.207,0.147167
283.8000,-0.842676,207.837,0.141876
283.7000,1.83389,207.935,0.143273
283.6000,-0.882713,208.328,0.148902
283.5000,0.169364,208.584,0.152564
283.4000,0.296269,208.716,0.154442
283.3000,-0.483805,208.305,0.148578
283.2000,1.53411,208.651,0.153519
283.1000,0.968392,208.464,0.150847
283.0000,1.03894,208.849,0.156351
282.9000,0.339005,209.955,0.172106
282.8000,0.630088,207.277,0.133828
282.7000,0.662981,208.319,0.148773
282.6000,-0.563231,207.972,0.143809
282.5000,0.618727,208.721,0.154523
282.4000,2.15259,208.601,0.152807
282.3000,1.34331,208.318,0.148757
282.2000,2.794,207.841,0.141925
282.1000,0.362116,208.029,0.14462
282.0000,-0.227852,208.709,0.154345
281.9000,-0.0991817,209.076,0.159585
281.8000,1.41033,207.824,0.141681
281.7000,-0.122486,208.813,0.155834
281.6000,1.57776,208.108,0.145756
281.5000,0.170843,208.812,0.155818
281.4000,0.416834,208.425,0.150296
281.3000,-0.37653,208.365,0.149437
281.2000,-0.106528,207.675,0.139553
281.1000,0.179377,208.414,0.150134
281.0000,-0.846096,208.436,0.150442
280.9000,-1.28891,208.086,0.145432
280.8000,0.603625,208.211,0.147232
280.7000,-0.372298,207.314,0.134365
280.6000,0.177336,207.722,0.140219
280.5000,0.694574,208.418,0.150183
280.4000,0.498685,207.637,0.139
280.3000,0.797122,208.159,0.146486
280.2000,0.540944,208.061,0.145075
280.1000,0.81149,208.322,0.148821
280.0000,0.110518,207.935,0.143273
279.9000,0.121058,208.097,0.145594
279.8000,0.0383977,208.231,0.147508
279.7000,0.710281,208.258,0.147897
279.6000,-0.686393,208.382,0.14968
279.5000,-0.539106,208.611,0.152953
279.4000,-1.0778,207.946,0.143435
279.3000,0.361314,208.516,0.151592
279.2000,0.882899,207.299,0.134153
279.1000,1.811,208.382,0.14968
279.0000,1.78536,208.384,0.149696
278.9000,2.70574,208.435,0.150426
278.8000,0.599007,208.24,0.147638
278.7000,0.246356,208.375,0.149567
278.6000,0.132413,209.062,0.159392
278.5000,1.26846,208.853,0.1564
278.4000,1.08322,208.429,0.150345
278.3000,-1.74611,208.884,0.156853
278.2000,-0.2629,208.388,0.149761
278.1000,0.731458,208.262,0.147962
278.0000,2.15981,208.742,0.154814
277.9000,0.643059,208.471,0.150944
277.8000,0.874402,208.139,0.146194
277.7000,0.0817255,209.097,0.159893
277.6000,-0.47675,208.735,0.154717
277.5000,-0.470465,207.899,0.142753
277.4000,0.892877,207.979,0.143906
277.3000,-0.64583,208.404,0.149988
277.2000,0.667146,208.514,0.15156
277.1000,-0.314885,208.518,0.151625
277.0000,-0.204855,208.752,0.15496
276.9000,-0.161402,208.692,0.154102
276.8000,-0.0638595,208.56,0.152224
276.7000,-1.08519,208.771,0.155235
276.6000,1.42812,208.876,0.15674
276.5000,0.0835343,208.401,0.14994
276.4000,1.00588,208.805,0.155721
276.3000,0.926371,208.861,0.156513
276.2000,0.761724,208.61,0.152936
276.1000,-0.034918,209.034,0.158987
276.0000,0.444567,208.632,0.153244
275.9000,0.965991,208.267,0.148027
275.8000,2.11518,209.297,0.162736
275.7000,0.0982956,208.165,0.146567
275.6000,0.160849,209.639,0.16761
275.5000,1.41186,208.823,0.155979
275.4000,-3.26045,208.601,0.152807
275.3000,1.25448,208.748,0.154912
275.2000,-1.15196,208.75,0.154928
275.1000,-0.424608,208.825,0.156012
275.0000,0.00202844,208.376,0.149583
274.9000,0.558901,208.768,0.155187
274.8000,1.42712,208.656,0.153584
274.7000,1.62605,208.283,0.148254
274.6000,0.40065,208.496,0.151301
274.5000,0.201361,208.479,0.151058
274.4000,1.0021,209.146,0.160588
274.3000,1.55138,208.504,0.151414
274.2000,1.01526,207.947,0.143451
274.1000,-1.11352,208.389,0.149778
274.0000,0.0503946,208.662,0.153681
273.9000,1.29121,209.167,0.160878
273.8000,1.57153,208.747,0.154895
273.7000,0.481143,208.765,0.155154
273.6000,0.0741389,208.292,0.148384
273.5000,2.98367,208.624,0.153131
273.4000,0.801163,207.963,0.143679
273.3000,0.584134,208.679,0.153924
273.2000,0.687533,208.857,0.156465
273.1000,0.654748,208.578,0.152483
273.0000,0.392448,209.057,0.159311
272.9000,-0.71381,209.109,0.160054
272.8000,-1.86923,209.017,0.158745
272.7000,-0.175009,208.5,0.151366
272.6000,-0.0948696,208.397,0.149891
272.5000,1.08678,208.092,0.145529
272.4000,1.01991,208.81,0.155785
272.3000,0.757585,208.666,0.15373
272.2000,0.31485,208.64,0.153357
272.1000,0.702111,207.623,0.138805
272.0000,0.920427,208.736,0.154733
271.9000,0.292317,208.484,0.151139
271.8000,0.332874,208.158,0.14647
271.7000,0.842325,208.25,0.147784
271.6000,0.0657461,208.446,0.150588
271.5000,0.845651,208.211,0.147232
271.4000,1.0586,208.397,0.149891
271.3000,-0.30243,208.559,0.152208
271.2000,1.32039,207.941,0.143354
271.1000,-1.04873,209.094,0.159844
271.0000,0.538253,208.476,0.151025
270.9000,0.0706145,208.861,0.156513
270.8000,-0.517807,208.755,0.155009
270.7000,0.842614,208.583,0.152548
270.6000,1.57697,209.053,0.159262
270.5000,1.1187,208.823,0.155979
270.4000,1.26042,209.504,0.16569
270.3000,0.761058,209.027,0.158891
270.2000,-0.122294,208.805,0.155721
270.1000,-0.657036,209.338,0.163317
270.0000,1.74535,208.482,0.151106
269.9000,2.17745,209.746,0.169125
269.8000,-1.3121,209.116,0.160151
269.7000,1.33853,208.788,0.155478
269.6000,0.500814,209.497,0.165593
269.5000,0.236485,208.659,0.153633
269.4000,-1.0943,208.67,0.153795
269.3000,0.857082,208.974,0.15813
269.2000,-0.315817,209.257,0.162171
269.1000,-0.970176,209.131,0.160377
269.0000,0.774075,208.643,0.153406
268.9000,0.771175,209.112,0.160103
268.8000,1.72852,209.297,0.162736
268.7000,-1.16977,209.092,0.159812
268.6000,1.27599,209.443,0.164819
268.5000,1.08046,209.718,0.168738
268.4000,-0.191985,209.008,0.158616
268.3000,0.262502,208.456,0.150734
268.2000,-0.449546,209.472,0.165238
268.1000,1.59605,209.148,0.16062
268.0000,-2.02369,209.02,0.158794
267.9000,-0.27271,209.725,0.168835
267.8000,1.18537,209.163,0.16083
267.7000,1.43017,210.251,0.176308
267.6000,1.21779,209.106,0.160022
267.5000,-0.115912,209.043,0.159117
267.4000,-0.180786,209.17,0.160927
267.3000,-0.257826,209.563,0.166529
267.2000,-1.0709,208.976,0.158163
267.1000,0.47391,209.79,0.169754
267.0000,-0.0927579,209.589,0.1669
266.9000,0.257183,209.007,0.158599
266.8000,1.45474,209.333,0.163253
266.7000,0.719814,209.227,0.161735
266.6000,-0.437735,209.203,0.161395
266.5000,-0.787879,209.623,0.167384
266.4000,-0.586892,209.288,0.162607
266.3000,-0.808115,209.266,0.1623
266.2000,0.00876039,208.6,0.152791
266.1000,0.874917,209.579,0.166755
266.0000,-0.498847,209.559,0.166465
265.9000,-0.260596,210.581,0.180987
265.8000,-0.204367,210.138,0.174699
265.7000,2.21838,209.834,0.170382
265.6000,-0.641707,209.369,0.163769
265.5000,-0.415084,209.748,0.169158
265.4000,1.87583,209.628,0.167448
265.3000,0.960725,209.639,0.16761
265.2000,0.422232,209.744,0.169109
265.1000,0.380771,209.482,0.165367
265.0000,1.31476,210.236,0.176099
264.9000,1.01323,209.912,0.171494
264.8000,0.825669,210.157,0.174972
264.7000,-0.245578,210.494,0.179765
264.6000,-0.297326,209.921,0.171623
264.5000,-0.752683,209.655,0.167836
264.4000,0.613003,209.795,0.169834
264.3000,1.0674,209.861,0.170769
264.2000,-0.601183,209.372,0.163802
264.1000,-0.329183,209.615,0.167271
264.0000,0.0132007,210.911,0.185675
263.9000,-0.00882753,210.301,0.177016
263.8000,-2.13787,209.911,0.171478
263.7000,-0.639817,210.396,0.178367
263.6000,-0.231089,210.668,0.182224
263.5000,0.702001,210.109,0.174296
263.4000,-0.372227,210.515,0.180054
263.3000,-1.65983,210.272,0.176614
263.2000,0.451302,210.749,0.18338
263.1000,1.27548,209.685,0.168271
263.0000,0.328654,210.764,0.183589
262.9000,0.145068,210.074,0.173797
262.8000,-1.4308,210.518,0.180103
262.7000,0.682567,210.675,0.18232
262.6000,-0.191182,209.404,0.16427
262.5000,0.274643,209.781,0.169625
262.4000,-0.502284,210.681,0.182416
262.3000,0.677513,210.21,0.175729
262.2000,-1.39609,209.972,0.172348
262.1000,-0.587168,210.55,0.180553
262.0000,-0.0631746,210.687,0.182497
261.9000,-1.05086,211.299,0.191159
261.8000,-0.521553,210.579,0.180971
261.7000,0.636642,211.084,0.188114
261.6000,0.682301,210.617,0.181501
261.5000,-1.44561,210.259,0.17642
261.4000,-0.0131917,210.712,0.18285
261.3000,0.774283,210.55,0.180553
261.2000,0.62194,210.431,0.178865
261.1000,0.19543,210.626,0.181629
261.0000,-1.60937,210.508,0.179958
260.9000,-1.082,210.741,0.183267
260.8000,1.57506,210.616,0.181485
260.7000,0.304648,211.135,0.188835
260.6000,-1.8915,210.931,0.185948
260.5000,-0.509076,210.868,0.185066
260.4000,-0.854306,210.995,0.186863
260.3000,0.258126,211.072,0.187953
260.2000,-1.22423,211.314,0.191368
260.1000,1.67156,211.112,0.188515
260.0000,-0.687547,211.17,0.189332
259.9000,-0.177674,210.737,0.183203
259.8000,0.35352,211.136,0.188851
259.7000,-0.0980254,211.084,0.188114
259.6000,-0.0777749,210.984,0.186702
259.5000,-1.04201,211.795,0.198171
259.4000,0.811933,211.294,0.191095
259.3000,0.1872,211.146,0.188996
259.2000,-1.4246,210.883,0.185274
259.1000,0.408397,211.622,0.195723
259.0000,0.466854,210.837,0.184616
258.9000,-1.6875,211.17,0.189332
258.8000,0.545033,210.95,0.186221
258.7000,0.752293,211.356,0.191961
258.6000,-0.789771,211.28,0.190887
258.5000,0.56436,212.434,0.207179
258.4000,2.62869,211.846,0.19889
258.3000,1.28585,211.893,0.199546
258.2000,0.218675,212.16,0.203316
258.1000,0.247606,211.579,0.195115
258.0000,-0.592772,211.419,0.192857
257.9000,-0.544814,211.452,0.193322
257.8000,-0.0312914,212.522,0.208407
257.7000,0.893467,211.132,0.188803
257.6000,-0.342526,212.388,0.206525
257.5000,0.533937,211.716,0.197051
257.4000,1.19158,211.833,0.198698
257.3000,-0.722288,212.142,0.203061
257.2000,-0.693423,212.503,0.208152
257.1000,0.864019,211.931,0.200089
257.0000,-0.75327,211.589,0.195259
256.9000,1.34575,211.393,0.192489
256.8000,1.94283,212.296,0.205232
256.7000,-0.114021,211.753,0.197579
256.6000,0.349335,211.716,0.197051
256.5000,0.887617,212.208,0.203987
256.4000,0.572599,212.091,0.202342
256.3000,0.109247,212.62,0.209794
256.2000,-0.0267093,211.548,0.194683
256.1000,-1.42602,212.714,0.211117
256.0000,-0.712314,211.852,0.19897
255.9000,0.276534,212.281,0.205025
255.8000,-0.803521,211.68,0.196539
255.7000,-0.511445,212.55,0.208806
255.6000,3.30686,211.858,0.19905
255.5000,0.0607488,212.016,0.201288
255.4000,-0.417387,212.507,0.2082
255.3000,0.0768289,211.935,0.200137
255.2000,-0.936621,212.744,0.211531
255.1000,1.60138,212.863,0.213204
255.0000,0.946321,213.519,0.222413
254.9000,-1.62068,212.414,0.206892
254.8000,-1.3161,212.579,0.20922
254.7000,1.28051,211.507,0.194107
254.6000,0.49713,213.093,0.216435
254.5000,0.0652887,212.938,0.214271
254.4000,-0.172574,212.255,0.204658
254.3000,1.25723,211.872,0.199258
254.2000,-1.7731,212.669,0.21048
254.1000,-0.937299,212.843,0.212933
254.0000,0.725575,212.397,0.206653
253.9000,0.380182,212.461,0.207562
253.8000,1.36135,212.409,0.206828
253.7000,-0.629302,212.6,0.209507
253.6000,-0.832511,212.659,0.210336
253.5000,0.585592,213.321,0.219648
253.4000,-0.102814,212.051,0.201783
253.3000,2.53395,213.737,0.225478
253.2000,0.867803,213.66,0.224399
253.1000,-0.387992,212.695,0.210846
253.0000,-0.92315,213.019,0.215401
252.9000,0.375922,212.959,0.214557
252.8000,0.321067,212.917,0.213968
252.7000,0.570426,213.767,0.225891
252.6000,0.327715,213.138,0.217072
252.5000,1.95259,212.945,0.214366
252.4000,0.447699,213.135,0.217024
252.3000,-0.686638,213.145,0.217167
252.2000,0.0459519,213.889,0.227604
252.1000,3.53235,213.691,0.224827
252.0000,-0.149863,213.538,0.222683
251.9000,2.45208,213.636,0.224065
251.8000,-0.441084,214.135,0.231045
251.7000,1.16096,213.391,0.220618
251.6000,-0.306078,213.346,0.219998
251.5000,0.738607,213.786,0.226161
251.4000,3.55942,213.774,0.225986
251.3000,-1.19678,214.116,0.230775
251.2000,0.86383,213.829,0.226763
251.1000,1.15414,213.384,0.220523
251.0000,-0.817504,213.319,0.219616
250.9000,-0.0251189,214.134,0.231029
250.8000,0.0986303,213.615,0.223764
250.7000,0.132967,214.563,0.237031
250.6000,-2.02768,213.748,0.225621
250.5000,0.0762338,214.886,0.241537
250.4000,-1.02702,215.241,0.24648
250.3000,-0.774845,214.487,0.23597
250.2000,-1.31273,214.672,0.238549
250.1000,-1.83935,214.36,0.234197
250.0000,0.965039,213.931,0.228191
249.9000,-0.296102,214.554,0.236904
249.8000,-0.927696,214.747,0.239593
249.7000,-0.981182,214.249,0.232645
249.6000,-0.243169,214.063,0.230031
249.5000,-0.974852,214.247,0.232613
249.4000,-0.403364,214.282,0.233104
249.3000,1.85933,214.266,0.232883
249.2000,-0.520966,214.336,0.233849
249.1000,0.030158,214.874,0.241363
249.0000,-0.452817,214.643,0.238138
248.9000,0.659215,214.853,0.241079
248.8000,-0.953658,214.877,0.24141
248.7000,-1.008,214.611,0.237695
248.6000,0.305361,214.868,0.241284
248.5000,-2.30077,214.74,0.239498
248.4000,1.27148,215.077,0.244191
248.3000,-1.33982,214.951,0.242437
248.2000,-2.34289,215.15,0.245217
248.1000,-1.70266,214.415,0.234957
248.0000,-1.47784,214.704,0.238992
247.9000,-0.589814,214.56,0.236983
247.8000,0.834776,215.114,0.244712
247.7000,-1.10736,215.387,0.248515
247.6000,-0.329477,215.366,0.248215
247.5000,-0.588861,215.214,0.246101
247.4000,1.19657,215.104,0.24457
247.3000,-0.338563,215.193,0.245817
247.2000,-0.268369,215.194,0.245833
247.1000,-1.70163,215.675,0.252519
247.0000,-1.87172,215.539,0.250628
246.9000,-1.80849,215.445,0.249319
246.8000,-0.0207154,215.316,0.247521
246.7000,-2.01115,215.472,0.249697
246.6000,-1.75114,215.473,0.249714
246.5000,-2.594,215.1,0.244522
246.4000,-1.91155,215.802,0.254283
246.3000,-0.681615,215.594,0.2514
246.2000,-1.22365,215.934,0.256125
246.1000,-1.76664,215.886,0.255448
246.0000,-1.54848,215.742,0.253448
245.9000,-0.724934,216.044,0.257651
245.8000,-1.2605,215.833,0.254724
245.7000,-3.09938,215.853,0.254992
245.6000,-2.04662,216.52,0.264253
245.5000,-2.74814,215.733,0.253322
245.4000,-2.83682,216.15,0.259114
245.3000,-1.63161,215.969,0.256613
245.2000,-1.29052,215.565,0.25099
245.1000,-2.47316,216.594,0.265273
245.0000,-1.93662,215.906,0.255731
244.9000,-0.905241,216.746,0.267377
244.8000,-1.22161,216.831,0.268553
244.7000,-3.41823,217.197,0.273616
244.6000,-1.81909,216.755,0.267502
244.5000,-3.64493,216.899,0.269494
244.4000,-3.99457,217.226,0.274023
244.3000,-1.24141,216.607,0.265462
244.2000,-4.26056,217.533,0.278265
244.1000,-3.46224,216.775,0.267784
244.0000,-3.4954,217.616,0.279407
243.9000,-3.21615,216.883,0.269275
243.8000,-4.73806,216.75,0.267439
243.7000,-2.59655,216.986,0.270702
243.6000,-2.66346,217.692,0.280455
243.5000,-3.67698,217.609,0.279313
243.4000,-3.45561,217.3,0.275041
243.3000,-4.26289,217.864,0.282831
243.2000,-3.00505,217.127,0.272661
243.1000,-3.68244,217.669,0.280142
243.0000,-4.63486,217.499,0.277796
242.9000,-2.0169,217.84,0.282502
242.8000,-2.67588,218.555,0.292349
242.7000,-3.15312,218.574,0.292614
242.6000,-3.89997,218.293,0.288747
242.5000,-6.16758,218.017,0.284939
242.4000,-5.72867,219.013,0.298639
242.3000,-4.86596,218.111,0.286235
242.2000,-4.57268,217.893,0.283237
242.1000,-5.45487,218.077,0.285767
242.0000,-6.44431,218.061,0.285548
241.9000,-7.59299,218.935,0.297566
241.8000,-4.19138,218.824,0.29604
241.7000,-6.3875,218.948,0.297752
241.6000,-6.24023,218.989,0.298312
241.5000,-6.28388,219.696,0.308008
241.4000,-7.17889,218.698,0.294312
241.3000,-7.03822,219.391,0.303831
241.2000,-7.02728,219.747,0.308706
241.1000,-6.71511,220.217,0.315138
241.0000,-8.92697,219.714,0.308256
240.9000,-7.69503,219.091,0.299712
240.8000,-7.29186,219.881,0.310536
240.7000,-5.15969,220.691,0.321606
240.6000,-10.2058,219.454,0.304686
240.5000,-8.60726,220.458,0.31842
240.4000,-8.83152,220.407,0.317724
240.3000,-9.03767,219.71,0.308194
240.2000,-8.60469,221.251,0.329235
240.1000,-9.05129,221.342,0.330484
240.0000,-9.48025,220.608,0.320477
239.9000,-9.07739,220.836,0.323584
239.8000,-10.4111,221.331,0.33033
239.7000,-10.6537,222.065,0.34031
239.6000,-12.8333,221.291,0.32979
239.5000,-9.68814,221.481,0.332365
239.4000,-11.0705,221.553,0.333352
239.3000,-9.60265,222.097,0.340741
239.2000,-12.3676,222.266,0.343031
239.1000,-11.5512,223.221,0.355964
239.0000,-13.995,222.299,0.343477
238.9000,-12.8245,223.36,0.357847
238.8000,-13.1729,223.047,0.353605
238.7000,-13.1233,223.546,0.360357
238.6000,-10.9933,223.52,0.360005
238.5000,-14.534,223.537,0.360234
238.4000,-13.8563,223.236,0.356163
238.3000,-14.039,224.419,0.372116
238.2000,-12.8527,224.268,0.370087
238.1000,-15.1317,223.34,0.357572
238.0000,-14.6005,224.557,0.373975
237.9000,-14.9405,224.193,0.36908
237.8000,-14.3827,225.069,0.380857
237.7000,-14.8489,225.365,0.384825
237.6000,-13.9147,224.977,0.379625
237.5000,-17.1687,224.897,0.378544
237.4000,-14.1617,225.266,0.383503
237.3000,-16.4074,224.949,0.379244
237.2000,-16.4875,225.776,0.390336
237.1000,-19.7581,225.606,0.38806
237.0000,-17.1673,225.865,0.39152
236.9000,-20.5144,226.695,0.40262
236.8000,-18.0541,227.429,0.412405
236.7000,-19.0718,226.795,0.40395
236.6000,-16.1666,227.511,0.41349
236.5000,-18.6293,228.096,0.421261
236.4000,-19.2456,227.121,0.408301
236.3000,-21.4379,227.321,0.410957
236.2000,-21.4425,227.919,0.418913
236.1000,-21.5788,227.838,0.417845
236.0000,-17.5787,227.43,0.41242
235.9000,-21.7535,228.26,0.423442
235.8000,-20.5446,228.948,0.432557
235.7000,-23.0326,229.086,0.434386
235.6000,-25.3168,229.508,0.439973
235.5000,-23.1709,229.094,0.434491
235.4000,-22.668,229.306,0.437293
235.3000,-25.6291,230.315,0.450614
235.2000,-24.4537,230.867,0.457875
235.1000,-24.7646,230.834,0.457443
235.0000,-23.4019,231.308,0.463665
234.9000,-25.6318,230.711,0.455819
234.8000,-27.3821,230.685,0.455477
234.7000,-26.0908,231.308,0.463665
234.6000,-28.5584,232.373,0.477617
234.5000,-27.1562,231.031,0.460035
234.4000,-27.9996,231.837,0.470603
234.3000,-26.724,232.428,0.478343
234.2000,-27.2104,232.832,0.483613
234.1000,-26.6101,233.51,0.492461
234.0000,-30.1758,232.622,0.480875
233.9000,-35.134,233.634,0.494069
233.8000,-31.0863,233.414,0.491207
233.7000,-31.3491,234.395,0.503968
233.6000,-30.7103,234.825,0.509538
233.5000,-29.2611,234.627,0.506967
233.4000,-34.4078,235.246,0.514998
233.3000,-34.9976,235.555,0.518984
233.2000,-34.0498,236.013,0.524912
233.1000,-33.7786,235.958,0.524196
233.0000,-31.4535,236.119,0.526273
232.9000,-35.3383,236.308,0.528713
232.8000,-35.4474,236.633,0.532904
232.7000,-33.3591,237.265,0.541039
232.6000,-34.7759,237.285,0.541286
232.5000,-34.9702,237.075,0.538592
232.4000,-35.7519,238.282,0.554078
232.3000,-38.0647,237.943,0.549737
232.2000,-38.9255,238.155,0.552452
232.1000,-39.8743,239.372,0.568011
232.0000,-38.4807,239.724,0.572504
231.9000,-39.0997,240.282,0.579601
231.8000,-41.1238,240.479,0.582107
231.7000,-40.201,240.38,0.580854
231.6000,-41.7434,240.823,0.586483
231.5000,-40.9604,241.569,0.595935
231.4000,-41.6549,241.236,0.591715
231.3000,-39.8996,241.333,0.59295
231.2000,-43.9587,242.493,0.607624
231.1000,-44.1268,242.885,0.612569
231.0000,-42.4872,242.682,0.609997
230.9000,-45.3448,242.634,0.609397
230.8000,-42.6463,243.206,0.616609
230.7000,-43.0984,243.694,0.622753
230.6000,-42.6241,243.479,0.620046
230.5000,-45.4405,244.185,0.628916
230.4000,-47.2471,243.401,0.619062
230.3000,-45.5974,244.123,0.628133
230.2000,-45.6932,244.253,0.629769
230.1000,-45.271,245.937,0.650835
230.0000,-48.1971,245.77,0.648756
229.9000,-48.0057,246.356,0.656061
229.8000,-49.1841,246.802,0.661619
229.7000,-49.1445,246.994,0.664
229.6000,-50.6954,247.483,0.67008
229.5000,-50.3811,247.985,0.676305
229.4000,-52.0442,248.212,0.679112
229.3000,-50.2211,248.553,0.683332
229.2000,-51.6718,248.935,0.688051
229.1000,-51.4827,249.984,0.700988
229.0000,-53.6973,249.276,0.692261
228.9000,-50.9279,250.801,0.71103
228.8000,-55.6848,250.633,0.708971
228.7000,-54.1382,251.695,0.721987
228.6000,-55.2175,251.642,0.721336
228.5000,-53.1916,252.462,0.731364
228.4000,-55.7423,253.179,0.74011
228.3000,-57.3946,252.705,0.734323
228.2000,-53.5621,254.081,0.751079
228.1000,-56.0089,254.8,0.759792
228.0000,-54.9232,255.016,0.762413
227.9000,-56.5321,255.606,0.769554
227.8000,-58.6401,256.269,0.777555
227.7000,-58.8114,257.954,0.797815
227.6000,-56.6035,257.87,0.79681
227.5000,-56.9813,258.857,0.80863
227.4000,-60.013,258.558,0.805051
227.3000,-60.2028,259.594,0.817426
227.2000,-62.5242,259.953,0.821709
227.1000,-61.8066,260.183,0.824448
227.0000,-61.5365,260.406,0.827105
226.9000,-61.7295,261.637,0.841718
226.8000,-61.8458,261.654,0.84192
226.7000,-60.1726,262.167,0.847998
226.6000,-61.4915,263.769,0.866908
226.5000,-64.1684,264.157,0.871467
226.4000,-60.6069,264.639,0.877138
226.3000,-64.4793,264.831,0.879386
226.2000,-63.1291,265.945,0.892432
226.1000,-66.8478,265.865,0.891504
226.0000,-64.8052,267.36,0.908943
225.9000,-64.1997,267.644,0.912253
225.8000,-61.4598,268.807,0.92575
225.7000,-62.2476,269.355,0.9321
225.6000,-66.4538,270.096,0.940664
225.5000,-64.2027,270.99,0.95097
225.4000,-62.4407,272.004,0.962626
225.3000,-67.2484,272.652,0.970056
225.2000,-64.8284,274.062,0.986166
225.1000,-66.6983,274.007,0.985546
225.0000,-64.1452,275.636,1.00407
224.9000,-65.9248,276.106,1.00941
224.8000,-67.0554,277.647,1.02683
224.7000,-65.8514,277.551,1.02574
224.6000,-67.2257,279.091,1.04309
224.5000,-65.6798,279.724,1.05019
224.4000,-68.1351,280.685,1.06095
224.3000,-66.5465,282.524,1.08145
224.2000,-65.9225,282.223,1.07811
224.1000,-64.2215,283.183,1.08878
224.0000,-69.2753,284.832,1.10703
223.9000,-69.7228,285.408,1.1134
223.8000,-71.804,286.728,1.12792
223.7000,-63.9821,287.783,1.13949
223.6000,-64.5014,288.668,1.14917
223.5000,-69.7483,289.967,1.16333
223.4000,-69.9502,291.964,1.185
223.3000,-69.6949,292.722,1.1932
223.2000,-67.3404,293.511,1.2017
223.1000,-70.0539,294.841,1.216
223.0000,-68.3352,295.712,1.22534
222.9000,-65.9961,297.599,1.24549
222.8000,-65.9542,299.014,1.26053
222.7000,-71.9256,300.523,1.2765
222.6000,-70.0461,301.566,1.2875
222.5000,-72.4909,302.982,1.30238
222.4000,-67.1127,305.058,1.3241
222.3000,-66.3478,306.234,1.33635
222.2000,-74.119,307.047,1.34479
222.1000,-70.4848,308.364,1.35843
222.0000,-66.5041,308.055,1.35523
221.9000,-71.838,311.537,1.39109
221.8000,-65.1352,312.85,1.40453
221.7000,-71.0178,314.336,1.41967
221.6000,-65.657,316.111,1.43769
221.5000,-66.6908,317.695,1.4537
221.4000,-61.3745,318.344,1.46024
221.3000,-61.3836,320.269,1.47957
221.2000,-73.6702,322.358,1.50043
221.1000,-71.5649,324.591,1.52262
221.0000,-59.6016,326.016,1.53671
220.9000,-62.9063,327.888,1.55514
220.8000,-70.8264,329.366,1.56962
220.7000,-66.118,331.34,1.58889
220.6000,-67.1318,333.635,1.61117
220.5000,-60.6307,335.796,1.63203
220.4000,-70.3007,338.374,1.65677
220.3000,-61.9092,339.656,1.66902
220.2000,-60.5223,341.255,1.68424
220.1000,-63.7064,343.188,1.70256
220.0000,-64.5959,345.223,1.72175
219.9000,-55.9326,347.153,1.73986
219.8000,-55.1103,350.06,1.76699
219.7000,-59.0114,352.403,1.78871
219.6000,-65.1725,354.35,1.80667
219.5000,-58.8237,356.349,1.82502
219.4000,-55.0452,359.159,1.85068
219.3000,-59.4349,359.881,1.85725
219.2000,-59.0943,362.602,1.88189
219.1000,-62.5304,364.529,1.89925
219.0000,-57.6428,367.293,1.92401
218.9000,-60.661,369.528,1.94393
218.8000,-60.4978,372.634,1.97143
218.7000,-58.1636,374.61,1.98883
218.6000,-47.3055,377.442,2.01362
218.5000,-50.9701,379.936,2.03533
218.4000,-53.9805,383.037,2.06216
218.3000,-42.0792,385.783,2.08577
218.2000,-59.2388,387.728,2.1024
218.1000,-43.9855,391.708,2.13623
218.0000,-51.6486,393.57,2.15195
217.9000,-43.8049,396.886,2.1798
217.8000,-44.3052,399.198,2.1991
217.7000,-47.6813,402.08,2.22303
217.6000,-39.958,404.868,2.24604
217.5000,-43.4029,408.878,2.2789
217.4000,-46.1978,411.016,2.29631
217.3000,-30.8762,414.86,2.32743
217.2000,-43.3261,418.568,2.35721
217.1000,-30.9122,421.739,2.38251
217.0000,-37.0654,424.742,2.40631
216.9000,-41.6247,427.913,2.4313
216.8000,-32.9689,430.656,2.45279
216.7000,-39.7513,433.505,2.47498
216.6000,-31.113,435.977,2.49414
216.5000,-34.0714,438.616,2.5145
216.4000,-20.6813,441.147,2.53392
216.3000,-36.2756,443.231,2.54984
216.2000,-37.5372,446.186,2.57231
216.1000,-27.0699,450.037,2.60141
216.0000,-30.7243,451.385,2.61154
215.9000,-27.7642,454.053,2.63153
215.8000,-16.0771,457.197,2.65495
215.7000,-27.5749,458.629,2.66557
215.6000,-25.4314,461.572,2.68732
215.5000,-23.241,463.795,2.70366
215.4000,-26.1446,466,2.71981
215.3000,-18.5206,468.718,2.73963
215.2000,-15.8673,470.942,2.75578
215.1000,-32.5193,473.549,2.77462
215.0000,-13.4678,474.278,2.77988
214.9000,-27.4167,477.126,2.80033
214.8000,-15.7353,479.069,2.81423
214.7000,-17.0503,480.96,2.82771
214.6000,-27.4758,482.747,2.84041
214.5000,-1.96353,486.418,2.86637
214.4000,-9.78254,487.641,2.87498
214.3000,-10.9715,487.776,2.87594
214.2000,-12.7379,490.311,2.89372
214.1000,0.627794,491.115,2.89934
214.0000,-16.385,492.643,2.91002
213.9000,-1.90903,494.712,2.92442
213.8000,-11.5693,496.01,2.93343
213.7000,-2.5154,497.388,2.94298
213.6000,-9.77201,497.352,2.94273
213.5000,-25.4076,499.099,2.95479
213.4000,-13.7948,501.17,2.96906
213.3000,-1.61464,502.607,2.97892
213.2000,1.00044,503.273,2.98348
213.1000,-2.91512,504.203,2.98984
213.0000,6.20275,505.021,2.99543
212.9000,-15.0891,505.325,2.99751
212.8000,0.0517857,506.868,3.00803
212.7000,-9.05134,507.218,3.01041
212.6000,-12.8051,507.496,3.01231
212.5000,-10.1049,508.849,3.0215
212.4000,-7.23051,509.482,3.02578
212.3000,-24.0231,510.25,3.03099
212.2000,-2.96104,511.497,3.03942
212.1000,2.72476,511.711,3.04087
212.0000,-4.54507,511.394,3.03873
211.9000,-5.49451,513.267,3.05136
211.8000,9.17346,513.583,3.05349
211.7000,-0.324843,514.07,3.05677
211.6000,-2.6603,513.519,3.05306
211.5000,-7.27118,514.428,3.05918
211.4000,-5.69155,514.678,3.06085
211.3000,11.1541,514.798,3.06166
211.2000,0.559447,514.865,3.06211
211.1000,-7.65744,515.486,3.06628
211.0000,-8.81147,515.116,3.0638
210.9000,-9.46173,516.236,3.07131
210.8000,-0.985602,516.315,3.07184
210.7000,5.4977,516.877,3.07561
210.6000,-5.93289,516.273,3.07156
210.5000,-5.41322,516.355,3.07211
210.4000,4.30276,516.507,3.07313
210.3000,-1.21287,517.035,3.07666
210.2000,-10.6213,516.611,3.07382
210.1000,-12.5772,517.594,3.08041
210.0000,4.65483,517.45,3.07945
209.9000,9.82984,517.449,3.07944
209.8000,-12.806,517.428,3.07929
209.7000,-2.4842,517.064,3.07686
209.6000,-8.10812,517.37,3.07891
209.5000,3.68789,517.25,3.0781
209.4000,-1.72903,517.719,3.08124
209.3000,-9.338,518.248,3.08478
209.2000,-14.3579,517.574,3.08027
209.1000,6.16671,517.813,3.08187
209.0000,10.8004,518.247,3.08477
208.9000,6.0296,518.524,3.08662
208.8000,14.8778,517.718,3.08123
208.7000,1.28343,517.846,3.08209
208.6000,11.0275,518.323,3.08528
208.5000,-14.4722,517.404,3.07913
208.4000,-7.13445,517.255,3.07814
208.3000,-3.86494,517.813,3.08187
208.2000,6.01403,516.901,3.07577
208.1000,4.52801,517.24,3.07804
208.0000,3.75772,518.101,3.08379
207.9000,3.26664,517.504,3.0798
207.8000,2.21034,518.161,3.0842
207.7000,13.378,518.314,3.08522
207.6000,-0.423146,518.48,3.08633
207.5000,-5.59843,518.558,3.08685
207.4000,-0.419454,517.818,3.0819
207.3000,-9.38354,518.182,3.08434
207.2000,0.0173167,517.549,3.0801
207.1000,-1.15236,517.819,3.08191
207.0000,-4.64792,517.306,3.07848
206.9000,-8.97069,517.464,3.07954
206.8000,2.57125,517.303,3.07846
206.7000,-0.553359,515.86,3.06879
206.6000,2.64081,516.81,3.07516
206.5000,-0.155429,517.021,3.07657
206.4000,6.48785,517.68,3.08098
206.3000,-5.14937,517.497,3.07976
206.2000,-10.7949,518.494,3.08642
206.1000,1.91169,517.695,3.08108
206.0000,-8.58747,517.737,3.08136
205.9000,-10.1164,517.456,3.07948
205.8000,0.232674,516.544,3.07338
205.7000,4.46629,517.431,3.07932
205.6000,-6.85151,518.385,3.08569
205.5000,-4.85366,518.846,3.08877
205.4000,-0.594022,518.538,3.08672
205.3000,-11.606,518.787,3.08838
205.2000,-11.271,518.344,3.08542
205.1000,9.49239,518.968,3.08958
205.0000,13.7817,519.272,3.09162
204.9000,8.9796,519.556,3.0935
204.8000,-7.99196,518.948,3.08945
204.7000,-4.42802,519.23,3.09134
204.6000,-8.64685,519.471,3.09294
204.5000,1.79644,520.617,3.10058
204.4000,7.72819,520.873,3.10228
204.3000,-9.34985,520.982,3.103
204.2000,1.79077,521.51,3.10651
204.1000,-3.51617,522.185,3.111
204.0000,3.52751,522.403,3.11244
203.9000,-7.82154,522.745,3.11471
203.8000,-8.21302,523.438,3.1193
203.7000,-7.07311,524.409,3.12573
203.6000,4.00216,523.896,3.12234
203.5000,-3.36685,525.471,3.13276
203.4000,12.9192,525.312,3.1317
203.3000,8.81427,525.698,3.13425
203.2000,-1.57249,526.005,3.13628
203.1000,3.44985,526.445,3.13918
203.0000,-10.0797,527.125,3.14366
202.9000,-7.30895,527.813,3.14819
202.8000,-12.7692,528.602,3.15338
202.7000,-14.394,529.136,3.15688
202.6000,-9.9005,529.678,3.16044
202.5000,-1.3583,530.027,3.16273
202.4000,1.28438,529.993,3.16251
202.3000,-0.0254422,531.37,3.17152
202.2000,19.253,531.598,3.17301
202.1000,-8.85043,533.507,3.18548
202.0000,2.3096,532.822,3.181
201.9000,5.42958,533.001,3.18217
201.8000,11.1759,533.716,3.18683
201.7000,2.68581,534.386,3.1912
201.6000,-14.4044,535.825,3.20056
201.5000,6.9826,536.65,3.20591
201.4000,-2.20861,536.801,3.20689
201.3000,14.16,537.214,3.20957
201.2000,8.88631,537.954,3.21436
201.1000,-3.78954,538.434,3.21747
201.0000,-2.51003,539.431,3.22391
200.9000,2.85213,539.678,3.22551
200.8000,-5.47018,539.279,3.22293
200.7000,10.0235,539.888,3.22687
200.6000,1.37921,540.965,3.23381
200.5000,0.505448,540.737,3.23234
200.4000,-10.0154,543.025,3.24706
200.3000,-5.39942,542.232,3.24196
200.2000,-16.7171,543.585,3.25065
200.1000,5.24186,543.942,3.25294
200.0000,-11.2007,544.758,3.25817
199.9000,-4.19052,544.383,3.25577
199.8000,13.7998,545.663,3.26396
199.7000,12.7241,546.79,3.27116
199.6000,1.29847,546.661,3.27034
199.5000,2.55485,547.315,3.27451
199.4000,-5.15172,547.677,3.27682
199.3000,2.96684,547.93,3.27843
199.2000,1.96362,548.542,3.28233
199.1000,5.3461,548.601,3.28271
199.0000,-7.96107,548.895,3.28458
198.9000,-5.74225,549.714,3.28979
198.8000,-2.31419,549.709,3.28976
198.7000,4.60575,551.068,3.29839
198.6000,1.62676,551.21,3.29929
198.5000,-2.94737,551.141,3.29885
198.4000,11.5204,552.65,3.30841
198.3000,1.00133,552.242,3.30583
198.2000,-12.6206,552.957,3.31035
198.1000,1.76879,553.428,3.31332
198.0000,-5.50143,553.561,3.31417
197.9000,3.52181,554.118,3.31768
197.8000,2.28533,554.864,3.32239
197.7000,-6.34036,555.365,3.32555
197.6000,5.90931,555.143,3.32415
197.5000,-8.83901,555.555,3.32675
197.4000,6.37459,556.548,3.33299
197.3000,4.87989,556.394,3.33203
197.2000,-5.85649,557.231,3.33729
197.1000,14.8705,557.827,3.34103
197.0000,-5.35468,558.266,3.34378
196.9000,-1.85435,557.515,3.33907
196.8000,14.6262,559.397,3.35087
196.7000,1.91337,559.367,3.35069
196.6000,1.5435,560.287,3.35644
196.5000,10.3008,560.49,3.35771
196.4000,5.29944,561.522,3.36416
196.3000,2.20112,560.892,3.36023
196.2000,9.8817,561.234,3.36236
196.1000,17.6351,562.175,3.36823
196.0000,-5.40736,562.553,3.37059
195.9000,-1.07474,563.01,3.37343
195.8000,1.44387,562.772,3.37195
195.7000,12.3184,563.32,3.37537
195.6000,8.63318,563.753,3.37806
195.5000,12.2901,563.694,3.37769
195.4000,5.85159,564.5,3.3827
195.3000,-4.71335,565.066,3.38622
195.2000,-4.32279,564.976,3.38566
195.1000,8.43812,565.225,3.38721
195.0000,-7.66758,565.38,3.38817
194.9000,4.33563,565.641,3.38979
194.8000,-7.56056,565.683,3.39005
194.7000,-6.52027,565.956,3.39174
194.6000,15.0004,566.023,3.39216
194.5000,0.615972,566.357,3.39423
194.4000,0.760083,566.921,3.39772
194.3000,3.05535,567.699,3.40253
194.2000,4.23699,567.379,3.40056
194.1000,8.0941,567.495,3.40127
194.0000,10.4693,568.359,3.40661
193.9000,6.27717,568.225,3.40579
193.8000,8.35132,569.096,3.41116
193.7000,-1.63435,569.918,3.41624
193.6000,-0.34002,569.712,3.41496
193.5000,-11.8299,570.614,3.42052
193.4000,4.31401,569.601,3.41428
193.3000,1.03311,570.937,3.42251
193.2000,-17.3336,570.272,3.41841
193.1000,-1.7429,570.822,3.4218
193.0000,1.32671,571.559,3.42634
192.9000,20.4365,571.787,3.42774
192.8000,-6.36545,572.133,3.42987
192.7000,6.06688,571.87,3.42825
192.6000,4.77759,572.357,3.43124
192.5000,-6.63714,572.412,3.43158
192.4000,-8.85229,573.026,3.43535
192.3000,4.34647,572.189,3.43021
192.2000,12.2913,572.794,3.43392
192.1000,-1.89484,573.414,3.43772
192.0000,1.37776,572.24,3.43052
191.9000,13.6625,574.167,3.44234
191.8000,1.9582,574.091,3.44188
191.7000,0.153455,573.813,3.44017
191.6000,-3.46007,575.199,3.44866
191.5000,14.2645,574.753,3.44593
191.4000,-14.4437,575.727,3.45189
191.3000,-9.83757,575.195,3.44863
191.2000,6.32118,576.152,3.45448
191.1000,3.91043,575.785,3.45224
191.0000,12.9549,576.018,3.45366
190.9000,4.15441,576.696,3.4578
190.8000,6.32272,577.112,3.46034
190.7000,3.40788,577.162,3.46064
190.6000,14.0978,577.275,3.46133
190.5000,-6.54823,577.204,3.4609
190.4000,5.91744,577.342,3.46174
190.3000,-4.09397,578.379,3.46806
190.2000,11.6467,578.253,3.46729
190.1000,-16.7702,577.74,3.46417
190.0000,13.8019,578.263,3.46735

##### Extended Information
[Comments]
Sample name,SHND.928.ADDITIVE+PROTEIN
Comment,ADDITIVE (DMSO) + PROTEIN 
User,SADIYYAH HOLSEY
Division
Company,Saint Mary's College

[Detailed Information]
Creation date,9/28/2022 2:48 PM

Data array type,Linear data array * 3
Horizontal axis,Wavelength [nm]
Vertical axis(1),CD [mdeg]
Vertical axis(2),HT [V]
Vertical axis(3),Abs
Start,320 nm
End,190 nm
Data interval,0.1 nm
Data points,1301    

[Measurement Information]
Instrument name,J-1500
Model name,J-1500
Serial No.,B051061638

Detector,PM-539
Detector S/N,B051061638
  Lock-in amp.,X mode
  HT volt,Auto

Accessory,PTC-517
Accessory S/N,B026561646
  Temperature,27.44 C
  Control sensor,Holder
  Monitor sensor,Holder

Measurement date,9/28/2022 2:48 PM

CD Overload detect,918
Photometric mode,CD, HT, Abs
Measure range,320 - 190 nm
Data pitch,0.1 nm
CD scale,20 mdeg/0.05 dOD
FL scale,20 mdeg/0.05 dOD
D.I.T.,8 msec
Bandwidth,2.00 nm
Start mode,Immediately
Scanning mode,Continuous
Scanning speed,200 nm/min
Baseline correction,None
Shutter control,Auto
No. of cycle,1/1
N2 Flowmeter,Manual

Solvent,NaPO4 buffer

