TITLE,SHND.928.ADDITIVE+PROTEIN
DATA TYPE,
ORIGIN,JASCO
OWNER,
DATE,22/09/28
TIME,15:49:31
SPECTROMETER/DATA SYSTEM,
LOCALE,1033
RESOLUTION,
DELTAX,-0.1
XUNITS,NANOMETERS
YUNITS,CD [mdeg]
Y2UNITS,HT [V]
Y3UNITS,ABSORBANCE
FIRSTX,  320.0000
LASTX,  190.0000
NPOINTS,    1301
FIRSTY,     0.85264
MAXY,    21.44936
MINY,   -75.46927
XYDATA
320.0000,0.852644,208.969,0.158066
319.9000,-0.0983053,208.251,0.1478
319.8000,0.393084,208.368,0.149469
319.7000,1.88977,209.051,0.15923
319.6000,0.38102,208.977,0.158179
319.5000,2.25691,208.806,0.155737
319.4000,1.7356,208.757,0.155041
319.3000,0.403396,208.628,0.153195
319.2000,1.65438,208.191,0.14694
319.1000,1.14115,209.236,0.161864
319.0000,0.657325,208.652,0.153536
318.9000,0.264661,208.22,0.147362
318.8000,1.38556,209.008,0.158616
318.7000,1.62473,208.302,0.148529
318.6000,1.37511,209.089,0.15978
318.5000,0.984403,208.998,0.15847
318.4000,2.15759,207.61,0.13861
318.3000,1.09405,208.85,0.156368
318.2000,1.2554,208.005,0.144279
318.1000,3.4693,208.382,0.14968
318.0000,1.3547,209.291,0.162655
317.9000,3.79194,209.023,0.158826
317.8000,1.32212,208.875,0.156724
317.7000,1.5456,208.14,0.14621
317.6000,1.41307,208.398,0.149907
317.5000,2.49623,208.302,0.148529
317.4000,1.89209,209.116,0.160151
317.3000,0.777102,208.678,0.153908
317.2000,2.47771,208.224,0.147411
317.1000,2.11765,208.677,0.153892
317.0000,1.36246,209.114,0.160135
316.9000,2.46441,208.112,0.145805
316.8000,3.04556,209.24,0.161928
316.7000,0.1284,208.405,0.150004
316.6000,3.17896,209.449,0.164899
316.5000,0.626045,207.953,0.143533
316.4000,1.78433,208.396,0.149875
316.3000,2.51911,208.402,0.149956
316.2000,2.02001,209.594,0.166965
316.1000,0.160903,208.687,0.154037
316.0000,2.31177,208.658,0.153617
315.9000,1.08891,208.199,0.147054
315.8000,0.440325,208.497,0.151317
315.7000,1.58622,208.148,0.146324
315.6000,1.74015,208.317,0.14874
315.5000,3.4512,208.007,0.144312
315.4000,-0.140173,207.875,0.142412
315.3000,0.218393,208.716,0.154442
315.2000,2.15667,207.527,0.137423
315.1000,1.91596,208.728,0.15462
315.0000,0.265483,209.31,0.16293
314.9000,1.95181,208.547,0.15203
314.8000,0.985328,208.164,0.146551
314.7000,1.03108,208.454,0.150701
314.6000,2.65647,207.526,0.137407
314.5000,1.47991,208.575,0.152434
314.4000,2.88315,208.676,0.153876
314.3000,1.50777,208.472,0.150961
314.2000,1.65306,209.229,0.161767
314.1000,0.416565,208.573,0.152402
314.0000,1.10969,208.48,0.151074
313.9000,1.80574,207.998,0.144182
313.8000,1.17154,208.167,0.1466
313.7000,0.216634,208.208,0.147183
313.6000,1.39127,208.277,0.148173
313.5000,1.18809,208.382,0.14968
313.4000,0.4839,208.533,0.151835
313.3000,1.63395,207.954,0.143549
313.2000,0.983192,207.796,0.141275
313.1000,1.4733,207.785,0.141129
313.0000,0.992138,207.839,0.141893
312.9000,0.562882,208.461,0.150798
312.8000,0.698473,208.378,0.149615
312.7000,1.99188,208.48,0.151074
312.6000,2.53139,208.081,0.145367
312.5000,2.16469,207.094,0.131206
312.4000,0.420503,207.939,0.143338
312.3000,1.20616,207.878,0.142461
312.2000,0.933489,207.971,0.143792
312.1000,0.964133,208.495,0.151285
312.0000,1.44049,207.206,0.132818
311.9000,2.73316,208.144,0.146275
311.8000,0.0714473,208.437,0.150458
311.7000,0.63893,208.073,0.145253
311.6000,1.20656,208.806,0.155737
311.5000,0.387827,206.984,0.129625
311.4000,2.88823,208.404,0.149988
311.3000,3.02949,208.578,0.152483
311.2000,0.554674,208.095,0.145561
311.1000,2.11921,208.04,0.144783
311.0000,0.898501,208.283,0.148254
310.9000,2.47579,208.234,0.147557
310.8000,1.24038,207.522,0.137358
310.7000,0.87367,208.215,0.147281
310.6000,1.57121,208.439,0.150491
310.5000,1.15892,208.299,0.148481
310.4000,-0.0439271,208.706,0.154313
310.3000,2.14771,207.469,0.136594
310.2000,2.1028,208.671,0.153811
310.1000,2.04198,208.079,0.145334
310.0000,2.4235,208.268,0.148043
309.9000,2.03758,208.143,0.146259
309.8000,-0.685932,208.122,0.145951
309.7000,1.04357,208.086,0.145432
309.6000,0.781098,208.401,0.14994
309.5000,1.39983,208.278,0.148189
309.4000,-0.560495,208.147,0.146308
309.3000,2.07334,208.181,0.146794
309.2000,1.49247,208.029,0.14462
309.1000,2.71158,209.398,0.164173
309.0000,0.80282,207.912,0.142948
308.9000,1.28485,208.629,0.153212
308.8000,0.548254,208.428,0.150329
308.7000,1.01966,208.246,0.147735
308.6000,0.267809,207.944,0.143403
308.5000,2.64207,208.062,0.145091
308.4000,-0.276953,208.75,0.154928
308.3000,0.36174,208.027,0.144588
308.2000,0.352871,208.623,0.153114
308.1000,1.91631,208.717,0.154458
308.0000,0.170863,207.437,0.136138
307.9000,0.33174,208.231,0.147508
307.8000,1.60282,208.316,0.148724
307.7000,0.762128,207.995,0.144133
307.6000,0.935683,207.917,0.143013
307.5000,1.4332,207.799,0.141324
307.4000,0.745733,208.478,0.151042
307.3000,0.993026,208.242,0.14767
307.2000,0.134503,208.047,0.14488
307.1000,0.909642,208.007,0.144312
307.0000,1.70141,208.258,0.147897
306.9000,1.19905,207.457,0.136415
306.8000,0.951526,207.709,0.14004
306.7000,1.17327,207.633,0.138952
306.6000,0.192111,208.174,0.146697
306.5000,4.06806,208.314,0.148708
306.4000,2.21807,208.358,0.149324
306.3000,1.36992,208.258,0.147897
306.2000,1.19259,208.218,0.14733
306.1000,1.82322,207.474,0.136659
306.0000,1.38195,207.878,0.142461
305.9000,0.889935,207.622,0.138789
305.8000,1.48838,208.762,0.155106
305.7000,1.67157,207.388,0.135422
305.6000,-0.0202652,207.432,0.136057
305.5000,2.66307,208.206,0.147151
305.4000,2.02004,207.643,0.139081
305.3000,1.60658,207.224,0.133079
305.2000,1.31082,208.259,0.147913
305.1000,-0.476037,207.993,0.144101
305.0000,3.0879,208.064,0.145123
304.9000,1.71586,207.852,0.142087
304.8000,-0.0581118,207.99,0.144068
304.7000,1.63538,207.868,0.142315
304.6000,2.44849,207.44,0.136171
304.5000,1.30247,208.869,0.156627
304.4000,1.94454,207.413,0.13578
304.3000,2.33775,208.358,0.149324
304.2000,1.86409,208.01,0.144344
304.1000,2.03473,207.783,0.141097
304.0000,1.17987,207.939,0.143338
303.9000,1.31731,208.072,0.145237
303.8000,0.0912062,208.276,0.148156
303.7000,1.75833,207.517,0.137277
303.6000,-0.0947005,208.061,0.145075
303.5000,0.789364,207.501,0.137049
303.4000,1.30616,206.977,0.129527
303.3000,1.24677,208.325,0.148854
303.2000,0.688969,207.593,0.138366
303.1000,1.63442,207.257,0.133551
303.0000,0.363683,208.223,0.147394
302.9000,1.40774,208.228,0.147476
302.8000,-0.763991,208.252,0.147816
302.7000,2.74946,207.859,0.142185
302.6000,0.161141,207.587,0.138285
302.5000,0.624515,207.876,0.142429
302.4000,1.81336,207.772,0.140934
302.3000,1.61655,207.767,0.140869
302.2000,0.133634,207.633,0.138952
302.1000,-0.994545,207.558,0.137862
302.0000,0.295045,207.313,0.134348
301.9000,3.46147,208.246,0.147735
301.8000,2.5053,207.534,0.137521
301.7000,0.380581,207.605,0.138545
301.6000,2.33861,207.851,0.142071
301.5000,-0.197746,207.739,0.140463
301.4000,2.12533,207.46,0.136464
301.3000,1.4148,208.033,0.144685
301.2000,1.8621,207.153,0.132053
301.1000,-0.31228,207.294,0.134072
301.0000,1.77463,207.578,0.138155
300.9000,1.57,207.127,0.131678
300.8000,1.81897,207.427,0.135992
300.7000,1.33877,207.511,0.137195
300.6000,1.20883,207.807,0.141438
300.5000,0.738678,208.16,0.146502
300.4000,1.26107,207.477,0.136708
300.3000,-0.576961,208.014,0.144409
300.2000,1.15594,207.316,0.134397
300.1000,0.846817,207.823,0.141665
300.0000,1.72342,207.884,0.142542
299.9000,0.564722,207.616,0.138708
299.8000,1.56985,207.682,0.13965
299.7000,1.17341,207.705,0.139975
299.6000,0.325215,207.99,0.144068
299.5000,-0.494753,207.845,0.14199
299.4000,2.05316,207.652,0.139212
299.3000,1.76317,207.971,0.143792
299.2000,1.88609,207.229,0.133144
299.1000,1.42288,208.019,0.144474
299.0000,0.484538,208.149,0.14634
298.9000,1.25545,207.939,0.143338
298.8000,0.591907,208.072,0.145237
298.7000,1.77377,208.173,0.146681
298.6000,-0.520822,207.877,0.142445
298.5000,2.14572,207.358,0.134999
298.4000,0.162611,207.316,0.134397
298.3000,1.77,207.299,0.134153
298.2000,0.956557,207.432,0.136057
298.1000,1.91454,207.97,0.143776
298.0000,0.486221,207.183,0.132476
297.9000,0.696563,207.636,0.138984
297.8000,0.940419,207.362,0.135048
297.7000,1.43131,207.321,0.134462
297.6000,1.12903,206.911,0.128566
297.5000,1.50764,207.223,0.133062
297.4000,2.33314,207.654,0.139244
297.3000,1.50215,207.237,0.133258
297.2000,0.740765,207.879,0.142477
297.1000,1.28621,207.394,0.13552
297.0000,1.95733,207.96,0.14363
296.9000,0.257839,207.666,0.139423
296.8000,1.5077,208.009,0.144328
296.7000,0.413302,207.538,0.137586
296.6000,1.36375,207.542,0.137635
296.5000,0.830169,207.953,0.143533
296.4000,0.827974,207.664,0.13939
296.3000,2.29723,207.305,0.134234
296.2000,1.4674,207.24,0.133306
296.1000,-0.29781,207.159,0.132134
296.0000,0.546525,207.577,0.138139
295.9000,-0.89947,207.673,0.13952
295.8000,1.34548,207.084,0.131059
295.7000,0.170241,207.816,0.141568
295.6000,1.96711,208.004,0.144263
295.5000,1.94555,207.589,0.138318
295.4000,-0.199168,207.677,0.139569
295.3000,0.0112694,207.234,0.133209
295.2000,1.19294,207.593,0.138366
295.1000,0.632897,207.368,0.135146
295.0000,1.7581,207.611,0.138626
294.9000,3.22532,207.483,0.136789
294.8000,1.18807,207.023,0.130179
294.7000,0.631812,207.014,0.130049
294.6000,2.19687,207.916,0.142997
294.5000,1.60811,207.424,0.135943
294.4000,1.4043,207.769,0.140902
294.3000,0.266564,207.246,0.133388
294.2000,-0.681831,207.526,0.137407
294.1000,-0.374954,207.488,0.13687
294.0000,0.670825,207.256,0.133534
293.9000,1.81088,207.687,0.139715
293.8000,3.1989,207.635,0.138968
293.7000,-0.521124,207.884,0.142542
293.6000,0.434643,207.547,0.137716
293.5000,1.62691,207.257,0.133551
293.4000,0.610921,207.341,0.134755
293.3000,2.34144,207.679,0.139602
293.2000,0.550328,207.517,0.137277
293.1000,0.163303,206.451,0.121941
293.0000,1.2968,206.902,0.128436
292.9000,-0.529374,207.372,0.135195
292.8000,-0.690966,207.541,0.137618
292.7000,0.752244,207.705,0.139975
292.6000,1.04928,207.901,0.142786
292.5000,0.843924,207.027,0.130245
292.4000,0.083428,207.402,0.135634
292.3000,0.496463,207.537,0.13757
292.2000,1.75141,207.014,0.130049
292.1000,0.163751,207.116,0.131515
292.0000,1.78931,207.366,0.135113
291.9000,0.0515699,207.776,0.140999
291.8000,2.58521,206.683,0.125288
291.7000,1.46513,207.32,0.134446
291.6000,1.94253,207.084,0.131059
291.5000,-1.29141,207.896,0.142721
291.4000,0.243561,206.882,0.128158
291.3000,1.48655,207.162,0.132183
291.2000,-0.295733,207.104,0.131352
291.1000,-0.458478,207.589,0.138318
291.0000,3.15404,207.144,0.131922
290.9000,-1.23981,207.263,0.133632
290.8000,2.23311,207.917,0.143013
290.7000,1.07782,206.967,0.129381
290.6000,1.6984,207.304,0.134218
290.5000,-0.53416,206.822,0.127294
290.4000,-0.0923909,207.718,0.140171
290.3000,-1.62203,207.669,0.139455
290.2000,0.0684119,207.179,0.132427
290.1000,2.06766,207.491,0.136903
290.0000,0.974155,207.679,0.139602
289.9000,-0.993125,207.706,0.139992
289.8000,0.937563,207.503,0.137082
289.7000,1.2428,207.769,0.140902
289.6000,1.41351,207.723,0.140236
289.5000,0.493956,207.069,0.130847
289.4000,1.98845,207.054,0.130636
289.3000,0.753017,207.907,0.142867
289.2000,0.853921,208.185,0.146859
289.1000,1.31151,208.074,0.145269
289.0000,1.49319,207.74,0.140479
288.9000,0.992222,207.759,0.140755
288.8000,1.09179,208.111,0.145789
288.7000,2.96763,207.807,0.141438
288.6000,0.0781048,207.687,0.139715
288.5000,1.68555,208.734,0.154701
288.4000,1.70078,208.01,0.144344
288.3000,0.700994,207.925,0.143127
288.2000,0.432312,207.195,0.132655
288.1000,0.212865,208.156,0.146437
288.0000,1.83072,207.851,0.142071
287.9000,1.15924,207.927,0.143159
287.8000,0.298808,207.865,0.142266
287.7000,-0.0549905,207.929,0.143192
287.6000,0.0678127,207.683,0.139667
287.5000,2.1953,208.51,0.151511
287.4000,2.19763,208.248,0.147751
287.3000,1.66593,208.946,0.157726
287.2000,1.85569,208.288,0.148335
287.1000,2.77992,208.09,0.145496
287.0000,0.690736,207.478,0.136724
286.9000,1.19427,208.105,0.145707
286.8000,1.26757,208.035,0.144701
286.7000,0.774317,207.686,0.139699
286.6000,0.393855,207.253,0.133486
286.5000,1.27168,208.263,0.147978
286.4000,1.63138,208.981,0.158228
286.3000,0.454294,207.799,0.141324
286.2000,1.07244,208.262,0.147962
286.1000,2.2023,207.878,0.142461
286.0000,2.67808,207.901,0.142786
285.9000,0.560614,208.078,0.145318
285.8000,1.06675,209.034,0.158987
285.7000,2.55453,207.782,0.14108
285.6000,0.39485,208.668,0.153762
285.5000,-0.257098,207.485,0.136822
285.4000,1.91876,208.124,0.145983
285.3000,0.580323,208.522,0.151673
285.2000,1.82747,208.908,0.157193
285.1000,0.679003,207.798,0.141308
285.0000,-0.261056,208.266,0.14801
284.9000,0.751606,209.024,0.158842
284.8000,0.23244,207.658,0.139309
284.7000,0.672581,207.607,0.138578
284.6000,0.356635,208.086,0.145432
284.5000,-0.237788,208.168,0.146616
284.4000,0.391663,208.489,0.151204
284.3000,0.0825222,208.005,0.144279
284.2000,1.17668,208.47,0.150928
284.1000,0.673566,207.797,0.141292
284.0000,0.209192,207.763,0.140804
283.9000,1.08848,207.558,0.137862
283.8000,2.03815,208.112,0.145805
283.7000,1.6326,207.921,0.143078
283.6000,1.21671,207.36,0.135032
283.5000,1.03818,208.023,0.144539
283.4000,1.81206,208.28,0.148221
283.3000,1.80237,208.582,0.152532
283.2000,3.87886,208.351,0.149226
283.1000,1.23646,207.834,0.141827
283.0000,0.609754,208.576,0.152451
282.9000,1.86304,207.768,0.140886
282.8000,2.18055,209.078,0.159618
282.7000,1.7375,207.564,0.13796
282.6000,-0.296592,208.132,0.146097
282.5000,-1.40418,208.147,0.146308
282.4000,1.27794,208.129,0.146048
282.3000,0.470373,207.453,0.136366
282.2000,1.23753,208.479,0.151058
282.1000,2.77316,207.841,0.141925
282.0000,-0.0865785,208.228,0.147476
281.9000,1.9449,208.06,0.145058
281.8000,0.880425,208.089,0.14548
281.7000,3.08733,208.269,0.148059
281.6000,0.429356,208.593,0.152694
281.5000,1.79779,209.032,0.158955
281.4000,0.18124,208.659,0.153633
281.3000,0.507181,207.445,0.136252
281.2000,1.19532,208.466,0.15088
281.1000,1.9082,208.171,0.146648
281.0000,1.07341,208.29,0.148351
280.9000,-0.644139,208.378,0.149615
280.8000,0.852597,208.467,0.150896
280.7000,0.596124,208.768,0.155187
280.6000,0.954186,208.452,0.150669
280.5000,1.35568,208.466,0.15088
280.4000,-0.0564136,208.648,0.153471
280.3000,1.54777,207.982,0.143955
280.2000,0.150724,208.673,0.153827
280.1000,0.97287,207.971,0.143792
280.0000,1.57928,208.063,0.145107
279.9000,0.932362,208.372,0.149534
279.8000,-0.85401,208.639,0.153341
279.7000,1.64596,208.616,0.153017
279.6000,-0.64066,208.456,0.150734
279.5000,0.198942,208.507,0.151463
279.4000,-0.806402,208.646,0.153455
279.3000,1.16769,208.951,0.157807
279.2000,0.309859,208.396,0.149875
279.1000,-0.342567,208.925,0.157435
279.0000,1.27884,208.848,0.156335
278.9000,1.09947,208.89,0.156934
278.8000,1.96665,208.598,0.152758
278.7000,-0.483087,209.048,0.159181
278.6000,-0.193194,208.959,0.15792
278.5000,1.12847,207.921,0.143078
278.4000,0.856336,208.68,0.15394
278.3000,0.496701,208.305,0.148578
278.2000,1.70338,207.914,0.14298
278.1000,-0.0317996,208.303,0.148546
278.0000,1.52719,208.241,0.147654
277.9000,-1.77505,208.771,0.155235
277.8000,1.57381,208.164,0.146551
277.7000,-0.28945,208.462,0.150815
277.6000,1.32897,208.167,0.1466
277.5000,0.842789,208.229,0.147492
277.4000,0.965965,208.645,0.153438
277.3000,-0.263736,208.674,0.153843
277.2000,-0.911402,208.157,0.146454
277.1000,-0.225309,208.385,0.149713
277.0000,2.06179,208.427,0.150312
276.9000,0.901869,208.789,0.155494
276.8000,-0.129477,208.615,0.153001
276.7000,0.822322,208.435,0.150426
276.6000,0.0630506,208.903,0.157112
276.5000,0.769184,208.5,0.151366
276.4000,-1.09245,208.412,0.150102
276.3000,-0.498554,208.447,0.150604
276.2000,0.728751,208.286,0.148302
276.1000,-0.170055,208.815,0.155866
276.0000,1.26901,208.968,0.15805
275.9000,0.652197,207.723,0.140236
275.8000,0.283773,208.687,0.154037
275.7000,0.607385,208.626,0.153163
275.6000,-0.750521,208.855,0.156432
275.5000,-1.09872,208.637,0.153325
275.4000,0.697112,208.893,0.156982
275.3000,1.98229,208.38,0.149648
275.2000,-0.938084,208.616,0.153017
275.1000,0.982135,208.42,0.150215
275.0000,1.51691,207.942,0.14337
274.9000,-1.10066,209.04,0.159068
274.8000,1.68289,208.711,0.154377
274.7000,2.56513,208.284,0.14827
274.6000,0.677719,208.437,0.150458
274.5000,-0.715454,208.297,0.148465
274.4000,2.41201,208.226,0.147443
274.3000,0.442335,208.576,0.152451
274.2000,-0.258722,208.288,0.148335
274.1000,-0.259193,208.288,0.148335
274.0000,0.189235,208.847,0.156319
273.9000,-1.00691,208.776,0.1553
273.8000,1.44442,208.691,0.154086
273.7000,1.34495,208.111,0.145789
273.6000,-0.945324,208.806,0.155737
273.5000,0.74411,208.555,0.152143
273.4000,0.0843299,208.854,0.156416
273.3000,0.634217,208.871,0.156659
273.2000,0.364886,208.731,0.154669
273.1000,-0.1685,209.219,0.161622
273.0000,0.522886,208.558,0.152192
272.9000,-0.612839,208.611,0.152953
272.8000,-1.22037,208.415,0.15015
272.7000,0.971963,208.742,0.154814
272.6000,1.23518,208.448,0.15062
272.5000,1.99305,208.463,0.150831
272.4000,0.744282,208.438,0.150474
272.3000,-0.381273,208.659,0.153633
272.2000,-0.775668,209.011,0.158664
272.1000,-0.625723,208.425,0.150296
272.0000,0.00361122,208.653,0.153552
271.9000,0.100839,209.27,0.162348
271.8000,-0.0785842,208.512,0.151528
271.7000,-0.467818,209.133,0.160393
271.6000,-0.786404,208.101,0.145659
271.5000,0.918297,208.744,0.154847
271.4000,-2.27448,208.278,0.148189
271.3000,0.932137,208.623,0.153114
271.2000,-0.156117,208.619,0.153066
271.1000,-0.427482,208.828,0.156044
271.0000,-1.38465,209.019,0.158777
270.9000,0.165895,208.543,0.151981
270.8000,0.100924,208.288,0.148335
270.7000,0.0448126,209.238,0.161896
270.6000,0.186971,208.231,0.147508
270.5000,1.47914,209.749,0.169174
270.4000,0.894362,208.795,0.155575
270.3000,1.82073,208.814,0.15585
270.2000,-0.473933,209.119,0.1602
270.1000,0.563041,209.066,0.15944
270.0000,-0.343049,208.525,0.151722
269.9000,-0.246028,208.827,0.156028
269.8000,-0.189778,208.794,0.155559
269.7000,1.29636,208.615,0.153001
269.6000,0.249408,208.789,0.155494
269.5000,0.312899,208.98,0.158211
269.4000,1.02524,208.829,0.15606
269.3000,1.24668,208.455,0.150717
269.2000,1.19075,209.346,0.16343
269.1000,-1.08211,209.259,0.162203
269.0000,2.1026,208.915,0.15729
268.9000,0.756846,209.051,0.15923
268.8000,0.357834,209.097,0.159893
268.7000,1.00921,209.131,0.160377
268.6000,-1.05496,208.997,0.158454
268.5000,1.23411,209.159,0.160765
268.4000,1.14599,209.68,0.16819
268.3000,-1.18873,209.615,0.167271
268.2000,0.0136707,209.241,0.161945
268.1000,-0.409364,208.982,0.158244
268.0000,0.0373842,209.086,0.159731
267.9000,1.31695,208.653,0.153552
267.8000,-1.97815,209.143,0.160539
267.7000,0.525808,208.386,0.149729
267.6000,1.41941,209.119,0.1602
267.5000,1.27402,209.571,0.166642
267.4000,0.314595,209.304,0.162833
267.3000,1.22986,209.215,0.161573
267.2000,-1.21071,210.081,0.173894
267.1000,2.16835,209.544,0.166255
267.0000,0.171988,208.744,0.154847
266.9000,2.00558,209.198,0.161331
266.8000,-0.144982,209.5,0.165625
266.7000,0.0702376,209.555,0.166416
266.6000,-0.618387,209.817,0.170141
266.5000,-0.198895,209.295,0.162704
266.4000,1.10958,209.436,0.164722
266.3000,-1.25174,210.329,0.177418
266.2000,0.868911,209.715,0.16869
266.1000,-0.726225,210.447,0.17909
266.0000,0.949413,209.245,0.161993
265.9000,-0.543946,209.629,0.167465
265.8000,-0.272937,209.957,0.172139
265.7000,0.907761,208.88,0.156788
265.6000,0.314227,210.573,0.180874
265.5000,0.575801,210.108,0.17428
265.4000,0.108865,209.862,0.170785
265.3000,0.310661,210.396,0.178367
265.2000,0.816903,209.655,0.167836
265.1000,-0.236231,210.024,0.173089
265.0000,0.616584,209.545,0.166271
264.9000,1.29767,209.602,0.167077
264.8000,-0.0439101,209.322,0.163091
264.7000,0.413186,209.954,0.17209
264.6000,0.522919,210.348,0.177691
264.5000,0.721735,209.92,0.171607
264.4000,-1.94015,210.437,0.178946
264.3000,-0.15965,210.479,0.17954
264.2000,0.0663885,209.68,0.16819
264.1000,0.158526,210.747,0.183348
264.0000,0.607514,210.045,0.173378
263.9000,2.06462,209.837,0.170431
263.8000,0.174071,210.108,0.17428
263.7000,0.265996,209.997,0.172702
263.6000,0.331608,209.74,0.169045
263.5000,1.0158,210.415,0.17864
263.4000,-1.47051,210.055,0.173523
263.3000,2.1105,210.199,0.175568
263.2000,0.465521,210.221,0.17589
263.1000,1.78036,210.642,0.181854
263.0000,-0.317888,210.616,0.181485
262.9000,-0.333299,210.415,0.17864
262.8000,-1.8228,209.777,0.169577
262.7000,-0.568624,210.962,0.186397
262.6000,1.96275,210.877,0.185194
262.5000,-0.657333,210.645,0.181902
262.4000,-0.0586776,210.458,0.179251
262.3000,0.207895,210.829,0.184504
262.2000,0.747101,209.772,0.169496
262.1000,-0.397967,209.99,0.172606
262.0000,0.187177,210.663,0.18216
261.9000,-0.821464,210.817,0.184343
261.8000,0.570835,210.159,0.175005
261.7000,-0.60539,210.031,0.173185
261.6000,0.871491,210.641,0.181838
261.5000,0.260867,211.049,0.187617
261.4000,-0.356204,210.924,0.185852
261.3000,0.269529,210.975,0.186574
261.2000,-0.439908,210.468,0.179396
261.1000,0.111614,211.112,0.188515
261.0000,-0.596766,211.997,0.201016
260.9000,1.21982,210.576,0.180922
260.8000,-1.03974,210.211,0.175745
260.7000,-0.396456,210.848,0.184777
260.6000,-1.55369,210.083,0.173926
260.5000,0.682066,210.938,0.186044
260.4000,0.529384,211.128,0.188739
260.3000,-0.117564,211.109,0.188467
260.2000,0.0684717,210.841,0.18468
260.1000,0.52621,211.877,0.199322
260.0000,-0.172266,211.297,0.191127
259.9000,0.899413,211.35,0.19188
259.8000,-0.721944,211.884,0.199418
259.7000,-0.948734,211.452,0.193322
259.6000,1.24631,211.558,0.194827
259.5000,-0.351954,211.402,0.192617
259.4000,0.602798,211.443,0.193194
259.3000,0.287529,211.233,0.19023
259.2000,-0.671897,211.059,0.187761
259.1000,1.84936,211.899,0.199642
259.0000,-0.878769,210.913,0.185692
258.9000,0.393687,211.623,0.195739
258.8000,-0.078379,210.632,0.18171
258.7000,1.35125,211.433,0.193049
258.6000,-0.699597,211.08,0.188066
258.5000,0.446978,211.432,0.193034
258.4000,-0.159576,211.81,0.198379
258.3000,0.309148,211.458,0.193402
258.2000,1.64679,211.618,0.195675
258.1000,-0.361557,212.184,0.203652
258.0000,0.27973,211.362,0.192057
257.9000,-0.265059,211.646,0.196059
257.8000,-0.35057,211.861,0.199098
257.7000,-0.529554,211.906,0.199738
257.6000,0.268319,211.624,0.195755
257.5000,-0.962239,211.386,0.192393
257.4000,-0.397603,212.323,0.205615
257.3000,1.3659,211.342,0.191768
257.2000,0.581636,211.897,0.19961
257.1000,0.474378,211.17,0.189332
257.0000,-0.444917,211.54,0.194571
256.9000,1.79334,212.314,0.205488
256.8000,1.0935,211.485,0.193786
256.7000,1.00715,212.641,0.210081
256.6000,0.660323,212.499,0.208088
256.5000,-0.220372,211.967,0.200601
256.4000,1.06337,212.561,0.208965
256.3000,1.24585,212.263,0.204769
256.2000,1.29536,212.551,0.208822
256.1000,0.463677,212.277,0.204961
256.0000,0.54959,211.841,0.19881
255.9000,0.782167,212.237,0.204402
255.8000,0.427637,212.366,0.206222
255.7000,1.19117,212.448,0.20737
255.6000,0.0972538,211.657,0.196219
255.5000,-0.528484,212.543,0.20871
255.4000,0.946699,211.996,0.201
255.3000,0.465306,211.875,0.19929
255.2000,-1.0376,212.307,0.205392
255.1000,-1.09546,212.618,0.209762
255.0000,0.174985,212.401,0.206716
254.9000,0.425514,212.689,0.210766
254.8000,0.526837,212.241,0.20445
254.7000,-0.493114,212.868,0.213284
254.6000,-0.392156,213.221,0.218233
254.5000,-1.63805,213.036,0.21564
254.4000,-0.0377045,212.685,0.210703
254.3000,-0.801903,212.171,0.203476
254.2000,0.318778,212.762,0.211786
254.1000,0.889334,212.533,0.208567
254.0000,1.28252,212.82,0.212599
253.9000,-0.670069,213.166,0.217469
253.8000,-1.38988,213.866,0.227287
253.7000,1.23508,213.304,0.21941
253.6000,-0.925091,212.755,0.211691
253.5000,-0.201986,212.829,0.212726
253.4000,-0.557939,212.92,0.214016
253.3000,-0.305285,212.869,0.213299
253.2000,-1.23976,213.263,0.218821
253.1000,-0.041143,213.244,0.218567
253.0000,1.0434,212.817,0.212567
252.9000,0.427613,213.584,0.223335
252.8000,-2.01209,212.755,0.211691
252.7000,-1.52712,212.874,0.213363
252.6000,-0.438163,212.687,0.210735
252.5000,-1.79601,212.907,0.213825
252.4000,1.00138,213.791,0.226224
252.3000,-0.914937,214.066,0.230078
252.2000,1.00097,213.09,0.216404
252.1000,-1.03316,213.01,0.215274
252.0000,-0.0145087,213.823,0.226684
251.9000,-0.779943,213.694,0.224875
251.8000,0.137434,214.192,0.231837
251.7000,0.528029,213.842,0.226938
251.6000,-0.31764,213.272,0.218949
251.5000,-0.119275,212.893,0.213634
251.4000,-1.45533,213.555,0.222922
251.3000,-1.00659,213.868,0.227303
251.2000,-0.725289,212.937,0.214255
251.1000,-0.0944247,214.029,0.229555
251.0000,-1.08572,214.295,0.233279
250.9000,-0.596633,213.253,0.218694
250.8000,0.636701,213.797,0.226319
250.7000,-0.410215,214.232,0.232408
250.6000,0.869517,213.942,0.22835
250.5000,0.123973,213.984,0.228937
250.4000,0.101288,213.779,0.226065
250.3000,-0.968927,214.285,0.233136
250.2000,-0.7076,214.342,0.233944
250.1000,0.815405,214.324,0.233691
250.0000,-1.52348,214.334,0.233833
249.9000,-0.355841,214.808,0.240446
249.8000,-1.57,214.299,0.233342
249.7000,-0.524267,214.739,0.239482
249.6000,-0.00780734,213.89,0.22762
249.5000,-1.44289,214.204,0.232012
249.4000,-0.402717,214.571,0.237141
249.3000,0.0689546,214.319,0.233611
249.2000,-0.576625,214.327,0.233722
249.1000,0.718587,214.627,0.237916
249.0000,-0.230104,214.609,0.237663
248.9000,-1.04308,214.732,0.239387
248.8000,-0.624634,214.517,0.236382
248.7000,-0.185777,214.586,0.237347
248.6000,-1.82064,214.669,0.238502
248.5000,-0.486923,214.364,0.234245
248.4000,-0.470386,215.029,0.243527
248.3000,-1.60753,214.904,0.24179
248.2000,-1.92996,214.706,0.239023
248.1000,-1.52269,214.332,0.233801
248.0000,-0.184259,214.985,0.242911
247.9000,-1.14426,215.732,0.253306
247.8000,1.96948,215.072,0.244128
247.7000,-1.75234,214.554,0.236904
247.6000,-0.840051,214.567,0.237078
247.5000,-1.00339,214.63,0.237964
247.4000,-0.943235,215.226,0.246275
247.3000,0.467461,215.375,0.248341
247.2000,-0.688224,215.569,0.251053
247.1000,-1.15087,214.764,0.23983
247.0000,-2.665,215.375,0.248341
246.9000,-1.89132,215.602,0.25151
246.8000,-1.74338,215.251,0.246622
246.7000,-1.6583,214.78,0.240051
246.6000,-0.194592,215.088,0.244349
246.5000,-0.444704,215.674,0.252503
246.4000,-1.0229,215.945,0.256267
246.3000,-2.46802,216.135,0.258909
246.2000,-1.61311,215.979,0.256739
246.1000,-1.33607,215.899,0.255637
246.0000,-1.29495,215.839,0.254802
245.9000,-3.01786,216.097,0.258391
245.8000,-2.03632,216.188,0.259649
245.7000,-4.159,216.229,0.260215
245.6000,-2.04343,215.305,0.247379
245.5000,-2.29304,216.287,0.261016
245.4000,-2.38315,216.178,0.259507
245.3000,-1.83817,216.163,0.259303
245.2000,-2.62724,215.712,0.253039
245.1000,-2.39868,216.555,0.26474
245.0000,-3.09792,216.252,0.260529
244.9000,-3.2796,216.603,0.265399
244.8000,-1.72242,216.168,0.259366
244.7000,-2.66811,216.636,0.265854
244.6000,-2.30828,216.968,0.270451
244.5000,-2.47257,216.623,0.265682
244.4000,-2.50506,216.616,0.265587
244.3000,-1.7709,216.468,0.26353
244.2000,-1.89943,216.322,0.261504
244.1000,-3.4604,216.301,0.261221
244.0000,-2.10897,217.254,0.274415
243.9000,-3.2072,217.163,0.273146
243.8000,-4.96501,216.768,0.26769
243.7000,-0.910678,217.163,0.273146
243.6000,-4.53423,217.141,0.272849
243.5000,-3.20298,217.167,0.273209
243.4000,-5.3941,217.612,0.27936
243.3000,-6.05713,217.692,0.280455
243.2000,-5.10349,217.047,0.271548
243.1000,-5.50233,217.803,0.281987
243.0000,-4.62268,217.808,0.282065
242.9000,-2.65835,216.964,0.270404
242.8000,-3.38957,217.208,0.273773
242.7000,-5.15225,217.553,0.278547
242.6000,-3.87115,217.873,0.282955
242.5000,-5.91123,218.549,0.292271
242.4000,-6.68669,217.872,0.28294
242.3000,-5.35202,218.548,0.292255
242.2000,-5.76716,218.563,0.292458
242.1000,-5.98352,218.68,0.294063
242.0000,-6.42744,218.035,0.285189
241.9000,-6.96208,218.956,0.297861
241.8000,-6.61547,218.884,0.296865
241.7000,-7.11708,218.929,0.297488
241.6000,-7.15601,219.712,0.308225
241.5000,-6.23883,219.823,0.309745
241.4000,-6.07058,218.919,0.297348
241.3000,-7.4177,219.295,0.302511
241.2000,-5.99072,219.544,0.305928
241.1000,-6.82416,220.008,0.312272
241.0000,-6.03181,219.629,0.307092
240.9000,-9.10354,219.961,0.311637
240.8000,-7.84054,220.096,0.313481
240.7000,-7.31885,220.247,0.315541
240.6000,-5.82391,219.909,0.310924
240.5000,-8.40578,220.299,0.316253
240.4000,-9.07651,220.707,0.321822
240.3000,-10.2489,221.139,0.327707
240.2000,-9.00254,220.392,0.317523
240.1000,-8.3657,221.073,0.326812
240.0000,-9.77351,220.999,0.325809
239.9000,-8.2171,220.946,0.325083
239.8000,-7.19727,221.653,0.334707
239.7000,-11.1999,221.32,0.330176
239.6000,-10.595,221.17,0.328139
239.5000,-10.5133,222.727,0.349281
239.4000,-11.2996,221.876,0.337741
239.3000,-12.0551,221.814,0.336894
239.2000,-12.3531,222.391,0.344721
239.1000,-11.2547,221.919,0.338325
239.0000,-10.2656,222.923,0.351934
238.9000,-11.4187,222.303,0.343538
238.8000,-10.3835,222.834,0.350723
238.7000,-11.604,222.976,0.352655
238.6000,-13.4363,223.749,0.363094
238.5000,-14.9521,223.68,0.362161
238.4000,-13.9317,224.365,0.371399
238.3000,-12.3287,223.542,0.360296
238.2000,-14.969,223.92,0.365401
238.1000,-14.1108,223.989,0.366333
238.0000,-14.8174,223.992,0.366363
237.9000,-13.8772,224.401,0.371872
237.8000,-17.1466,224.532,0.37364
237.7000,-15.4155,225.29,0.383822
237.6000,-15.1629,224.271,0.370133
237.5000,-16.2458,225.066,0.380812
237.4000,-16.7183,225.371,0.384901
237.3000,-18.4914,226.047,0.39396
237.2000,-17.6173,225.657,0.388743
237.1000,-17.5013,226.633,0.401788
237.0000,-17.128,226.106,0.394748
236.9000,-18.9724,226.428,0.399049
236.8000,-18.5866,226.379,0.398399
236.7000,-18.828,226.916,0.405567
236.6000,-18.5509,227.263,0.410187
236.5000,-17.2244,227.327,0.411047
236.4000,-19.0237,227.259,0.410142
236.3000,-20.4628,227.285,0.410489
236.2000,-21.2379,228.428,0.425666
236.1000,-19.32,228.008,0.420103
236.0000,-20.6172,228.611,0.4281
235.9000,-21.5051,228.601,0.427965
235.8000,-23.0807,229.294,0.437143
235.7000,-20.1448,228.965,0.432782
235.6000,-22.4425,229.406,0.438626
235.5000,-23.3249,229.944,0.445716
235.4000,-23.8128,230.085,0.447584
235.3000,-23.5255,229.726,0.442846
235.2000,-22.6617,229.625,0.441515
235.1000,-25.0456,230.649,0.455014
235.0000,-26.3616,230.469,0.452644
234.9000,-25.5225,230.697,0.455641
234.8000,-23.7953,230.494,0.452972
234.7000,-26.8915,231.483,0.465969
234.6000,-27.6307,231.145,0.461523
234.5000,-26.3018,231.9,0.471434
234.4000,-27.0197,232.338,0.477158
234.3000,-27.5098,232.706,0.48197
234.2000,-30.1854,233.284,0.489509
234.1000,-29.483,233.037,0.486289
234.0000,-28.2232,233.362,0.490528
233.9000,-29.7448,233.207,0.488505
233.8000,-28.5632,234.207,0.501525
233.7000,-30.9206,234.407,0.504115
233.6000,-30.1731,234.88,0.510258
233.5000,-31.3835,234.334,0.503173
233.4000,-32.3744,234.53,0.505717
233.3000,-33.0614,235.397,0.516947
233.2000,-31.7157,235.902,0.523479
233.1000,-35.3172,235.792,0.522059
233.0000,-32.3845,236.331,0.529005
232.9000,-34.1664,236.581,0.532233
232.8000,-36.9211,237.493,0.543964
232.7000,-35.5004,237.522,0.544328
232.6000,-34.9834,237.467,0.54363
232.5000,-35.8922,237.375,0.542451
232.4000,-37.1213,237.117,0.539131
232.3000,-38.4817,238.385,0.555398
232.2000,-36.1293,238.517,0.557095
232.1000,-35.8877,239.244,0.566377
232.0000,-40.613,239.031,0.563657
231.9000,-39.982,238.716,0.559631
231.8000,-38.9019,239.962,0.575535
231.7000,-40.7036,241.832,0.599262
231.6000,-41.0838,241.007,0.588812
231.5000,-41.0826,241.511,0.595204
231.4000,-42.2767,242.149,0.603274
231.3000,-41.5465,242.498,0.607681
231.2000,-41.826,242.522,0.607982
231.1000,-43.8583,242.753,0.610898
231.0000,-42.4682,242.612,0.609125
230.9000,-45.8566,243.077,0.614982
230.8000,-43.1504,242.992,0.613912
230.7000,-43.4243,243.401,0.619062
230.6000,-43.861,244.91,0.638005
230.5000,-47.9766,243.748,0.623422
230.4000,-46.5535,244.956,0.638573
230.3000,-43.3639,244.607,0.634202
230.2000,-44.0223,245.029,0.639494
230.1000,-48.4919,245.365,0.643689
230.0000,-49.8266,245.971,0.651259
229.9000,-48.9408,246.538,0.658333
229.8000,-48.9837,246.882,0.662605
229.7000,-49.3591,247.073,0.664986
229.6000,-49.7803,247.989,0.676347
229.5000,-50.239,248.132,0.678115
229.4000,-49.1035,248.345,0.680753
229.3000,-51.4022,249.514,0.695196
229.2000,-50.2833,248.634,0.684327
229.1000,-49.1467,249.807,0.698812
229.0000,-52.7689,250.64,0.709054
228.9000,-52.2847,251.125,0.715006
228.8000,-56.1454,250.713,0.709945
228.7000,-55.1281,252.511,0.731959
228.6000,-55.811,251.904,0.724538
228.5000,-54.2929,253.079,0.738881
228.4000,-56.0873,253.551,0.744634
228.3000,-60.1898,254.133,0.751712
228.2000,-57.3444,254.668,0.7582
228.1000,-56.3814,254.78,0.759559
228.0000,-54.3546,255.689,0.770553
227.9000,-57.4048,256.308,0.778019
227.8000,-57.6457,257.538,0.792825
227.7000,-56.0838,257.684,0.79458
227.6000,-58.65,257.968,0.797978
227.5000,-61.3016,258.171,0.80041
227.4000,-58.8739,259.042,0.810838
227.3000,-61.998,260.048,0.822843
227.2000,-58.3865,260.156,0.824125
227.1000,-61.4037,261.161,0.836074
227.0000,-60.5089,262.466,0.851536
226.9000,-60.5398,261.949,0.845423
226.8000,-62.1962,262.61,0.853237
226.7000,-62.2219,263.039,0.858307
226.6000,-60.3152,263.486,0.863571
226.5000,-64.2224,264.395,0.874264
226.4000,-60.7291,265.108,0.882642
226.3000,-65.2884,265.896,0.891862
226.2000,-64.1162,266.631,0.900452
226.1000,-64.7214,266.576,0.899804
226.0000,-65.6762,267.087,0.905763
225.9000,-63.2885,267.817,0.914269
225.8000,-59.9867,269.263,0.931038
225.7000,-63.82,269.9,0.938401
225.6000,-64.9302,269.903,0.93844
225.5000,-60.4589,271.222,0.953643
225.4000,-70.098,272.582,0.969251
225.3000,-68.8585,272.957,0.973545
225.2000,-66.3484,273.771,0.982843
225.1000,-69.3371,274.377,0.989756
225.0000,-63.6609,275.341,1.00073
224.9000,-63.6827,276.455,1.01336
224.8000,-69.147,277.077,1.0204
224.7000,-68.1719,278.093,1.03186
224.6000,-67.3148,279.128,1.0435
224.5000,-68.8636,280.388,1.05763
224.4000,-65.7225,281.563,1.07075
224.3000,-69.5509,281.778,1.07315
224.2000,-66.3822,282.325,1.07925
224.1000,-68.9724,283.676,1.09424
224.0000,-72.3395,284.863,1.10738
223.9000,-71.097,285.715,1.11678
223.8000,-67.4856,286.451,1.12487
223.7000,-69.4893,287.401,1.13531
223.6000,-70.591,288.582,1.14823
223.5000,-66.6854,290.713,1.17144
223.4000,-68.5655,291.358,1.17844
223.3000,-66.8752,292.328,1.18894
223.2000,-65.9167,293.272,1.19912
223.1000,-73.3154,295.183,1.21967
223.0000,-75.0123,296.29,1.23152
222.9000,-66.1295,297.823,1.24787
222.8000,-67.7175,299.667,1.26744
222.7000,-70.0546,301.072,1.28229
222.6000,-75.4693,302.705,1.29947
222.5000,-75.1852,303.576,1.30861
222.4000,-70.6466,304.935,1.32281
222.3000,-66.8611,305.716,1.33096
222.2000,-61.7407,307.227,1.34665
222.1000,-71.7382,309.506,1.37022
222.0000,-71.3754,309.602,1.3712
221.9000,-69.0058,312.125,1.39711
221.8000,-72.9889,313.465,1.41081
221.7000,-70.1158,314.592,1.42228
221.6000,-64.4358,316.162,1.43821
221.5000,-66.8345,318.062,1.4574
221.4000,-66.9027,319.559,1.47245
221.3000,-63.4707,321.737,1.49424
221.2000,-69.1764,323.357,1.51038
221.1000,-62.6979,324.674,1.52344
221.0000,-65.4051,327.094,1.54733
220.9000,-72.8926,328.395,1.56011
220.8000,-69.9665,330.262,1.57838
220.7000,-59.8531,333.013,1.60515
220.6000,-70.8369,335.193,1.62622
220.5000,-63.1755,337.313,1.64661
220.4000,-63.2027,339.093,1.66365
220.3000,-71.9604,340.98,1.68162
220.2000,-67.2379,342.603,1.69702
220.1000,-67.3157,345.367,1.7231
220.0000,-71.3245,347.291,1.74115
219.9000,-58.1479,350.019,1.76661
219.8000,-69.207,352.004,1.78502
219.7000,-61.6096,354.138,1.80472
219.6000,-70.8932,356.145,1.82315
219.5000,-60.184,358.104,1.84107
219.4000,-69.2034,361.302,1.87014
219.3000,-63.4144,363.478,1.88979
219.2000,-49.2071,366.33,1.9154
219.1000,-67.4794,367.427,1.92521
219.0000,-68.2999,369.888,1.94712
218.9000,-59.8874,372.877,1.97357
218.8000,-61.0064,375.988,2.00091
218.7000,-42.2415,377.653,2.01546
218.6000,-56.9363,381.676,2.05041
218.5000,-56.6585,383.147,2.06311
218.4000,-63.7524,386.71,2.09371
218.3000,-56.8742,390.125,2.12281
218.2000,-47.4668,391.903,2.13788
218.1000,-48.5171,396.234,2.17434
218.0000,-45.7338,400.233,2.20771
217.9000,-51.2712,401.564,2.21875
217.8000,-37.2248,405.625,2.25226
217.7000,-53.0139,409.316,2.28248
217.6000,-36.4279,412.614,2.30928
217.5000,-51.3012,417.167,2.34598
217.4000,-39.5219,420.067,2.36918
217.3000,-45.9145,424.449,2.404
217.2000,-23.612,428.485,2.43579
217.1000,-40.2518,432.813,2.4696
217.0000,-44.9588,435.881,2.4934
216.9000,-39.7378,440.139,2.52619
216.8000,-36.3253,442.72,2.54594
216.7000,-39.0597,446.07,2.57144
216.6000,-38.0037,450.656,2.60606
216.5000,-39.838,455.002,2.63861
216.4000,-41.2005,457.289,2.65563
216.3000,-30.6677,461.103,2.68386
216.2000,-37.2796,465.114,2.71333
216.1000,-27.8555,468.285,2.73649
216.0000,-33.9059,472.869,2.76971
215.9000,-42.5967,477.247,2.8012
215.8000,-40.0131,480.604,2.82518
215.7000,-42.3357,483.67,2.84695
215.6000,-22.6978,486.827,2.86925
215.5000,-34.9826,491.525,2.90221
215.4000,-27.1733,496.346,2.93576
215.3000,-25.8189,500.72,2.96596
215.2000,-25.4578,504.211,2.9899
215.1000,-27.0774,508.705,3.02052
215.0000,-31.1654,510.97,3.03586
214.9000,-30.4621,515.014,3.06312
214.8000,-20.8239,519.841,3.09541
214.7000,-16.9582,523.261,3.11813
214.6000,-17.7136,527.449,3.14579
214.5000,-26.2058,532,3.17564
214.4000,-28.8735,536.009,3.20175
214.3000,-23.1534,539.295,3.22303
214.2000,-20.9655,543.767,3.25182
214.1000,-28.289,547.908,3.2783
214.0000,-31.339,551.499,3.30112
213.9000,-7.58046,556.249,3.33111
213.8000,-27.7062,560.28,3.3564
213.7000,-7.78273,564.423,3.38222
213.6000,-13.0785,566.641,3.39599
213.5000,-8.90297,571.763,3.42759
213.4000,-19.4606,574.828,3.44639
213.3000,-17.5021,578.676,3.46986
213.2000,3.03046,583.06,3.49645
213.1000,-4.16406,585.568,3.51159
213.0000,-8.08019,589.415,3.53469
212.9000,-13.7992,592.72,3.55444
212.8000,-12.4784,596.021,3.57407
212.7000,-6.67373,600.172,3.59863
212.6000,-20.122,604.031,3.62134
212.5000,-11.5633,607.116,3.63939
212.4000,-8.35884,610.238,3.65759
212.3000,-5.44985,614.576,3.68274
212.2000,-18.4501,617.818,3.70144
212.1000,-10.7051,622.359,3.72749
212.0000,-17.2958,625.964,3.74806
211.9000,-6.29472,629.012,3.76537
211.8000,-13.3495,632.603,3.78567
211.7000,1.27403,636.008,3.80483
211.6000,3.05628,639.081,3.82204
211.5000,-10.5838,641.39,3.83494
211.4000,3.17491,643.813,3.84842
211.3000,-8.47597,646.358,3.86254
211.2000,-8.32103,648.294,3.87324
211.1000,-18.7277,650.653,3.88625
211.0000,5.17684,653.344,3.90104
210.9000,5.57163,655.923,3.91517
210.8000,9.42086,657.798,3.92541
210.7000,7.29322,660.208,3.93854
210.6000,0.239896,662.375,3.95031
210.5000,11.4296,664.737,3.9631
210.4000,-4.65149,666.442,3.97231
210.3000,1.60982,668.846,3.98526
210.2000,-0.834954,670.62,3.99479
210.1000,-3.99281,671.541,3.99973
210.0000,-3.66489,673.845,4.01206
209.9000,-15.4918,675.55,4.02116
209.8000,-4.31644,677.679,4.0325
209.7000,-8.97521,679.399,4.04164
209.6000,-25.2836,680.552,4.04776
209.5000,2.24611,682.434,4.05772
209.4000,-5.65311,684.082,4.06642
209.3000,-11.2131,685.192,4.07227
209.2000,1.24695,686.944,4.08149
209.1000,-6.70116,688.169,4.08793
209.0000,-0.62215,689.01,4.09234
208.9000,-6.44343,689.572,4.09529
208.8000,1.9947,690.546,4.10039
208.7000,-0.505111,691.02,4.10287
208.6000,5.62706,692.533,4.11078
208.5000,-7.27915,693.162,4.11406
208.4000,8.01743,694.428,4.12066
208.3000,-3.04966,694.741,4.12229
208.2000,-8.31241,695.607,4.1268
208.1000,7.07437,696.622,4.13207
208.0000,-7.80638,697.728,4.13781
207.9000,4.65061,698.479,4.14171
207.8000,-11.2046,699.644,4.14774
207.7000,-12.417,700.256,4.15091
207.6000,3.00051,701.202,4.1558
207.5000,-3.63879,701.36,4.15661
207.4000,-0.178097,701.907,4.15944
207.3000,6.53572,702.245,4.16118
207.2000,5.75958,702.277,4.16135
207.1000,-8.58983,702.691,4.16348
207.0000,-4.03937,703.2,4.16611
206.9000,15.3887,703.198,4.16609
206.8000,5.24322,703.327,4.16676
206.7000,3.57666,704.275,4.17164
206.6000,-3.7646,703.722,4.1688
206.5000,-6.43737,704.775,4.17421
206.4000,-6.76903,704.72,4.17393
206.3000,-6.85414,705.161,4.1762
206.2000,-15.438,705.643,4.17868
206.1000,-2.27352,706.119,4.18112
206.0000,-19.494,705.817,4.17957
205.9000,-9.0582,706.636,4.18378
205.8000,-3.86467,706.582,4.1835
205.7000,-6.12057,708.318,4.1924
205.6000,2.18482,708.498,4.19332
205.5000,-1.02726,707.794,4.18972
205.4000,9.1656,708.589,4.19379
205.3000,11.1496,708.958,4.19568
205.2000,-1.13549,709.389,4.19788
205.1000,-7.24272,710.277,4.20242
205.0000,-10.8508,710.63,4.20423
204.9000,3.58489,710.873,4.20546
204.8000,2.75042,711.019,4.20621
204.7000,-2.28431,711.326,4.20778
204.6000,8.93408,711.903,4.21072
204.5000,-16.3788,712.494,4.21374
204.4000,-4.05073,713.479,4.21875
204.3000,1.02181,713.93,4.22105
204.2000,-9.44855,715.004,4.22651
204.1000,14.8662,715.269,4.22785
204.0000,-14.9975,715.813,4.23061
203.9000,-6.35412,716.084,4.23199
203.8000,5.12356,716.096,4.23205
203.7000,1.82736,717.181,4.23755
203.6000,-9.37023,718.13,4.24236
203.5000,2.78589,718.455,4.244
203.4000,6.6872,719.249,4.24802
203.3000,-3.9681,718.867,4.24609
203.2000,8.55352,720.807,4.25588
203.1000,-3.20565,721.481,4.25928
203.0000,-12.814,723.093,4.26741
202.9000,3.62316,723.274,4.26832
202.8000,2.66242,723.728,4.2706
202.7000,-14.1976,724.991,4.27694
202.6000,3.7718,725.071,4.27735
202.5000,2.19691,726.186,4.28294
202.4000,1.21338,727.02,4.28712
202.3000,-7.23989,726.706,4.28555
202.2000,-3.2545,729.094,4.29749
202.1000,-6.48227,729.141,4.29773
202.0000,-0.474437,730.44,4.30421
201.9000,-2.37861,732.261,4.31329
201.8000,3.31932,733.414,4.31903
201.7000,-5.01076,734.664,4.32524
201.6000,-13.744,735.995,4.33184
201.5000,7.44221,737.458,4.33908
201.4000,-3.68678,738.634,4.3449
201.3000,4.07323,738.844,4.34593
201.2000,2.00166,740.173,4.3525
201.1000,-2.1668,740.226,4.35276
201.0000,-11.6994,741.439,4.35873
200.9000,-5.21961,743.453,4.36865
200.8000,3.4018,743.779,4.37025
200.7000,3.2045,745.073,4.3766
200.6000,10.2779,747.551,4.38874
200.5000,3.01949,747.401,4.388
200.4000,-11.4462,748.243,4.39212
200.3000,-8.08946,749.725,4.39935
200.2000,4.24323,751.292,4.40699
200.1000,-8.893,751.739,4.40917
200.0000,0.921749,752.743,4.41405
199.9000,4.96296,754.512,4.42265
199.8000,-11.9781,755.427,4.42708
199.7000,-9.18553,756.826,4.43386
199.6000,0.714316,757.606,4.43763
199.5000,19.3685,757.711,4.43814
199.4000,-2.92788,758.804,4.44342
199.3000,-2.94606,760.232,4.45031
199.2000,10.6759,760.491,4.45156
199.1000,-4.32716,761.723,4.45749
199.0000,-11.7593,762.319,4.46036
198.9000,7.31169,764.422,4.47046
198.8000,0.73491,764.736,4.47197
198.7000,-9.50909,765.266,4.47451
198.6000,-2.9448,767.38,4.48463
198.5000,-0.701013,767.868,4.48697
198.4000,-12.5264,769.294,4.49378
198.3000,-6.30226,769.669,4.49557
198.2000,8.32166,770.26,4.49839
198.1000,-3.05875,770.898,4.50143
198.0000,-12.6187,771.612,4.50483
197.9000,14.0484,772.656,4.50979
197.8000,16.7511,773.56,4.51409
197.7000,3.70161,773.707,4.51479
197.6000,2.7899,774.652,4.51927
197.5000,4.65807,775.194,4.52184
197.4000,-7.6229,775.801,4.52472
197.3000,-1.91106,776.431,4.5277
197.2000,-11.1837,776.83,4.52959
197.1000,-8.83444,777.273,4.53169
197.0000,1.27014,778.293,4.53651
196.9000,2.79512,778.727,4.53856
196.8000,-4.78326,779.97,4.54443
196.7000,-16.1586,781.057,4.54955
196.6000,3.38597,781.394,4.55114
196.5000,2.23954,782.576,4.5567
196.4000,13.5855,782.926,4.55835
196.3000,9.32382,783.477,4.56093
196.2000,-5.2015,785.177,4.56892
196.1000,8.01211,784.758,4.56695
196.0000,21.4494,785.016,4.56816
195.9000,0.388146,786.367,4.57449
195.8000,2.40744,787.752,4.58097
195.7000,0.432261,787.231,4.57854
195.6000,-9.2408,788.133,4.58276
195.5000,4.36146,788.436,4.58417
195.4000,0.454813,789.133,4.58743
195.3000,2.94104,789.34,4.5884
195.2000,9.94945,790.262,4.5927
195.1000,-6.05909,790.44,4.59353
195.0000,-9.44766,790.688,4.59469
194.9000,-6.70394,791.206,4.5971
194.8000,-1.12741,791.491,4.59842
194.7000,-6.36755,791.382,4.59792
194.6000,11.2743,791.841,4.60005
194.5000,2.27858,792.088,4.6012
194.4000,12.2425,793.102,4.60592
194.3000,1.09441,793.305,4.60686
194.2000,-2.66143,794.023,4.6102
194.1000,4.2228,793.789,4.60911
194.0000,7.3108,795.339,4.61631
193.9000,-4.75619,795.486,4.61699
193.8000,3.21915,796.967,4.62385
193.7000,-11.8601,797.316,4.62547
193.6000,8.5189,797.784,4.62763
193.5000,10.5002,796.725,4.62274
193.4000,1.90317,798.544,4.63115
193.3000,-0.0832939,798.036,4.6288
193.2000,0.119712,799.758,4.63676
193.1000,-18.8654,799.072,4.63359
193.0000,7.583,799.98,4.63778
192.9000,-8.10293,800.998,4.64248
192.8000,-1.42103,800.347,4.63947
192.7000,7.39513,801.563,4.64508
192.6000,-1.79166,801.698,4.64571
192.5000,-11.9989,802.355,4.64873
192.4000,-2.08362,802.215,4.64809
192.3000,5.51042,802.546,4.64961
192.2000,-5.87796,802.415,4.649
192.1000,-6.38763,802.884,4.65116
192.0000,6.06292,803.431,4.65368
191.9000,-9.95516,804.158,4.65702
191.8000,18.8205,804.708,4.65955
191.7000,-5.69146,804.549,4.65882
191.6000,-11.0274,804.567,4.6589
191.5000,11.8186,806.088,4.66588
191.4000,16.935,806.283,4.66677
191.3000,0.0271455,806.656,4.66848
191.2000,-3.43505,806.785,4.66907
191.1000,-4.63719,807.317,4.67151
191.0000,-0.486982,807.783,4.67365
190.9000,-10.8402,808.129,4.67523
190.8000,13.0565,809.06,4.67949
190.7000,12.7847,809.392,4.681
190.6000,7.70316,809.743,4.68261
190.5000,-3.79727,809.881,4.68324
190.4000,-2.15776,810.934,4.68804
190.3000,5.47836,810.124,4.68435
190.2000,-2.69425,810.322,4.68525
190.1000,2.2071,811.053,4.68859
190.0000,8.58611,810.936,4.68805

##### Extended Information
[Comments]
Sample name,SHND.928.ADDITIVE+PROTEIN
Comment,ADDITIVE (DMSO) + PROTEIN 
User,SADIYYAH HOLSEY
Division
Company,Saint Mary's College

[Detailed Information]
Creation date,9/28/2022 2:49 PM

Data array type,Linear data array * 3
Horizontal axis,Wavelength [nm]
Vertical axis(1),CD [mdeg]
Vertical axis(2),HT [V]
Vertical axis(3),Abs
Start,320 nm
End,190 nm
Data interval,0.1 nm
Data points,1301    

[Measurement Information]
Instrument name,J-1500
Model name,J-1500
Serial No.,B051061638

Detector,PM-539
Detector S/N,B051061638
  Lock-in amp.,X mode
  HT volt,Auto

Accessory,PTC-517
Accessory S/N,B026561646
  Temperature,27.48 C
  Control sensor,Holder
  Monitor sensor,Holder

Measurement date,9/28/2022 2:49 PM

CD Overload detect,918
Photometric mode,CD, HT, Abs
Measure range,320 - 190 nm
Data pitch,0.1 nm
CD scale,20 mdeg/0.05 dOD
FL scale,20 mdeg/0.05 dOD
D.I.T.,8 msec
Bandwidth,2.00 nm
Start mode,Immediately
Scanning mode,Continuous
Scanning speed,200 nm/min
Baseline correction,None
Shutter control,Auto
No. of cycle,1/1
N2 Flowmeter,Manual

Solvent,NaPO4 buffer

