TITLE,SHND.928.BUFFER
DATA TYPE,
ORIGIN,JASCO
OWNER,
DATE,22/09/28
TIME,15:33:58
SPECTROMETER/DATA SYSTEM,
LOCALE,1033
RESOLUTION,
DELTAX,-0.1
XUNITS,NANOMETERS
YUNITS,CD [mdeg]
Y2UNITS,HT [V]
Y3UNITS,ABSORBANCE
FIRSTX,  320.0000
LASTX,  190.0000
NPOINTS,    1301
FIRSTY,     0.82206
MAXY,     6.24114
MINY,    -5.52908
XYDATA
320.0000,0.822059,208.677,0.153892
319.9000,-0.277577,209.087,0.159747
319.8000,2.02613,209.018,0.158761
319.7000,-0.813339,209.776,0.169561
319.6000,1.24079,209.705,0.168545
319.5000,-0.476981,208.785,0.155429
319.4000,2.85302,209.616,0.167287
319.3000,1.64361,208.774,0.155284
319.2000,0.159478,208.343,0.149113
319.1000,0.377194,208.981,0.158228
319.0000,0.885381,207.993,0.144101
318.9000,0.129026,208.821,0.155947
318.8000,2.20554,208.53,0.151787
318.7000,1.18228,209.291,0.162655
318.6000,1.03729,209.595,0.166981
318.5000,0.987615,208.804,0.155704
318.4000,0.0691459,209.239,0.161912
318.3000,0.427842,209.333,0.163253
318.2000,-0.0693833,209.321,0.163075
318.1000,-0.178274,209.304,0.162833
318.0000,2.23572,208.595,0.152726
317.9000,2.73751,208.938,0.157613
317.8000,2.0918,208.708,0.154329
317.7000,-0.0108761,208.7,0.154215
317.6000,1.21333,208.779,0.155348
317.5000,0.630271,208.716,0.154442
317.4000,0.989186,208.245,0.147719
317.3000,1.04132,208.889,0.156918
317.2000,1.12943,209.417,0.164447
317.1000,-0.364425,208.421,0.150231
317.0000,1.00903,208.915,0.15729
316.9000,-0.543625,208.759,0.155057
316.8000,2.22043,208.662,0.153681
316.7000,2.52639,208.786,0.155445
316.6000,0.756673,209.708,0.168593
316.5000,0.652232,208.274,0.148124
316.4000,0.502971,208.7,0.154215
316.3000,1.27765,209.484,0.165399
316.2000,1.35143,210.025,0.173105
316.1000,-0.128165,208.679,0.153924
316.0000,1.77196,209.017,0.158745
315.9000,1.94859,208.848,0.156335
315.8000,0.855055,209.716,0.168706
315.7000,0.410439,208.322,0.148821
315.6000,0.320832,208.514,0.15156
315.5000,0.665571,208.999,0.158486
315.4000,2.14546,207.993,0.144101
315.3000,1.74446,209.644,0.167674
315.2000,1.41708,206.96,0.129283
315.1000,0.578197,208.432,0.150393
315.0000,1.41119,208.318,0.148757
314.9000,2.44022,208.201,0.147086
314.8000,1.9632,208.709,0.154345
314.7000,0.140057,208.797,0.155607
314.6000,0.775999,208.447,0.150604
314.5000,0.702363,209.134,0.16041
314.4000,0.254894,208.554,0.152127
314.3000,1.109,208.303,0.148546
314.2000,1.60992,208.157,0.146454
314.1000,1.18578,208.114,0.145837
314.0000,1.25063,209.274,0.162413
313.9000,1.16474,208.716,0.154442
313.8000,0.0196666,208.091,0.145513
313.7000,1.35122,208.194,0.146989
313.6000,0.949877,209.199,0.161347
313.5000,1.08954,208.978,0.158195
313.4000,1.55461,207.675,0.139553
313.3000,1.12668,208.683,0.153973
313.2000,1.96139,206.531,0.1231
313.1000,0.546473,208.743,0.154831
313.0000,1.68287,208.491,0.151236
312.9000,-0.0348386,208.861,0.156513
312.8000,1.77074,207.41,0.135748
312.7000,3.00274,207.68,0.139618
312.6000,0.0672856,208.752,0.15496
312.5000,0.728804,208.481,0.15109
312.4000,0.866045,207.584,0.138236
312.3000,-0.328283,207.679,0.139602
312.2000,1.61173,209.563,0.166529
312.1000,0.993729,208.002,0.144231
312.0000,0.411212,208.602,0.152823
311.9000,0.253521,208.924,0.157419
311.8000,-0.123936,207.742,0.140512
311.7000,3.30364,207.818,0.1416
311.6000,1.60358,208.854,0.156416
311.5000,0.931695,208.532,0.151819
311.4000,0.29312,208.791,0.155526
311.3000,0.51104,207.927,0.143159
311.2000,-0.290815,208.53,0.151787
311.1000,2.43276,208.251,0.1478
311.0000,2.12907,208.261,0.147946
310.9000,0.267888,208.513,0.151544
310.8000,0.358411,208.585,0.15258
310.7000,1.37537,208.167,0.1466
310.6000,1.06184,208.482,0.151106
310.5000,-0.346882,208.966,0.158017
310.4000,1.35567,208.444,0.150555
310.3000,1.16952,208.523,0.15169
310.2000,3.42372,208.065,0.145139
310.1000,0.751193,208.341,0.149081
310.0000,2.21302,208.222,0.147378
309.9000,2.35205,208.772,0.155251
309.8000,0.511193,208.405,0.150004
309.7000,0.501573,208.673,0.153827
309.6000,1.71992,208.013,0.144393
309.5000,0.471956,208.267,0.148027
309.4000,2.68014,208.224,0.147411
309.3000,0.684793,207.884,0.142542
309.2000,2.06824,207.781,0.141064
309.1000,-0.624211,207.865,0.142266
309.0000,0.355269,208.336,0.149016
308.9000,1.5531,208.371,0.149518
308.8000,1.24748,208.739,0.154782
308.7000,1.69684,208.633,0.15326
308.6000,-1.41303,208.608,0.152904
308.5000,2.19521,208.929,0.157484
308.4000,1.67121,207.93,0.143208
308.3000,0.791909,209.278,0.162461
308.2000,1.1877,209.554,0.1664
308.1000,1.96456,208.097,0.145594
308.0000,0.675081,207.525,0.137391
307.9000,0.103405,208.47,0.150928
307.8000,-0.618031,208.251,0.1478
307.7000,2.37809,208.273,0.148108
307.6000,0.707514,207.818,0.1416
307.5000,1.62944,208.762,0.155106
307.4000,0.0612889,207.823,0.141665
307.3000,3.27809,207.64,0.139049
307.2000,2.08261,207.836,0.14186
307.1000,-0.220966,208.72,0.154507
307.0000,0.308623,207.601,0.13848
306.9000,2.02874,208.217,0.147313
306.8000,0.9871,208.087,0.145448
306.7000,0.645451,209.251,0.16209
306.6000,0.662929,208.122,0.145951
306.5000,0.545637,208.284,0.14827
306.4000,1.42165,208.461,0.150798
306.3000,0.432862,208.031,0.144653
306.2000,0.551837,207.402,0.135634
306.1000,1.00245,207.867,0.142299
306.0000,2.64496,208.626,0.153163
305.9000,1.57539,208.168,0.146616
305.8000,0.2751,207.756,0.140707
305.7000,0.683688,208.555,0.152143
305.6000,0.145812,207.631,0.138919
305.5000,-0.523159,208.137,0.146162
305.4000,0.0301321,208.233,0.14754
305.3000,1.09309,207.657,0.139293
305.2000,-1.08552,207.944,0.143403
305.1000,1.30429,208.21,0.147216
305.0000,2.21432,209.339,0.163333
304.9000,-0.0914462,208.384,0.149696
304.8000,0.937337,208.917,0.157322
304.7000,1.47891,208.972,0.158098
304.6000,1.99875,208.546,0.152013
304.5000,-1.15737,207.841,0.141925
304.4000,1.4445,207.621,0.138773
304.3000,0.415676,208.173,0.146681
304.2000,0.808376,208.319,0.148773
304.1000,1.69718,208.365,0.149437
304.0000,0.945864,208.285,0.148286
303.9000,0.0589487,207.843,0.141958
303.8000,0.570099,207.908,0.142883
303.7000,2.22829,208.543,0.151981
303.6000,0.959812,208.663,0.153698
303.5000,0.853899,208.398,0.149907
303.4000,-0.0630704,208.567,0.152321
303.3000,-0.208586,207.321,0.134462
303.2000,0.0387925,208.216,0.147297
303.1000,0.728511,207.247,0.133404
303.0000,0.607239,208.671,0.153811
302.9000,0.947167,208.143,0.146259
302.8000,1.67687,208.474,0.150993
302.7000,0.134685,207.979,0.143906
302.6000,-0.531566,207.673,0.13952
302.5000,-0.00155709,207.921,0.143078
302.4000,0.0996049,207.771,0.140918
302.3000,1.41767,208.067,0.145172
302.2000,-0.384132,209.008,0.158616
302.1000,1.86671,208.214,0.147265
302.0000,0.638487,207.678,0.139586
301.9000,1.87767,207.938,0.143322
301.8000,1.56954,207.998,0.144182
301.7000,3.80891,207.389,0.135439
301.6000,0.879862,208.064,0.145123
301.5000,0.906953,208.217,0.147313
301.4000,-0.536486,207.843,0.141958
301.3000,-0.064304,208.876,0.15674
301.2000,0.528999,208.339,0.149064
301.1000,1.25522,208.432,0.150393
301.0000,-0.111597,207.808,0.141454
300.9000,0.852886,207.471,0.136626
300.8000,1.5098,208.231,0.147508
300.7000,0.944425,207.89,0.142623
300.6000,-0.136948,207.633,0.138952
300.5000,1.07345,208.055,0.144993
300.4000,1.63852,208.33,0.148935
300.3000,1.21076,208.359,0.14934
300.2000,0.786711,208.209,0.1472
300.1000,0.722654,208.429,0.150345
300.0000,0.538568,207.451,0.136334
299.9000,2.51134,208.033,0.144685
299.8000,2.07387,207.605,0.138545
299.7000,2.10682,207.572,0.138074
299.6000,1.2909,207.754,0.140674
299.5000,1.25804,207.841,0.141925
299.4000,0.747649,207.304,0.134218
299.3000,1.20368,208.009,0.144328
299.2000,0.679524,208.301,0.148513
299.1000,0.613435,207.541,0.137618
299.0000,1.05652,207.765,0.140837
298.9000,0.661618,208.339,0.149064
298.8000,1.03905,207.474,0.136659
298.7000,0.389676,207.373,0.135211
298.6000,0.988587,207.419,0.135878
298.5000,0.45213,207.149,0.131988
298.4000,-0.165665,207.737,0.14043
298.3000,0.480006,207.743,0.140528
298.2000,0.637029,207.626,0.138838
298.1000,-0.0953302,208.018,0.144458
298.0000,0.207234,207.527,0.137423
297.9000,-1.43051,207.748,0.140593
297.8000,0.0816903,207.899,0.142753
297.7000,0.00293835,208.118,0.145902
297.6000,0.581554,207.713,0.140089
297.5000,-0.0621972,207.975,0.143841
297.4000,0.344946,207.712,0.140073
297.3000,0.338727,208.142,0.146243
297.2000,0.814168,207.735,0.140414
297.1000,1.70186,207.442,0.136203
297.0000,0.377848,208.046,0.144864
296.9000,1.18221,207.631,0.138919
296.8000,1.09728,208.465,0.150863
296.7000,-0.785099,206.966,0.129365
296.6000,1.18012,206.986,0.129658
296.5000,0.83975,207.834,0.141827
296.4000,1.31001,208.09,0.145496
296.3000,0.646146,207.22,0.133014
296.2000,1.55149,208.303,0.148546
296.1000,0.270561,207.298,0.134137
296.0000,1.28334,207.21,0.132867
295.9000,1.79619,206.973,0.129462
295.8000,0.636772,207.125,0.131646
295.7000,0.263878,207.393,0.135504
295.6000,0.216516,206.853,0.127734
295.5000,0.847542,207.085,0.131075
295.4000,0.99138,206.618,0.124358
295.3000,2.11407,207.06,0.130717
295.2000,1.31327,207.169,0.132281
295.1000,2.85122,207.513,0.137228
295.0000,1.57306,206.831,0.127424
294.9000,0.309677,207.091,0.131157
294.8000,1.56668,207.623,0.138805
294.7000,-1.19394,206.937,0.128941
294.6000,1.3801,207.213,0.132916
294.5000,-0.206449,207.212,0.132899
294.4000,1.00765,207.614,0.138675
294.3000,3.26357,208.108,0.145756
294.2000,1.0985,206.998,0.129821
294.1000,2.9776,207.477,0.136708
294.0000,1.01491,207.849,0.142039
293.9000,1.61559,207.763,0.140804
293.8000,1.18731,207.465,0.136529
293.7000,0.105439,206.974,0.129478
293.6000,1.33239,207.568,0.138009
293.5000,0.405195,207.509,0.137163
293.4000,0.785724,207.101,0.131304
293.3000,-0.457371,207.823,0.141665
293.2000,-0.19745,207.539,0.137602
293.1000,0.100139,207.967,0.143728
293.0000,0.0480042,207.09,0.131141
292.9000,-0.0440987,206.997,0.129804
292.8000,1.05525,208.175,0.146713
292.7000,1.63302,207.231,0.133176
292.6000,0.137879,207.41,0.135748
292.5000,1.18915,207.74,0.140479
292.4000,1.32383,207.053,0.130619
292.3000,1.81114,207.124,0.131629
292.2000,0.91793,207.504,0.137098
292.1000,1.39147,207.058,0.130684
292.0000,0.260919,206.688,0.125369
291.9000,1.66279,206.838,0.127522
291.8000,1.35466,206.308,0.119883
291.7000,0.622736,206.388,0.121043
291.6000,1.4363,206.036,0.115959
291.5000,0.242831,206.541,0.123247
291.4000,0.711528,207.2,0.13272
291.3000,2.50996,207.456,0.136398
291.2000,0.00701226,207.699,0.139894
291.1000,2.1691,206.082,0.116629
291.0000,1.49545,208.175,0.146713
290.9000,0.787477,206.196,0.118265
290.8000,2.26213,206.222,0.118641
290.7000,0.503585,206.526,0.123035
290.6000,0.726887,206.684,0.125304
290.5000,2.2293,206.338,0.120324
290.4000,-0.887798,206.23,0.118755
290.3000,0.708438,206.92,0.128696
290.2000,0.659695,206.129,0.1173
290.1000,0.194651,206.963,0.129315
290.0000,0.875017,206.932,0.128876
289.9000,1.09112,206.974,0.129478
289.8000,0.856355,206.264,0.119245
289.7000,0.357866,206.565,0.12359
289.6000,0.883074,205.418,0.107032
289.5000,-1.54564,207.26,0.133583
289.4000,0.883583,207.206,0.132818
289.3000,-0.153489,207.27,0.13373
289.2000,1.20386,206.056,0.116253
289.1000,0.294888,206.253,0.119098
289.0000,0.0869566,207.538,0.137586
288.9000,1.06645,207.45,0.136317
288.8000,-0.149965,206.745,0.126185
288.7000,0.211313,207.184,0.132492
288.6000,0.705585,207.718,0.140171
288.5000,0.414936,208.279,0.148205
288.4000,1.01135,207.674,0.139537
288.3000,1.19875,206.758,0.126364
288.2000,1.36076,205.895,0.11393
288.1000,1.82709,207.367,0.13513
288.0000,0.868682,207.108,0.131401
287.9000,0.842104,206.937,0.128941
287.8000,0.518692,207.589,0.138318
287.7000,2.26565,207.206,0.132818
287.6000,0.64146,207.324,0.134511
287.5000,0.509021,206.94,0.128989
287.4000,1.79562,206.857,0.1278
287.3000,0.0849465,206.109,0.117022
287.2000,0.167352,206.817,0.127213
287.1000,0.490612,206.809,0.127098
287.0000,0.312145,208.287,0.148319
286.9000,-0.440135,207.749,0.140609
286.8000,2.2585,206.675,0.125174
286.7000,1.63275,205.797,0.112506
286.6000,1.71709,207.161,0.132167
286.5000,0.321707,206.906,0.1285
286.4000,1.11111,207.611,0.138626
286.3000,1.69078,206.557,0.123476
286.2000,-0.121734,206.659,0.124945
286.1000,0.806294,206.525,0.123019
286.0000,0.297104,207.164,0.132216
285.9000,-0.349187,207.141,0.131874
285.8000,1.15413,207.39,0.135455
285.7000,1.95908,206.064,0.116368
285.6000,0.912099,207.458,0.136431
285.5000,1.11198,207.236,0.133242
285.4000,1.02745,206.812,0.127147
285.3000,1.31086,207.188,0.132557
285.2000,0.27757,206.591,0.123966
285.1000,-0.659916,206.388,0.121043
285.0000,0.881181,206.321,0.120079
284.9000,-0.0972437,207.441,0.136187
284.8000,2.29466,207.168,0.132265
284.7000,0.0521905,206.644,0.124733
284.6000,1.31859,205.988,0.115272
284.5000,-0.768913,207.06,0.130717
284.4000,-0.56528,206.865,0.127914
284.3000,-0.200724,206.724,0.125875
284.2000,-0.805095,207.173,0.132346
284.1000,0.59337,206.598,0.124064
284.0000,2.44297,206.699,0.125516
283.9000,0.776128,206.556,0.12346
283.8000,0.954262,206.403,0.121255
283.7000,1.25743,207.081,0.13101
283.6000,2.03573,206.783,0.126723
283.5000,-0.22565,207.287,0.133974
283.4000,2.36106,207.184,0.132492
283.3000,0.655962,206.843,0.127587
283.2000,2.09022,206.597,0.124047
283.1000,-1.07626,207.579,0.138171
283.0000,1.4427,206.869,0.127963
282.9000,1.61177,206.915,0.128631
282.8000,0.931447,206.9,0.128419
282.7000,1.1962,207.135,0.131792
282.6000,1.13074,206.428,0.121615
282.5000,0.2084,207.645,0.139114
282.4000,-0.154813,206.533,0.123133
282.3000,0.622284,207.113,0.131483
282.2000,0.247334,206.187,0.118134
282.1000,-0.241787,206.875,0.12806
282.0000,-0.709923,207.171,0.132313
281.9000,0.227487,206.853,0.127734
281.8000,1.09248,206.786,0.126772
281.7000,-0.368055,207.232,0.133193
281.6000,3.16585,207.062,0.13075
281.5000,0.57867,206.998,0.129821
281.4000,0.807122,207.059,0.130701
281.3000,-0.119897,206.854,0.127751
281.2000,0.611725,206.69,0.125385
281.1000,-0.566736,206.865,0.127914
281.0000,0.920838,206.962,0.129299
280.9000,-0.447228,207.21,0.132867
280.8000,1.76937,207.516,0.137261
280.7000,0.0854344,206.645,0.124749
280.6000,1.02486,207.16,0.13215
280.5000,1.16288,207.115,0.131499
280.4000,1.87818,207.476,0.136691
280.3000,1.47544,206.165,0.117823
280.2000,0.00790307,207.113,0.131483
280.1000,0.0388952,206.657,0.124912
280.0000,0.303698,206.853,0.127734
279.9000,0.260061,207.119,0.131564
279.8000,0.551362,207.041,0.13044
279.7000,1.13077,206.931,0.128859
279.6000,1.02846,207.177,0.132395
279.5000,0.4304,207.108,0.131401
279.4000,1.00501,206.896,0.128354
279.3000,-0.141916,207.618,0.138724
279.2000,-0.385639,207.27,0.13373
279.1000,-1.32532,206.704,0.125598
279.0000,1.9491,206.18,0.118036
278.9000,1.26019,206.936,0.128925
278.8000,0.224171,207.039,0.130408
278.7000,0.530095,207.475,0.136675
278.6000,0.343669,207.239,0.13329
278.5000,0.583803,206.736,0.126054
278.4000,-0.582541,206.804,0.127033
278.3000,0.126895,207.028,0.130261
278.2000,0.674513,206.999,0.129837
278.1000,-0.720645,206.992,0.129739
278.0000,-0.179912,207.086,0.131092
277.9000,2.1027,207.649,0.139179
277.8000,0.523866,206.703,0.125581
277.7000,-0.098537,206.737,0.126071
277.6000,0.815741,207.369,0.135162
277.5000,0.697929,207.338,0.134707
277.4000,0.611432,207.03,0.130277
277.3000,0.632449,207.134,0.131776
277.2000,-1.76237,206.545,0.123297
277.1000,1.61523,207.104,0.131352
277.0000,2.37314,207.154,0.132069
276.9000,0.711072,206.682,0.125271
276.8000,2.1747,206.792,0.126854
276.7000,1.11021,206.983,0.129609
276.6000,0.966923,207.334,0.134658
276.5000,1.47638,207.635,0.138968
276.4000,0.23574,207.119,0.131564
276.3000,0.0412567,207.058,0.130684
276.2000,0.146705,206.892,0.128305
276.1000,0.695923,207.524,0.137374
276.0000,0.285647,207.423,0.135927
275.9000,0.321595,206.947,0.129088
275.8000,-0.991271,206.499,0.122643
275.7000,-0.195746,206.373,0.12083
275.6000,0.68486,207.496,0.136984
275.5000,-0.486283,207.317,0.134413
275.4000,1.00467,206.805,0.12705
275.3000,-0.321443,207.214,0.132932
275.2000,-0.388369,206.08,0.116597
275.1000,1.60101,207.289,0.134007
275.0000,0.853347,206.953,0.129169
274.9000,1.36107,208.049,0.144912
274.8000,0.242217,207.077,0.130962
274.7000,1.32278,207.301,0.134186
274.6000,1.28808,207.071,0.13088
274.5000,1.52686,206.446,0.121876
274.4000,-2.1161,207.035,0.130359
274.3000,0.671242,207.095,0.131222
274.2000,2.08634,207.102,0.13132
274.1000,0.688574,207.502,0.137066
274.0000,1.88417,207.73,0.140333
273.9000,0.321437,207.117,0.131532
273.8000,1.43502,207.267,0.133697
273.7000,1.109,207.522,0.137358
273.6000,0.507545,206.82,0.127261
273.5000,1.19212,207.377,0.135276
273.4000,2.28843,207.139,0.131857
273.3000,0.834761,207.273,0.133779
273.2000,1.19744,207.264,0.133649
273.1000,-1.16046,207.377,0.135276
273.0000,-0.444644,207.223,0.133062
272.9000,0.128438,207.96,0.14363
272.8000,0.819664,207.592,0.13835
272.7000,1.37801,206.93,0.128843
272.6000,0.553472,208.016,0.144442
272.5000,0.243715,207.547,0.137716
272.4000,-0.416657,206.903,0.128452
272.3000,0.177273,206.858,0.127816
272.2000,1.18154,208.189,0.146908
272.1000,0.814915,207.657,0.139293
272.0000,0.106426,207.139,0.131857
271.9000,0.489494,207.057,0.130668
271.8000,-0.320164,207.682,0.13965
271.7000,0.571337,207.394,0.13552
271.6000,1.48451,207.792,0.141227
271.5000,-0.751772,207.928,0.143175
271.4000,0.412952,207.437,0.136138
271.3000,-0.267691,207.003,0.129902
271.2000,0.0117232,207.381,0.135325
271.1000,1.19914,207.977,0.143873
271.0000,1.26005,207.09,0.131141
270.9000,1.19409,207.541,0.137618
270.8000,-0.0895724,207.332,0.134625
270.7000,-0.375658,207.69,0.139764
270.6000,-1.15784,207.556,0.137846
270.5000,0.476701,207.612,0.138643
270.4000,-0.85137,207.493,0.136935
270.3000,-0.019502,207.419,0.135878
270.2000,0.529612,208.08,0.145351
270.1000,0.60242,207.901,0.142786
270.0000,-1.07541,207.236,0.133242
269.9000,3.55959,207.415,0.135813
269.8000,1.22101,208.049,0.144912
269.7000,1.11718,208.013,0.144393
269.6000,0.408139,207.816,0.141568
269.5000,0.298804,207.68,0.139618
269.4000,1.22734,207.861,0.142217
269.3000,2.07237,208.048,0.144896
269.2000,1.3454,207.891,0.14264
269.1000,0.837195,208.211,0.147232
269.0000,-0.00884151,207.772,0.140934
268.9000,0.199019,207.673,0.13952
268.8000,0.89551,207.655,0.13926
268.7000,0.264201,208.159,0.146486
268.6000,1.19616,208.514,0.15156
268.5000,-0.0702939,207.852,0.142087
268.4000,-1.09313,208.181,0.146794
268.3000,0.193314,207.941,0.143354
268.2000,0.568531,208.353,0.149259
268.1000,0.0670032,208.151,0.146372
268.0000,0.329216,208.512,0.151528
267.9000,0.94327,209.043,0.159117
267.8000,-0.39706,208.438,0.150474
267.7000,-1.09016,207.533,0.137505
267.6000,-0.258191,208.043,0.144815
267.5000,-0.542039,208.751,0.154944
267.4000,0.870028,207.762,0.140788
267.3000,0.820715,208.574,0.152418
267.2000,-0.588054,207.958,0.143598
267.1000,2.21072,208.895,0.156998
267.0000,0.0734303,208.424,0.15028
266.9000,-0.514089,209.247,0.162025
266.8000,-0.649466,208.431,0.150377
266.7000,1.21593,208.422,0.150248
266.6000,1.90178,209.136,0.160442
266.5000,1.48607,208.974,0.15813
266.4000,-0.438136,208.456,0.150734
266.3000,2.26218,208.808,0.155769
266.2000,-1.22951,208.965,0.158001
266.1000,0.706084,209.052,0.159246
266.0000,0.898621,209.595,0.166981
265.9000,1.99788,209.449,0.164899
265.8000,2.43792,208.94,0.157645
265.7000,-2.11431,208.696,0.154167
265.6000,0.645928,208.547,0.15203
265.5000,-0.222436,209.258,0.162187
265.4000,0.475017,209.253,0.162106
265.3000,-0.210109,209.273,0.162397
265.2000,-0.690876,208.348,0.149194
265.1000,-0.810341,208.482,0.151106
265.0000,0.538151,208.454,0.150701
264.9000,1.06722,208.827,0.156028
264.8000,1.53442,208.717,0.154458
264.7000,0.0155128,209.08,0.15965
264.6000,-1.12995,208.985,0.158292
264.5000,-0.49012,208.814,0.15585
264.4000,-1.03068,209.391,0.164076
264.3000,1.02344,208.019,0.144474
264.2000,0.797944,209.793,0.169802
264.1000,-0.493398,209.094,0.159844
264.0000,-2.1622,208.965,0.158001
263.9000,0.104249,209.824,0.170237
263.8000,0.111038,209.433,0.164673
263.7000,0.504274,209.406,0.164286
263.6000,0.656723,208.871,0.156659
263.5000,1.38166,209.207,0.16146
263.4000,0.816849,209.106,0.160022
263.3000,0.495795,209.071,0.159521
263.2000,0.0571772,208.972,0.158098
263.1000,-0.678726,209.3,0.162784
263.0000,-1.11343,209.478,0.165319
262.9000,0.689339,208.808,0.155769
262.8000,0.00589286,209.576,0.166707
262.7000,0.638183,209.501,0.165641
262.6000,-0.862915,209.282,0.162526
262.5000,-1.27453,208.955,0.157856
262.4000,-1.30504,209.288,0.162607
262.3000,0.604579,210.04,0.173314
262.2000,-1.06377,209.101,0.159941
262.1000,1.15433,209.463,0.165109
262.0000,2.06857,209.972,0.172348
261.9000,0.0988426,208.952,0.157824
261.8000,0.431264,209.578,0.166739
261.7000,-1.20155,209.688,0.168303
261.6000,-0.37342,209.656,0.167852
261.5000,0.312173,209.896,0.171269
261.4000,-1.14511,210.108,0.17428
261.3000,-3.06502,210.079,0.173861
261.2000,0.39846,210.124,0.174505
261.1000,-0.0671442,209.347,0.163446
261.0000,-0.109941,210.406,0.178511
260.9000,0.174925,210.17,0.175166
260.8000,-2.26733,209.748,0.169158
260.7000,-1.14132,209.862,0.170785
260.6000,0.743571,210.285,0.176791
260.5000,-0.366075,210.314,0.177209
260.4000,0.0740473,209.905,0.171398
260.3000,-0.246049,210.638,0.181806
260.2000,-0.0432253,210.389,0.17827
260.1000,2.72541,210.985,0.186718
260.0000,-0.534169,210.073,0.173781
259.9000,1.37908,210.074,0.173797
259.8000,-0.743347,210.394,0.178335
259.7000,0.38565,210.413,0.178608
259.6000,1.47508,210.28,0.176726
259.5000,-0.228009,211.012,0.187103
259.4000,0.304623,210.599,0.181244
259.3000,0.482016,210.749,0.18338
259.2000,-0.406989,210.39,0.178286
259.1000,0.110157,211.199,0.189749
259.0000,-0.313804,210.922,0.18582
258.9000,1.33909,210.575,0.180906
258.8000,-1.13334,211.089,0.188194
258.7000,-0.611681,210.757,0.183492
258.6000,0.256475,210.368,0.177965
258.5000,-1.37711,211.807,0.19833
258.4000,1.54725,211.74,0.197387
258.3000,0.532441,210.934,0.185996
258.2000,0.400839,210.976,0.18659
258.1000,1.11935,210.654,0.182031
258.0000,0.411093,210.843,0.184712
257.9000,0.79822,211.36,0.192025
257.8000,0.662486,210.482,0.179589
257.7000,0.83142,211.365,0.192088
257.6000,0.874523,211.623,0.195739
257.5000,0.355019,211.213,0.189942
257.4000,0.752388,210.953,0.186269
257.3000,0.313636,210.864,0.185001
257.2000,-0.0395567,210.578,0.180955
257.1000,-0.216578,211.667,0.196363
257.0000,0.518548,211.839,0.198794
256.9000,0.144678,211.545,0.194635
256.8000,-2.63132,211.647,0.196075
256.7000,-1.22993,211.997,0.201016
256.6000,1.08993,212.004,0.201112
256.5000,0.282969,211.084,0.188114
256.4000,0.668383,212.075,0.202119
256.3000,0.300717,211.681,0.196555
256.2000,0.818923,211.313,0.191352
256.1000,-1.182,211.64,0.195979
256.0000,1.20325,211.446,0.193242
255.9000,0.984627,211.854,0.199002
255.8000,0.684135,211.614,0.195611
255.7000,0.396451,212.27,0.204865
255.6000,0.0812826,211.735,0.197323
255.5000,0.585118,212.301,0.205296
255.4000,-0.657069,211.861,0.199098
255.3000,0.209749,211.411,0.192745
255.2000,-0.247462,212.026,0.201431
255.1000,1.2547,211.294,0.191095
255.0000,0.18948,212.115,0.202678
254.9000,-0.00458388,212.474,0.207737
254.8000,1.23895,211.204,0.189813
254.7000,-0.233489,211.561,0.194859
254.6000,0.051542,211.672,0.196427
254.5000,1.06532,212.136,0.202981
254.4000,1.75402,211.683,0.196587
254.3000,-0.133163,212.08,0.202183
254.2000,0.662564,212.244,0.204498
254.1000,0.838745,212.243,0.204482
254.0000,-0.932498,212.12,0.202758
253.9000,1.07309,212.716,0.211149
253.8000,-0.231957,212.183,0.203636
253.7000,0.347382,211.984,0.20084
253.6000,0.201382,211.592,0.195307
253.5000,-0.619361,212.553,0.208853
253.4000,-1.98373,212.213,0.204067
253.3000,0.73651,211.928,0.200041
253.2000,1.00706,212.739,0.211468
253.1000,0.247495,212.667,0.210448
253.0000,0.211512,212.567,0.209045
252.9000,2.1077,211.649,0.196107
252.8000,-0.329478,213.03,0.21556
252.7000,0.0716073,212.731,0.211356
252.6000,-0.289803,212.877,0.213411
252.5000,-0.228665,212.807,0.212423
252.4000,0.199423,212.082,0.202214
252.3000,0.168886,212.083,0.20223
252.2000,-0.708737,213.104,0.216594
252.1000,-1.32485,212.882,0.213475
252.0000,-0.164607,212.497,0.208056
251.9000,0.538242,212.571,0.209109
251.8000,-0.272045,213.164,0.217438
251.7000,0.189385,213.522,0.222461
251.6000,0.112521,212.625,0.209858
251.5000,-0.932353,213.057,0.215942
251.4000,0.219783,213.485,0.221937
251.3000,-0.533611,213.478,0.221841
251.2000,-0.209953,213.584,0.223335
251.1000,-1.01426,212.619,0.209778
251.0000,1.6833,214.063,0.230031
250.9000,0.984581,213.873,0.227382
250.8000,0.59207,212.813,0.212503
250.7000,0.123464,213.442,0.221333
250.6000,0.341984,213.719,0.225224
250.5000,0.162423,213.582,0.223303
250.4000,-0.605299,213.086,0.21634
250.3000,0.14461,213.76,0.225795
250.2000,1.22821,213.301,0.219362
250.1000,0.098655,213.597,0.223509
250.0000,0.091353,214.053,0.229904
249.9000,-0.274639,213.499,0.222143
249.8000,0.941144,213.917,0.228001
249.7000,0.896376,214.177,0.231631
249.6000,0.349216,213.932,0.228207
249.5000,0.554717,213.889,0.227604
249.4000,1.39559,213.581,0.223287
249.3000,0.733946,213.006,0.215226
249.2000,2.14696,213.613,0.223732
249.1000,2.77697,213.233,0.218408
249.0000,1.53791,214.113,0.230744
248.9000,-0.482334,214.302,0.233374
248.8000,1.88747,213.087,0.216356
248.7000,2.15318,214.113,0.230744
248.6000,1.98494,213.8,0.226351
248.5000,0.0384243,214.049,0.22984
248.4000,0.721631,213.987,0.228968
248.3000,0.106559,213.928,0.228144
248.2000,0.00188035,213.733,0.225414
248.1000,0.608879,213.988,0.228984
248.0000,2.2935,214.562,0.237015
247.9000,0.92606,213.975,0.22881
247.8000,-0.820438,213.958,0.228572
247.7000,0.71728,213.847,0.227017
247.6000,-0.88092,214.526,0.236508
247.5000,-0.59225,214.181,0.231695
247.4000,1.36056,214.266,0.232883
247.3000,0.881399,214.072,0.230157
247.2000,-1.19713,215.173,0.245533
247.1000,0.102268,214.95,0.242422
247.0000,0.457832,215.346,0.247947
246.9000,-0.457061,214.208,0.232059
246.8000,-0.199103,214.484,0.235923
246.7000,1.5529,215.452,0.249414
246.6000,0.282847,214.535,0.236635
246.5000,1.11385,214.894,0.241647
246.4000,0.880477,215.649,0.252157
246.3000,-1.22717,214.157,0.231346
246.2000,0.113671,213.973,0.228778
246.1000,0.189583,215.196,0.245849
246.0000,0.646682,215.274,0.246937
245.9000,0.496438,214.789,0.240178
245.8000,-0.506447,215.063,0.244001
245.7000,0.144274,214.678,0.238628
245.6000,-0.28829,215.143,0.245122
245.5000,-0.586952,214.785,0.24013
245.4000,0.557191,215.276,0.246969
245.3000,-1.24116,215.271,0.246906
245.2000,0.535337,215.08,0.244238
245.1000,0.218526,215.188,0.245738
245.0000,-1.262,214.9,0.241726
244.9000,-0.311292,215.231,0.246338
244.8000,-0.355061,214.468,0.235701
244.7000,-1.15165,215.665,0.252377
244.6000,-0.216896,215.486,0.249887
244.5000,0.885604,215.776,0.253921
244.4000,0.938141,216.051,0.257746
244.3000,-1.48119,215.993,0.256943
244.2000,1.99227,215.607,0.251573
244.1000,0.0952265,215.862,0.255117
244.0000,1.1812,215.889,0.255495
243.9000,-1.43592,216.001,0.257053
243.8000,-0.58017,215.925,0.255999
243.7000,-0.507138,215.745,0.253496
243.6000,2.1431,216.312,0.261362
243.5000,-0.620734,216.04,0.257588
243.4000,2.0112,215.824,0.254598
243.3000,0.865262,215.708,0.252976
243.2000,1.61667,216.551,0.264677
243.1000,-1.11563,216.252,0.260529
243.0000,0.477883,216.258,0.260623
242.9000,2.75415,216.613,0.26554
242.8000,-0.701162,216.398,0.262557
242.7000,-0.105009,217.055,0.271658
242.6000,-1.00751,216.602,0.265383
242.5000,0.17729,216.551,0.264677
242.4000,-0.450705,216.871,0.269118
242.3000,-0.172433,216.403,0.262635
242.2000,0.702002,215.809,0.254377
242.1000,0.188945,216.577,0.265038
242.0000,-1.58721,217.563,0.278672
241.9000,1.35995,216.274,0.260844
241.8000,-0.243669,216.896,0.269463
241.7000,0.438036,216.58,0.265085
241.6000,1.10838,216.729,0.267141
241.5000,1.8429,217.01,0.271031
241.4000,1.25604,217.402,0.27645
241.3000,-2.14502,217.063,0.271767
241.2000,0.85491,217.028,0.271282
241.1000,0.204528,217.991,0.28458
241.0000,0.77308,217.148,0.272943
240.9000,-0.182461,217.202,0.273695
240.8000,0.0920416,217.133,0.272739
240.7000,-1.82275,217.151,0.27299
240.6000,-0.816679,217.663,0.280064
240.5000,1.75634,217.237,0.27418
240.4000,0.744354,217.249,0.274337
240.3000,0.279644,217.439,0.276967
240.2000,0.322271,217.606,0.279266
240.1000,-0.597605,218.385,0.290011
240.0000,1.82625,217.924,0.283658
239.9000,0.0131895,218.346,0.289465
239.8000,2.65112,218.738,0.294857
239.7000,-1.15738,218.007,0.284799
239.6000,0.539865,218.451,0.290915
239.5000,1.22539,218.187,0.287281
239.4000,-1.30497,218.634,0.29344
239.3000,-0.250906,217.833,0.282409
239.2000,0.390361,217.884,0.283112
239.1000,-1.11533,218.815,0.295916
239.0000,0.13039,218.424,0.290541
238.9000,0.521076,219.403,0.303987
238.8000,-1.35375,217.959,0.284143
238.7000,0.541784,219.253,0.301936
238.6000,1.01127,218.912,0.297254
238.5000,-1.00265,218.774,0.295355
238.4000,-0.444682,219.281,0.302324
238.3000,0.29444,219.429,0.304344
238.2000,0.279135,219.709,0.308178
238.1000,-0.929351,219.107,0.29993
238.0000,0.744833,219.296,0.302526
237.9000,0.140532,219.361,0.303412
237.8000,2.80985,219.653,0.307418
237.7000,-0.602489,219.727,0.308427
237.6000,0.236678,219.028,0.298841
237.5000,-0.43338,219.466,0.304856
237.4000,-1.18313,220.708,0.321838
237.3000,0.395832,219.596,0.306642
237.2000,-0.0938707,220.002,0.312195
237.1000,1.28985,219.973,0.311792
237.0000,0.564366,220.536,0.319488
236.9000,-0.421895,220.539,0.319534
236.8000,1.99939,220.935,0.324928
236.7000,1.34706,220.096,0.313481
236.6000,0.427075,220.668,0.321297
236.5000,-0.70563,219.971,0.311776
236.4000,1.40767,220.947,0.325098
236.3000,0.85874,221.101,0.327198
236.2000,-1.12011,220.51,0.319132
236.1000,1.26052,220.649,0.321034
236.0000,0.156682,220.507,0.319101
235.9000,-0.373632,221.538,0.333151
235.8000,0.184455,221.619,0.334245
235.7000,-0.954594,220.819,0.323352
235.6000,0.160068,221.701,0.335354
235.5000,-0.78807,221.498,0.332596
235.4000,1.12316,221.614,0.334184
235.3000,0.1779,221.341,0.330469
235.2000,1.11053,221.511,0.332781
235.1000,1.79396,221.604,0.334045
235.0000,-0.19299,221.391,0.331147
234.9000,1.03563,221.568,0.333552
234.8000,-1.24969,221.651,0.334676
234.7000,1.04764,221.337,0.330407
234.6000,-0.320877,222.055,0.340171
234.5000,-0.0716721,221.937,0.338572
234.4000,0.583714,221.997,0.339387
234.3000,0.641648,223.031,0.353391
234.2000,2.42281,221.695,0.335277
234.1000,1.57349,222.481,0.34595
234.0000,0.800232,222.601,0.347578
233.9000,1.15573,222.623,0.347869
233.8000,2.25274,223.227,0.356041
233.7000,1.05072,223.011,0.35313
233.6000,-1.33895,223.008,0.353084
233.5000,0.961824,222.651,0.348253
233.4000,0.0343844,222.383,0.344614
233.3000,-0.642425,222.894,0.351535
233.2000,0.645002,223.128,0.354708
233.1000,-1.08653,222.486,0.346011
233.0000,-0.517153,223.622,0.361381
232.9000,-0.892451,223.357,0.357801
232.8000,1.66801,223.434,0.358842
232.7000,-1.14218,223.552,0.360433
232.6000,0.507807,223.717,0.362666
232.5000,0.713853,225.086,0.381085
232.4000,0.192491,223.816,0.363995
232.3000,0.63766,223.771,0.363384
232.2000,-1.26366,224.188,0.369004
232.1000,1.29198,223.431,0.358796
232.0000,1.25089,224.201,0.369187
231.9000,1.52909,224.729,0.376291
231.8000,1.5946,224.718,0.376139
231.7000,1.1776,224.662,0.375393
231.6000,-0.544552,225.25,0.38329
231.5000,-0.416267,225.022,0.380218
231.4000,-0.205909,224.593,0.374463
231.3000,1.908,224.224,0.369492
231.2000,-0.229524,225.163,0.382119
231.1000,1.78126,224.159,0.368623
231.0000,-0.900655,225.535,0.387103
230.9000,1.00381,225.051,0.380614
230.8000,1.11649,226.166,0.395552
230.7000,0.697258,225.611,0.388121
230.6000,0.595923,225.007,0.38002
230.5000,2.93072,225.576,0.38765
230.4000,-0.770497,225.705,0.389381
230.3000,0.901886,224.796,0.377189
230.2000,-0.0476926,225.835,0.391125
230.1000,-0.489397,225.695,0.389244
230.0000,1.37084,225.997,0.393293
229.9000,2.65895,225.29,0.383822
229.8000,1.92308,225.214,0.382804
229.7000,1.55344,226.712,0.402846
229.6000,2.64582,225.661,0.388789
229.5000,0.864992,225.486,0.38645
229.4000,-0.55434,226.37,0.398277
229.3000,-0.570974,225.967,0.392884
229.2000,-1.45329,226.54,0.400548
229.1000,1.9011,226.762,0.403512
229.0000,0.559737,225.742,0.389881
228.9000,-3.2422,226.802,0.404041
228.8000,0.51155,227.659,0.415465
228.7000,2.10808,227.429,0.412405
228.6000,0.0210704,227.161,0.408829
228.5000,1.08105,227.135,0.408482
228.4000,0.191346,227.732,0.416429
228.3000,-0.682279,227.186,0.409161
228.2000,-1.51127,227.613,0.414847
228.1000,2.11791,227.737,0.416504
228.0000,-0.343861,227.541,0.413897
227.9000,1.82485,228.502,0.426658
227.8000,2.64813,227.598,0.414651
227.7000,0.653612,228.647,0.42858
227.6000,1.6976,227.74,0.416534
227.5000,0.277216,228.712,0.429436
227.4000,1.44171,228.784,0.430396
227.3000,0.786882,228.539,0.427139
227.2000,0.535469,229.056,0.433996
227.1000,0.828504,228.45,0.425967
227.0000,1.73554,229.319,0.437473
226.9000,-0.132394,229.37,0.438147
226.8000,-1.00227,228.66,0.428745
226.7000,0.302193,228.84,0.431132
226.6000,-0.604574,228.816,0.430817
226.5000,0.966013,228.822,0.430892
226.4000,0.692421,229.953,0.445836
226.3000,0.807047,229.436,0.439015
226.2000,0.207515,229.301,0.437233
226.1000,0.333602,228.46,0.426102
226.0000,1.72458,229.266,0.436769
225.9000,-0.637348,230.033,0.446897
225.8000,-1.27106,230.266,0.449973
225.7000,2.99351,231.143,0.461508
225.6000,-2.51658,231.145,0.461523
225.5000,0.17871,229.899,0.445133
225.4000,0.72878,230.208,0.449196
225.3000,-0.0773335,229.973,0.446105
225.2000,1.47159,229.864,0.44467
225.1000,0.513005,230.431,0.452137
225.0000,2.74209,231.521,0.46646
224.9000,0.690311,231.323,0.463858
224.8000,2.7318,230.231,0.44951
224.7000,0.377687,231.563,0.46701
224.6000,0.912868,230.681,0.455432
224.5000,0.0546827,231.405,0.464944
224.4000,0.348266,232.212,0.475513
224.3000,0.819134,231.031,0.460035
224.2000,4.24444,231.487,0.466014
224.1000,-0.234477,231.911,0.471568
224.0000,0.702786,232.366,0.477528
223.9000,0.367436,232.255,0.476076
223.8000,-0.597499,231.911,0.471568
223.7000,2.39008,232.707,0.481985
223.6000,1.0525,233.423,0.491325
223.5000,-0.717763,232.513,0.479454
223.4000,-0.35874,232.806,0.483272
223.3000,0.615841,233.495,0.492255
223.2000,1.08349,232.837,0.483687
223.1000,0.392313,234.11,0.500259
223.0000,0.318797,233.253,0.489111
222.9000,0.705438,232.826,0.483539
222.8000,0.55117,232.8,0.483198
222.7000,2.76879,233.253,0.489111
222.6000,0.932433,233.413,0.491192
222.5000,2.01528,234.297,0.502687
222.4000,1.66028,232.975,0.485476
222.3000,0.271729,233.686,0.494748
222.2000,-2.29212,232.972,0.485446
222.1000,0.074226,234.008,0.498933
222.0000,2.28113,233.138,0.487604
221.9000,1.94278,233.907,0.497622
221.8000,0.378999,234.241,0.501966
221.7000,1.38106,234.806,0.509288
221.6000,-1.2694,234.336,0.503202
221.5000,1.84395,235.002,0.511829
221.4000,2.03721,234.502,0.50535
221.3000,0.766064,234.432,0.504438
221.2000,-0.592161,234.494,0.505247
221.1000,1.28085,235.029,0.512181
221.0000,-1.12256,235.096,0.513046
220.9000,2.87264,234.898,0.510492
220.8000,-0.484514,235.436,0.517446
220.7000,3.24706,236.412,0.530057
220.6000,1.79164,235.854,0.52285
220.5000,2.01696,236.416,0.530101
220.4000,-2.11008,235.139,0.513604
220.3000,-0.895472,235.949,0.524079
220.2000,1.79248,236.035,0.52519
220.1000,1.61784,235.291,0.51557
220.0000,-0.0739552,236.13,0.526419
219.9000,1.3271,236.029,0.525117
219.8000,-0.716649,236.672,0.5334
219.7000,0.129524,236.225,0.527647
219.6000,2.34435,235.91,0.523581
219.5000,0.573738,236.063,0.525556
219.4000,-1.31153,236.526,0.531518
219.3000,-0.725537,236.973,0.53728
219.2000,0.165941,237.788,0.547746
219.1000,-1.25923,237.451,0.543426
219.0000,2.04383,237.187,0.540034
218.9000,-0.340839,237.095,0.538854
218.8000,0.350266,236.96,0.537105
218.7000,0.934364,237.327,0.541825
218.6000,2.69398,237.86,0.548676
218.5000,0.0277555,237.724,0.546932
218.4000,2.62943,238.196,0.552975
218.3000,1.69017,237.842,0.548443
218.2000,1.41953,238.138,0.552234
218.1000,1.39306,237.901,0.549199
218.0000,0.588861,237.262,0.540995
217.9000,0.403247,237.629,0.54571
217.8000,-1.05158,238.365,0.555137
217.7000,-1.88824,238.691,0.559313
217.6000,0.75576,238.365,0.555137
217.5000,1.34361,239.126,0.564873
217.4000,0.951102,238.633,0.558574
217.3000,2.31576,239.04,0.563773
217.2000,1.1116,239.057,0.56399
217.1000,2.93348,240.02,0.57627
217.0000,2.51535,240.03,0.5764
216.9000,3.02103,239.255,0.566521
216.8000,-0.871393,240.2,0.578563
216.7000,3.95738,240.078,0.577006
216.6000,0.860059,238.925,0.562311
216.5000,-0.233059,239.435,0.56882
216.4000,-0.0691411,239.791,0.573356
216.3000,0.250885,239.895,0.574683
216.2000,3.09523,239.98,0.575765
216.1000,2.11941,240.5,0.582381
216.0000,-3.22161,240.017,0.576227
215.9000,1.3674,240.631,0.584037
215.8000,2.45842,239.833,0.57389
215.7000,2.80883,241.065,0.589545
215.6000,2.51988,239.555,0.570352
215.5000,-0.0937688,241.248,0.591873
215.4000,-4.51136,241.726,0.597929
215.3000,3.56183,240.671,0.584555
215.2000,0.452093,241.041,0.589243
215.1000,3.34808,241.563,0.595864
215.0000,1.50552,241.409,0.593912
214.9000,2.11138,240.85,0.586828
214.8000,1.16623,240.884,0.587259
214.7000,0.221045,241.599,0.596323
214.6000,0.818419,241.584,0.596122
214.5000,0.0872221,241.571,0.595964
214.4000,1.17084,241.536,0.595519
214.3000,2.31036,241.708,0.597699
214.2000,2.13335,241.639,0.596825
214.1000,1.75323,241.707,0.597685
214.0000,1.84302,242.964,0.613555
213.9000,1.80394,242.092,0.602558
213.8000,1.57334,242.424,0.606752
213.7000,-0.814152,242.521,0.607967
213.6000,0.966468,243.256,0.617237
213.5000,0.831975,243.177,0.616238
213.4000,1.34239,242.56,0.608468
213.3000,-0.0377588,242.515,0.607896
213.2000,0.484654,242.651,0.609612
213.1000,-1.07906,243.057,0.614725
213.0000,3.25665,243.526,0.62063
212.9000,2.35497,243.639,0.622055
212.8000,1.49022,242.309,0.605292
212.7000,0.456894,243.62,0.621813
212.6000,1.28595,243.728,0.62318
212.5000,1.48444,243.834,0.624505
212.4000,-0.076402,244.668,0.634968
212.3000,-0.226226,243.663,0.622354
212.2000,1.18651,244.323,0.63065
212.1000,1.41012,244.634,0.634542
212.0000,-0.988964,244.192,0.629001
211.9000,0.944381,244.334,0.630778
211.8000,0.342007,244.68,0.635124
211.7000,1.95198,244.402,0.631631
211.6000,-0.0994274,244.885,0.637693
211.5000,0.188552,245.302,0.64291
211.4000,0.703346,244.735,0.635806
211.3000,0.892188,245.018,0.639353
211.2000,1.6604,245.369,0.643746
211.1000,-0.124276,245.428,0.644482
211.0000,1.249,245.729,0.648247
210.9000,0.0670633,245.2,0.641635
210.8000,0.734101,246.101,0.652884
210.7000,0.706672,245.446,0.644709
210.6000,-0.581387,246.254,0.654791
210.5000,0.935664,246.184,0.653915
210.4000,0.847618,246.847,0.662168
210.3000,-0.549651,246.752,0.660985
210.2000,3.16876,246.271,0.655002
210.1000,1.20233,246.24,0.654621
210.0000,0.129409,246.783,0.661379
209.9000,-0.0580056,247.176,0.666267
209.8000,0.0418769,248.183,0.678747
209.7000,3.48011,246.379,0.656344
209.6000,-0.608982,246.911,0.662972
209.5000,0.989952,247.459,0.669771
209.4000,-0.627533,247.657,0.672231
209.3000,-2.38974,247.762,0.673538
209.2000,-0.109134,248.513,0.682842
209.1000,-1.39245,247.233,0.666971
209.0000,1.09504,248.737,0.685601
208.9000,0.859623,248.074,0.6774
208.8000,2.68731,248.799,0.686371
208.7000,-0.210335,248.706,0.685223
208.6000,0.283905,248.27,0.679827
208.5000,-0.108549,249.356,0.693254
208.4000,-0.209222,248.72,0.685391
208.3000,0.822992,249.107,0.690178
208.2000,0.413927,249.126,0.690416
208.1000,4.15714,248.836,0.686834
208.0000,0.631159,250.351,0.705504
207.9000,2.40978,250.225,0.703957
207.8000,0.529912,250.305,0.704933
207.7000,-0.00229937,250.505,0.707398
207.6000,0.0607104,251.472,0.719255
207.5000,1.43141,250.998,0.713449
207.4000,1.09466,250.563,0.708108
207.3000,2.09161,250.156,0.703107
207.2000,2.53133,250.872,0.711906
207.1000,1.25334,251.289,0.71702
207.0000,4.05644,251.568,0.720434
206.9000,-0.569556,250.834,0.711433
206.8000,2.01882,251.322,0.717422
206.7000,2.8159,251.812,0.723416
206.6000,-0.211905,251.697,0.722015
206.5000,-2.41223,252.274,0.729067
206.4000,-0.350224,252.638,0.733508
206.3000,-0.191113,252.835,0.735912
206.2000,0.117399,253.166,0.739944
206.1000,0.264199,253.201,0.740372
206.0000,-2.06392,253.426,0.743117
205.9000,2.5407,253.065,0.738716
205.8000,0.877307,253.97,0.74973
205.7000,0.64062,253.235,0.740786
205.6000,-0.344345,253.124,0.739434
205.5000,-1.89469,253.617,0.745433
205.4000,0.173812,253.901,0.748891
205.3000,0.336093,254.092,0.751203
205.2000,1.61118,254.813,0.759957
205.1000,-0.30925,255.251,0.765252
205.0000,1.76254,254.676,0.758296
204.9000,3.85711,255.351,0.766472
204.8000,2.65584,254.967,0.761824
204.7000,0.751453,255.706,0.770758
204.6000,0.214725,256.082,0.7753
204.5000,3.19106,255.937,0.773549
204.4000,-0.0646499,256.479,0.780082
204.3000,0.462325,255.966,0.773891
204.2000,1.05934,256.523,0.780614
204.1000,0.972545,256.894,0.785075
204.0000,-0.428116,257.55,0.792961
203.9000,2.47164,258.373,0.80284
203.8000,0.674459,257.358,0.790661
203.7000,1.2322,258.064,0.799133
203.6000,-2.06593,257.876,0.796878
203.5000,1.17523,258.055,0.799025
203.4000,1.78969,258.321,0.802216
203.3000,0.574611,258.711,0.806882
203.2000,-2.40611,258.441,0.803654
203.1000,-0.16598,258.529,0.804698
203.0000,0.484449,258.907,0.809226
202.9000,1.8255,259.043,0.810851
202.8000,0.886798,259.401,0.815127
202.7000,-1.59558,259.446,0.815668
202.6000,1.88722,260.251,0.825258
202.5000,3.37531,260.153,0.824098
202.4000,0.0361764,260.939,0.833437
202.3000,1.62944,259.863,0.820642
202.2000,1.19172,260.991,0.834056
202.1000,1.3014,261.103,0.835388
202.0000,-0.70733,261.784,0.843464
201.9000,0.786825,261.846,0.844202
201.8000,1.17851,262.687,0.854147
201.7000,-0.593221,262.519,0.852165
201.6000,0.818734,262.157,0.847878
201.5000,3.26573,262.674,0.854
201.4000,-0.200401,263.767,0.866881
201.3000,3.32757,263.247,0.860753
201.2000,2.24764,262.923,0.85693
201.1000,3.72124,264.061,0.870348
201.0000,-1.58433,263.568,0.864546
200.9000,0.308862,264.296,0.873105
200.8000,3.49202,264.927,0.880516
200.7000,2.49133,265.055,0.882017
200.6000,1.8872,265.385,0.885882
200.5000,-2.17467,265.69,0.88945
200.4000,-1.09196,266.016,0.893267
200.3000,-0.637246,265.94,0.892379
200.2000,-2.09365,266.104,0.8943
200.1000,1.1251,266.393,0.897675
200.0000,-2.72409,267.47,0.910223
199.9000,0.669441,267.816,0.914255
199.8000,-0.501712,267.936,0.915651
199.7000,3.69388,268.068,0.917178
199.6000,-0.698486,268.319,0.920099
199.5000,1.94846,267.885,0.915059
199.4000,1.00681,268.605,0.923412
199.3000,2.4071,268.84,0.926131
199.2000,-2.82373,269.462,0.933332
199.1000,0.877563,269.624,0.935206
199.0000,1.97934,269.252,0.930907
198.9000,3.27875,269.246,0.930842
198.8000,1.37931,269.964,0.939134
198.7000,-1.20337,270.677,0.947368
198.6000,1.08145,270.882,0.94973
198.5000,-2.04717,271.716,0.959321
198.4000,0.331036,271.61,0.958098
198.3000,2.36085,271.259,0.95406
198.2000,5.92223,271.429,0.956014
198.1000,-0.225916,272.104,0.96377
198.0000,2.26364,272.498,0.968291
197.9000,0.322364,272.571,0.969122
197.8000,-0.240583,272.528,0.968628
197.7000,0.684404,272.771,0.971418
197.6000,0.0969147,273.11,0.975295
197.5000,-0.723064,273.332,0.977835
197.4000,-2.19588,273.093,0.975101
197.3000,0.557438,273.964,0.985054
197.2000,0.785024,274.516,0.991344
197.1000,-0.851604,274.597,0.99226
197.0000,-1.79787,275.171,0.998795
196.9000,-1.56137,274.95,0.996283
196.8000,6.07257,276.022,1.00845
196.7000,-0.740857,276.028,1.00852
196.6000,0.846819,275.069,0.997636
196.5000,-0.0898874,276.172,1.01015
196.4000,0.110784,277.064,1.02025
196.3000,0.213332,277.137,1.02107
196.2000,-0.138285,277.109,1.02075
196.1000,1.70481,277.26,1.02247
196.0000,-0.123935,278.509,1.03655
195.9000,0.390619,278.977,1.04181
195.8000,2.938,279.667,1.04955
195.7000,0.231633,278.773,1.03952
195.6000,1.50875,279.358,1.04608
195.5000,0.937958,278.959,1.0416
195.4000,1.50031,280.016,1.05347
195.3000,0.914648,280.328,1.05696
195.2000,1.76408,281.424,1.06921
195.1000,-0.223416,281.809,1.07349
195.0000,0.248938,281.474,1.06977
194.9000,0.902489,282.231,1.0782
194.8000,-1.0772,282.468,1.08084
194.7000,-0.641678,282.897,1.08561
194.6000,-2.06587,283.535,1.09269
194.5000,-1.45101,283.447,1.09171
194.4000,0.990823,283.785,1.09545
194.3000,-1.75684,284.433,1.10262
194.2000,3.613,285.472,1.1141
194.1000,3.21518,285.506,1.11447
194.0000,-2.04143,286.282,1.12302
193.9000,4.4746,287.081,1.13179
193.8000,3.31495,287.875,1.1405
193.7000,4.59803,289.276,1.1558
193.6000,0.130224,288.937,1.1521
193.5000,4.53932,289.492,1.15816
193.4000,-2.70813,290.396,1.168
193.3000,3.04858,290.345,1.16744
193.2000,1.31311,291.237,1.17712
193.1000,-1.73028,291.681,1.18194
193.0000,-2.27251,292.623,1.19212
192.9000,-0.106669,292.006,1.18546
192.8000,-3.36653,293.829,1.20513
192.7000,1.39571,293.928,1.20619
192.6000,0.905601,295.573,1.22385
192.5000,5.51937,295.472,1.22277
192.4000,1.36365,296.969,1.23877
192.3000,2.7138,298.436,1.25439
192.2000,0.22385,299.079,1.26121
192.1000,-0.866938,299.754,1.26837
192.0000,0.0100445,300.448,1.2757
191.9000,-2.51729,301.433,1.2861
191.8000,-0.306794,302.058,1.29267
191.7000,1.45706,303.624,1.30911
191.6000,2.01052,303.537,1.3082
191.5000,1.46326,305.311,1.32673
191.4000,1.20456,305.833,1.33217
191.3000,2.2989,306.885,1.3431
191.2000,-5.30739,308.43,1.35911
191.1000,2.93963,309.562,1.37079
191.0000,0.556238,310.544,1.3809
190.9000,6.24114,312.389,1.39982
190.8000,-1.70848,314.306,1.41937
190.7000,-4.90911,315.373,1.43022
190.6000,2.4648,317.628,1.45303
190.5000,-5.52908,318.231,1.4591
190.4000,-3.36262,319.637,1.47324
190.3000,-2.88148,321.546,1.49234
190.2000,1.57382,322.214,1.499
190.1000,2.69738,323.978,1.51654
190.0000,-0.360158,325.177,1.52842

##### Extended Information
[Comments]
Sample name,SHND.928.BUFFER
Comment,BUFFER BLANK 
User,SADIYYAH HOLSEY
Division
Company,Saint Mary's College

[Detailed Information]
Creation date,9/28/2022 2:33 PM

Data array type,Linear data array * 3
Horizontal axis,Wavelength [nm]
Vertical axis(1),CD [mdeg]
Vertical axis(2),HT [V]
Vertical axis(3),Abs
Start,320 nm
End,190 nm
Data interval,0.1 nm
Data points,1301    

[Measurement Information]
Instrument name,J-1500
Model name,J-1500
Serial No.,B051061638

Detector,PM-539
Detector S/N,B051061638
  Lock-in amp.,X mode
  HT volt,Auto

Accessory,PTC-517
Accessory S/N,B026561646
  Temperature,27.22 C
  Control sensor,Holder
  Monitor sensor,Holder

Measurement date,9/28/2022 2:33 PM

CD Overload detect,1271
Photometric mode,CD, HT, Abs
Measure range,320 - 190 nm
Data pitch,0.1 nm
CD scale,20 mdeg/0.05 dOD
FL scale,20 mdeg/0.05 dOD
D.I.T.,8 msec
Bandwidth,2.00 nm
Start mode,Immediately
Scanning mode,Continuous
Scanning speed,200 nm/min
Baseline correction,None
Shutter control,Auto
No. of cycle,1/1
N2 Flowmeter,Manual

Solvent,NaPO4 buffer

