TITLE,SHND.928.BUFFER+PROTEIN
DATA TYPE,
ORIGIN,JASCO
OWNER,
DATE,22/09/28
TIME,15:39:43
SPECTROMETER/DATA SYSTEM,
LOCALE,1033
RESOLUTION,
DELTAX,-0.1
XUNITS,NANOMETERS
YUNITS,CD [mdeg]
Y2UNITS,HT [V]
Y3UNITS,ABSORBANCE
FIRSTX,  320.0000
LASTX,  190.0000
NPOINTS,    1301
FIRSTY,     3.02391
MAXY,    46.50406
MINY,   -59.31823
XYDATA
320.0000,3.02391,208.589,0.152629
319.9000,2.05269,208.829,0.15606
319.8000,1.50209,208.71,0.154361
319.7000,2.01279,208.84,0.156222
319.6000,0.733168,209.161,0.160797
319.5000,1.55249,208.866,0.156594
319.4000,2.22099,208.853,0.1564
319.3000,2.15418,209.334,0.163269
319.2000,3.53662,208.991,0.158373
319.1000,0.664192,208.656,0.153584
319.0000,1.51511,209.861,0.170769
318.9000,0.221303,208.712,0.154393
318.8000,0.673462,208.368,0.149469
318.7000,0.905829,208.524,0.151706
318.6000,1.31268,207.941,0.143354
318.5000,1.48541,208.682,0.153957
318.4000,2.89589,209.023,0.158826
318.3000,1.74667,209.784,0.169673
318.2000,1.77303,209.468,0.165174
318.1000,2.17298,208.636,0.153309
318.0000,0.422006,208.796,0.155591
317.9000,0.626385,208.463,0.150831
317.8000,0.459594,208.154,0.146405
317.7000,1.85389,208.386,0.149729
317.6000,1.75262,209.194,0.161266
317.5000,2.44728,207.808,0.141454
317.4000,0.482756,208.582,0.152532
317.3000,1.99982,208.567,0.152321
317.2000,1.05321,208.481,0.15109
317.1000,-0.631105,208.339,0.149064
317.0000,1.55002,208.149,0.14634
316.9000,2.26837,208.688,0.154054
316.8000,1.07128,209.061,0.159376
316.7000,1.63122,209.174,0.160992
316.6000,1.99954,207.982,0.143955
316.5000,0.956483,208.742,0.154814
316.4000,1.11712,208.195,0.147005
316.3000,2.01048,208.822,0.155963
316.2000,1.45443,208.882,0.156821
316.1000,3.70082,208.297,0.148465
316.0000,1.08208,208.974,0.15813
315.9000,1.01535,208.846,0.156303
315.8000,0.786706,208.994,0.158422
315.7000,1.13278,208.777,0.155316
315.6000,1.41805,208.243,0.147686
315.5000,1.33769,208.18,0.146778
315.4000,1.84386,207.563,0.137943
315.3000,1.20102,208.248,0.147751
315.2000,2.38603,208.237,0.147605
315.1000,-0.0957302,207.774,0.140967
315.0000,0.233026,208.466,0.15088
314.9000,3.65538,208.012,0.144377
314.8000,0.534524,209.087,0.159747
314.7000,1.87497,208.399,0.149923
314.6000,1.95428,208.143,0.146259
314.5000,1.2813,207.989,0.144052
314.4000,2.41307,208.218,0.14733
314.3000,2.39203,208.322,0.148821
314.2000,0.500002,208.226,0.147443
314.1000,0.931851,208.427,0.150312
314.0000,0.605207,207.877,0.142445
313.9000,1.00587,208.05,0.144928
313.8000,1.81573,208.077,0.145302
313.7000,1.38527,208.557,0.152175
313.6000,1.80749,209.053,0.159262
313.5000,1.88004,208.392,0.14981
313.4000,1.79403,208.103,0.145675
313.3000,1.02706,208.712,0.154393
313.2000,1.03622,208.471,0.150944
313.1000,2.30327,207.823,0.141665
313.0000,1.9869,207.897,0.142737
312.9000,0.0257613,208.063,0.145107
312.8000,0.895088,208.141,0.146226
312.7000,2.00469,208.588,0.152613
312.6000,0.804523,207.8,0.14134
312.5000,1.23618,208.325,0.148854
312.4000,0.92415,208.406,0.150021
312.3000,1.04355,208.206,0.147151
312.2000,1.56949,208.654,0.153568
312.1000,2.90792,208.117,0.145886
312.0000,2.3863,208.6,0.152791
311.9000,0.467519,208.185,0.146859
311.8000,0.909387,208.037,0.144734
311.7000,0.849079,207.486,0.136838
311.6000,1.49219,208.424,0.15028
311.5000,1.54855,208.436,0.150442
311.4000,2.04962,208.293,0.1484
311.3000,3.03019,207.7,0.139911
311.2000,0.8641,208.141,0.146226
311.1000,0.624953,209.24,0.161928
311.0000,1.00142,207.765,0.140837
310.9000,1.51285,207.928,0.143175
310.8000,0.781736,207.769,0.140902
310.7000,2.42057,207.853,0.142104
310.6000,1.21193,207.735,0.140414
310.5000,1.34332,207.829,0.141762
310.4000,-0.437044,208.297,0.148465
310.3000,1.17766,208.624,0.153131
310.2000,1.17204,208.571,0.15237
310.1000,1.3745,208.465,0.150863
310.0000,2.1127,208.67,0.153795
309.9000,1.24984,207.768,0.140886
309.8000,0.246488,207.646,0.13913
309.7000,-0.0389214,207.873,0.14238
309.6000,2.15141,208.079,0.145334
309.5000,1.30093,208.127,0.146032
309.4000,0.994968,207.823,0.141665
309.3000,1.28352,207.307,0.134267
309.2000,0.862279,208.742,0.154814
309.1000,2.32631,207.638,0.139017
309.0000,1.92157,208.062,0.145091
308.9000,0.357797,207.933,0.14324
308.8000,1.93406,209.023,0.158826
308.7000,2.05325,208.364,0.149421
308.6000,0.816402,208.038,0.14475
308.5000,2.83634,207.561,0.137911
308.4000,1.19067,208.212,0.147248
308.3000,0.666016,208.174,0.146697
308.2000,2.01746,207.494,0.136952
308.1000,1.68552,208.413,0.150118
308.0000,0.563243,208.854,0.156416
307.9000,0.0382776,208.12,0.145918
307.8000,1.48529,207.846,0.142006
307.7000,0.148653,207.594,0.138383
307.6000,1.38176,208.066,0.145156
307.5000,0.85607,208.384,0.149696
307.4000,2.66472,208.538,0.1519
307.3000,0.552951,208.028,0.144604
307.2000,1.74595,208.47,0.150928
307.1000,1.82776,208.014,0.144409
307.0000,0.876914,208.165,0.146567
306.9000,1.18718,208.064,0.145123
306.8000,2.51142,207.984,0.143971
306.7000,0.406708,207.708,0.140024
306.6000,1.97872,207.291,0.134039
306.5000,3.74228,208.601,0.152807
306.4000,1.28838,208.313,0.148692
306.3000,0.771963,207.893,0.142672
306.2000,2.51169,208.682,0.153957
306.1000,1.23214,208.317,0.14874
306.0000,1.20228,208.821,0.155947
305.9000,0.788715,208.203,0.147119
305.8000,0.51297,207.441,0.136187
305.7000,1.43128,206.994,0.129772
305.6000,2.45774,208.419,0.150199
305.5000,2.2432,208.429,0.150345
305.4000,1.17064,207.723,0.140236
305.3000,1.69329,208.392,0.14981
305.2000,2.03223,207.894,0.142688
305.1000,3.03743,207.315,0.134381
305.0000,2.10477,208.377,0.149599
304.9000,2.43779,208.425,0.150296
304.8000,1.06441,207.96,0.14363
304.7000,1.95865,208.516,0.151592
304.6000,0.330719,207.57,0.138041
304.5000,1.02554,208.346,0.149162
304.4000,2.0676,207.807,0.141438
304.3000,1.98694,207.89,0.142623
304.2000,0.967454,207.189,0.132574
304.1000,0.554192,208.294,0.148416
304.0000,1.29288,207.618,0.138724
303.9000,1.55415,207.655,0.13926
303.8000,0.0256183,207.68,0.139618
303.7000,1.70626,208.134,0.146129
303.6000,2.39985,207.706,0.139992
303.5000,2.1043,208.075,0.145286
303.4000,2.04605,207.708,0.140024
303.3000,1.21306,207.843,0.141958
303.2000,2.23926,208.098,0.14561
303.1000,2.27543,208.04,0.144783
303.0000,1.39641,207.325,0.134527
302.9000,3.96572,207.606,0.138561
302.8000,0.672438,208.035,0.144701
302.7000,0.994681,208.309,0.148627
302.6000,0.47453,207.5,0.137033
302.5000,0.969786,207.027,0.130245
302.4000,1.30444,207.551,0.137765
302.3000,0.988351,207.863,0.14225
302.2000,2.03088,207.751,0.140642
302.1000,1.40919,207.516,0.137261
302.0000,0.966248,208.006,0.144296
301.9000,2.89267,207.941,0.143354
301.8000,0.679237,207.936,0.143289
301.7000,2.58312,207.807,0.141438
301.6000,3.14509,207.213,0.132916
301.5000,-0.411086,208.134,0.146129
301.4000,1.0047,207.856,0.142136
301.3000,1.39302,207.49,0.136886
301.2000,1.99389,207.947,0.143451
301.1000,0.834885,207.263,0.133632
301.0000,1.91746,206.751,0.126266
300.9000,2.28958,207.607,0.138578
300.8000,0.469075,207.578,0.138155
300.7000,0.956263,207.757,0.140723
300.6000,1.82117,208.091,0.145513
300.5000,2.3329,207.212,0.132899
300.4000,1.71841,207.543,0.137651
300.3000,1.61803,207.709,0.14004
300.2000,0.433884,207.968,0.143744
300.1000,1.46375,208.161,0.146519
300.0000,2.3861,207.243,0.133339
299.9000,1.60409,207.437,0.136138
299.8000,1.74038,207.93,0.143208
299.7000,0.819697,207.432,0.136057
299.6000,0.495595,207.194,0.132639
299.5000,1.88307,207.253,0.133486
299.4000,1.60937,207.116,0.131515
299.3000,2.01834,208.174,0.146697
299.2000,2.66802,206.823,0.12731
299.1000,0.845531,207.831,0.141779
299.0000,1.32177,207.266,0.133681
298.9000,1.55218,207.667,0.139439
298.8000,1.1465,207.396,0.135536
298.7000,2.3557,206.907,0.128517
298.6000,2.12924,207.452,0.13635
298.5000,1.17323,207.984,0.143971
298.4000,2.09155,207.664,0.13939
298.3000,3.06464,207.431,0.136041
298.2000,-1.42953,207.844,0.141974
298.1000,2.29408,207.244,0.133355
298.0000,1.81319,207.241,0.133323
297.9000,1.67043,207.192,0.132606
297.8000,1.08335,207.601,0.13848
297.7000,3.86248,206.894,0.128321
297.6000,1.06108,207.16,0.13215
297.5000,0.76121,207.985,0.143987
297.4000,0.451856,208.218,0.14733
297.3000,2.29533,207.646,0.13913
297.2000,0.56016,207.365,0.135097
297.1000,1.1498,206.839,0.127539
297.0000,1.23077,207.812,0.141519
296.9000,1.966,207.718,0.140171
296.8000,0.725541,207.535,0.137537
296.7000,2.01736,206.657,0.124912
296.6000,1.01002,206.902,0.128436
296.5000,0.998761,206.334,0.120258
296.4000,3.34869,208.072,0.145237
296.3000,2.18086,207.793,0.141243
296.2000,1.88702,207.026,0.130228
296.1000,0.990483,207.577,0.138139
296.0000,1.43687,207.127,0.131678
295.9000,1.14765,206.772,0.126576
295.8000,-0.313324,207.73,0.140333
295.7000,1.06268,207.582,0.13822
295.6000,-0.11452,207.665,0.139407
295.5000,0.116351,207.526,0.137407
295.4000,2.32688,207.171,0.132313
295.3000,1.96596,206.827,0.127359
295.2000,0.471469,207.266,0.133681
295.1000,0.937051,206.398,0.12119
295.0000,1.0211,207.022,0.130163
294.9000,1.26449,207.017,0.130098
294.8000,0.127925,207.53,0.137472
294.7000,1.41243,206.789,0.126821
294.6000,2.71475,207.529,0.137456
294.5000,0.846939,206.98,0.12956
294.4000,1.5248,207.822,0.141649
294.3000,-0.143776,206.92,0.128696
294.2000,1.88997,207.277,0.133828
294.1000,1.55509,207.73,0.140333
294.0000,1.96408,207.312,0.134332
293.9000,-0.369162,207.246,0.133388
293.8000,-0.527193,207.024,0.130196
293.7000,1.69489,207.32,0.134446
293.6000,0.874715,207.35,0.134885
293.5000,1.39725,207.328,0.13456
293.4000,0.276975,207.334,0.134658
293.3000,1.28931,207.403,0.13565
293.2000,2.21131,207.444,0.136236
293.1000,1.69153,207.752,0.140658
293.0000,1.96714,206.483,0.122415
292.9000,1.56355,207.267,0.133697
292.8000,1.16607,207.307,0.134267
292.7000,1.30917,207.385,0.13539
292.6000,1.09314,207.413,0.13578
292.5000,1.03259,207.518,0.137293
292.4000,-0.248374,206.847,0.127653
292.3000,0.618235,207.401,0.135618
292.2000,1.28826,206.916,0.128647
292.1000,1.20657,207.384,0.135374
292.0000,-0.0797257,206.684,0.125304
291.9000,1.88093,207.571,0.138057
291.8000,2.93392,206.94,0.128989
291.7000,1.4859,206.666,0.125043
291.6000,-0.193186,207.36,0.135032
291.5000,-0.702363,207.155,0.132085
291.4000,1.56631,207.547,0.137716
291.3000,0.968567,206.537,0.123182
291.2000,0.872448,207.481,0.136756
291.1000,-0.854023,206.538,0.123198
291.0000,-0.265879,206.862,0.127865
290.9000,2.29502,207.099,0.131271
290.8000,1.6255,206.556,0.12346
290.7000,2.11369,206.827,0.127359
290.6000,-0.52569,206.945,0.129055
290.5000,1.81815,207.839,0.141893
290.4000,-0.247662,207.924,0.14311
290.3000,-0.274478,207.155,0.132085
290.2000,1.04289,207.154,0.132069
290.1000,0.411494,207.473,0.136642
290.0000,0.302504,206.772,0.126576
289.9000,2.53855,207.842,0.141941
289.8000,0.851298,207.417,0.135846
289.7000,1.22242,207.871,0.142364
289.6000,0.702122,207.986,0.144003
289.5000,1.11151,208.274,0.148124
289.4000,-0.312541,207.323,0.134495
289.3000,-0.713144,208.192,0.146956
289.2000,1.82687,207.967,0.143728
289.1000,1.74328,207.571,0.138057
289.0000,1.64632,207.768,0.140886
288.9000,2.42031,207.448,0.136285
288.8000,1.73468,207.907,0.142867
288.7000,0.635911,207.699,0.139894
288.6000,1.64404,207.444,0.136236
288.5000,0.99038,208.384,0.149696
288.4000,2.30694,207.256,0.133534
288.3000,0.692806,207.687,0.139715
288.2000,0.210313,207.447,0.136268
288.1000,1.95592,207.793,0.141243
288.0000,1.10758,207.466,0.136545
287.9000,-0.247406,207.194,0.132639
287.8000,2.05352,208.078,0.145318
287.7000,2.26539,208.072,0.145237
287.6000,1.20215,207.335,0.134674
287.5000,0.885331,207.512,0.137212
287.4000,1.14548,208.099,0.145626
287.3000,0.555738,207.5,0.137033
287.2000,-0.207754,208.069,0.145188
287.1000,0.601158,207.467,0.136561
287.0000,2.39636,207.26,0.133583
286.9000,1.76536,207.203,0.132769
286.8000,0.356153,208.033,0.144685
286.7000,1.48251,207.645,0.139114
286.6000,0.667117,208.004,0.144263
286.5000,0.362067,206.95,0.129136
286.4000,1.14071,207.62,0.138756
286.3000,1.75532,207.943,0.143386
286.2000,-0.108252,207.792,0.141227
286.1000,1.89437,208.82,0.155931
286.0000,1.04287,207.968,0.143744
285.9000,-0.306194,207.874,0.142396
285.8000,0.95973,208.331,0.148951
285.7000,2.11694,208.423,0.150264
285.6000,0.0696925,207.816,0.141568
285.5000,0.424235,207.643,0.139081
285.4000,1.42885,206.975,0.129495
285.3000,1.44612,207.929,0.143192
285.2000,-0.538801,208.222,0.147378
285.1000,3.1254,208.014,0.144409
285.0000,0.798866,207.908,0.142883
284.9000,-0.878225,208.438,0.150474
284.8000,1.4314,207.173,0.132346
284.7000,0.719609,207.842,0.141941
284.6000,1.10966,207.578,0.138155
284.5000,1.53737,207.595,0.138399
284.4000,1.16788,207.221,0.13303
284.3000,0.38315,207.671,0.139488
284.2000,0.0194684,207.793,0.141243
284.1000,1.24617,207.658,0.139309
284.0000,2.3864,208.308,0.148611
283.9000,1.40266,207.981,0.143938
283.8000,1.20957,207.934,0.143257
283.7000,1.11146,207.512,0.137212
283.6000,0.0508134,207.782,0.14108
283.5000,2.11459,207.453,0.136366
283.4000,1.21864,207.862,0.142234
283.3000,-1.9123,207.871,0.142364
283.2000,2.98853,207.604,0.138529
283.1000,0.940529,207.886,0.142574
283.0000,1.7743,207.866,0.142282
282.9000,2.22295,208.53,0.151787
282.8000,1.37188,208.627,0.153179
282.7000,0.882673,208.903,0.157112
282.6000,1.1093,207.788,0.141162
282.5000,1.31113,208.557,0.152175
282.4000,0.60663,208.107,0.14574
282.3000,-0.275922,207.939,0.143338
282.2000,1.12902,206.742,0.126136
282.1000,0.977769,207.909,0.142899
282.0000,0.960774,209.024,0.158842
281.9000,0.297355,209.002,0.158535
281.8000,-1.3335,208.981,0.158228
281.7000,-0.856828,207.819,0.141617
281.6000,1.76124,207.728,0.1403
281.5000,1.7662,207.408,0.135715
281.4000,1.90943,207.721,0.140203
281.3000,0.0788425,208.182,0.146811
281.2000,1.08429,207.964,0.143695
281.1000,-0.68633,207.521,0.137342
281.0000,1.86776,208.141,0.146226
280.9000,1.12845,207.907,0.142867
280.8000,0.729239,208.388,0.149761
280.7000,0.44498,208.026,0.144571
280.6000,-0.165008,208.039,0.144766
280.5000,0.0433444,207.967,0.143728
280.4000,2.21587,207.99,0.144068
280.3000,1.15021,208.908,0.157193
280.2000,1.52541,207.767,0.140869
280.1000,-0.997156,208.121,0.145935
280.0000,1.67561,207.582,0.13822
279.9000,1.69323,208.331,0.148951
279.8000,1.30112,208.756,0.155025
279.7000,0.604158,208.465,0.150863
279.6000,1.37773,207.342,0.134771
279.5000,0.598994,207.015,0.130065
279.4000,1.57529,208.41,0.150069
279.3000,0.618652,207.876,0.142429
279.2000,0.371157,208.814,0.15585
279.1000,-0.0394279,208.541,0.151949
279.0000,1.15464,208.062,0.145091
278.9000,0.685213,207.996,0.14415
278.8000,0.871731,207.866,0.142282
278.7000,-1.1089,209.034,0.158987
278.6000,-0.121631,208.62,0.153082
278.5000,0.775878,208.269,0.148059
278.4000,2.46391,207.836,0.14186
278.3000,-1.06978,208.244,0.147703
278.2000,0.0890832,208.253,0.147832
278.1000,1.13519,208.191,0.14694
278.0000,0.442254,208.699,0.154199
277.9000,0.77689,208.173,0.146681
277.8000,2.4849,208.703,0.154264
277.7000,1.47262,208.239,0.147622
277.6000,0.364799,207.794,0.141259
277.5000,0.705237,208.284,0.14827
277.4000,2.25997,207.829,0.141762
277.3000,0.348043,208.671,0.153811
277.2000,0.849824,208.365,0.149437
277.1000,0.0543809,208.015,0.144425
277.0000,1.05999,207.58,0.138187
276.9000,1.47874,208.614,0.152985
276.8000,0.998153,207.882,0.14251
276.7000,0.708967,207,0.129853
276.6000,1.90178,207.803,0.141389
276.5000,1.20802,207.713,0.140089
276.4000,0.769597,207.907,0.142867
276.3000,0.944127,207.577,0.138139
276.2000,2.34369,208.373,0.149551
276.1000,0.582093,208.248,0.147751
276.0000,0.991202,208.454,0.150701
275.9000,1.4173,208.189,0.146908
275.8000,1.27825,208.098,0.14561
275.7000,0.225204,207.843,0.141958
275.6000,0.195056,208.584,0.152564
275.5000,0.700161,207.688,0.139732
275.4000,0.527551,208.35,0.14921
275.3000,-0.15649,207.537,0.13757
275.2000,2.25395,208.907,0.157177
275.1000,0.481858,207.704,0.139959
275.0000,1.03333,207.826,0.141714
274.9000,3.70994,208.276,0.148156
274.8000,-0.739543,208.465,0.150863
274.7000,1.48351,208.318,0.148757
274.6000,-0.923613,207.567,0.137992
274.5000,0.615104,207.882,0.14251
274.4000,0.941505,208.975,0.158147
274.3000,0.398462,208.305,0.148578
274.2000,0.839946,208.965,0.158001
274.1000,0.277878,207.856,0.142136
274.0000,0.670361,208.018,0.144458
273.9000,0.385887,208.593,0.152694
273.8000,0.995711,208.135,0.146145
273.7000,-0.0963626,207.738,0.140447
273.6000,1.62959,208.267,0.148027
273.5000,-0.11379,208.2,0.14707
273.4000,0.479381,208.514,0.15156
273.3000,0.105514,207.997,0.144166
273.2000,0.566715,208.435,0.150426
273.1000,2.04032,207.972,0.143809
273.0000,1.5843,208.505,0.15143
272.9000,1.82288,207.874,0.142396
272.8000,1.63574,208.229,0.147492
272.7000,0.760975,207.879,0.142477
272.6000,0.517619,208.539,0.151916
272.5000,-1.08123,208.469,0.150912
272.4000,2.22638,208.2,0.14707
272.3000,1.51695,208.412,0.150102
272.2000,0.624729,207.673,0.13952
272.1000,0.748841,208.915,0.15729
272.0000,-0.245271,207.43,0.136024
271.9000,0.442233,207.006,0.129935
271.8000,0.102447,207.538,0.137586
271.7000,1.22763,207.431,0.136041
271.6000,-0.949225,207.521,0.137342
271.5000,-0.937608,208.448,0.15062
271.4000,-0.12872,207.439,0.136154
271.3000,0.485245,208.337,0.149032
271.2000,0.451821,208.641,0.153374
271.1000,0.616733,207.96,0.14363
271.0000,0.154363,208.224,0.147411
270.9000,-0.0471154,208.117,0.145886
270.8000,0.636037,208.518,0.151625
270.7000,-0.0530662,208.578,0.152483
270.6000,1.79935,208.964,0.157985
270.5000,0.671089,209.091,0.159796
270.4000,1.3674,209.302,0.162817
270.3000,-0.974623,207.621,0.138773
270.2000,1.35877,207.866,0.142282
270.1000,1.65227,208.656,0.153584
270.0000,1.76673,208.939,0.157629
269.9000,0.74182,208.913,0.157257
269.8000,0.693379,208.436,0.150442
269.7000,-0.317921,208.236,0.147589
269.6000,-0.511666,208.844,0.156271
269.5000,-0.303318,208.987,0.158325
269.4000,0.233563,209.419,0.16448
269.3000,0.108619,207.961,0.143646
269.2000,0.3843,208.431,0.150377
269.1000,1.04931,209.233,0.161831
269.0000,1.75114,209.186,0.161153
268.9000,0.00981283,209.029,0.158923
268.8000,2.53626,208.674,0.153843
268.7000,-1.62801,208.923,0.157403
268.6000,0.295184,208.002,0.144231
268.5000,1.10873,208.2,0.14707
268.4000,0.599336,208.693,0.154118
268.3000,0.32102,208.82,0.155931
268.2000,1.81721,209.534,0.166109
268.1000,2.01433,208.79,0.15551
268.0000,0.0165311,208.279,0.148205
267.9000,-0.683593,209.061,0.159376
267.8000,-0.373302,208.045,0.144847
267.7000,0.617496,208.968,0.15805
267.6000,2.35578,208.327,0.148886
267.5000,-0.105374,209.673,0.168094
267.4000,0.94126,209.266,0.1623
267.3000,2.39844,209.806,0.16998
267.2000,-1.02127,208.533,0.151835
267.1000,-0.457366,208.856,0.156449
267.0000,0.17465,210.113,0.174344
266.9000,1.67619,209.159,0.160765
266.8000,0.942412,208.547,0.15203
266.7000,-0.455892,209.249,0.162058
266.6000,-0.585953,209.34,0.16335
266.5000,-2.1071,209.877,0.170995
266.4000,0.472186,208.972,0.158098
266.3000,0.372727,209.443,0.164819
266.2000,-1.13133,209.451,0.164932
266.1000,0.0600975,208.795,0.155575
266.0000,1.21653,209.427,0.164592
265.9000,-0.0311012,208.658,0.153617
265.8000,1.23088,209.591,0.166932
265.7000,2.3852,209.045,0.159149
265.6000,2.52846,209.117,0.160168
265.5000,-0.33102,208.929,0.157484
265.4000,1.70157,209.171,0.160943
265.3000,0.126407,209.417,0.164447
265.2000,2.24339,209.929,0.171736
265.1000,1.7551,210.347,0.177675
265.0000,0.498267,209.673,0.168094
264.9000,-0.843768,209.648,0.167739
264.8000,0.326118,210.211,0.175745
264.7000,1.09597,210.167,0.175117
264.6000,-0.111409,209.491,0.165496
264.5000,2.15676,209.14,0.160507
264.4000,1.73397,209.923,0.171655
264.3000,0.00938607,209.719,0.168755
264.2000,0.666797,209.342,0.163382
264.1000,0.912152,208.411,0.150085
264.0000,1.92612,209.492,0.165513
263.9000,1.72414,210.046,0.173395
263.8000,0.128228,210.446,0.179074
263.7000,1.67865,209.615,0.167271
263.6000,0.666489,210.195,0.175519
263.5000,0.0800484,209.925,0.171671
263.4000,0.857641,210.08,0.173878
263.3000,0.380591,209.979,0.172445
263.2000,1.12734,209.715,0.16869
263.1000,-0.505262,210.887,0.185322
263.0000,1.1394,209.667,0.168013
262.9000,-1.3605,211.095,0.188274
262.8000,0.145907,210.839,0.184648
262.7000,2.0121,209.199,0.161347
262.6000,-0.909104,209.891,0.171188
262.5000,-0.109573,209.712,0.168642
262.4000,0.288902,210.885,0.185306
262.3000,1.0238,210.685,0.182464
262.2000,-0.623596,210.397,0.178383
262.1000,-0.99266,211.032,0.187376
262.0000,1.00457,210.075,0.173813
261.9000,0.588863,210.117,0.174409
261.8000,-0.319391,211.202,0.189781
261.7000,-0.881544,210.848,0.184777
261.6000,-0.0350289,210.638,0.181806
261.5000,1.41649,210.383,0.17819
261.4000,1.14122,211.26,0.190615
261.3000,0.21311,210.837,0.184616
261.2000,0.399605,210.545,0.180489
261.1000,-0.355722,210.399,0.178415
261.0000,0.366372,211.085,0.18813
260.9000,-1.58879,210.433,0.178897
260.8000,-0.595892,210.825,0.184456
260.7000,3.10753,210.896,0.185451
260.6000,0.196706,210.621,0.181565
260.5000,0.4677,209.999,0.172734
260.4000,0.00568198,210.795,0.184022
260.3000,0.181624,211.882,0.199402
260.2000,1.33636,211.435,0.193082
260.1000,0.262271,210.499,0.17983
260.0000,0.473657,210.634,0.181742
259.9000,2.08625,211.286,0.190983
259.8000,0.315314,210.046,0.173395
259.7000,0.392725,212.146,0.203125
259.6000,-0.557059,209.716,0.168706
259.5000,1.55153,211.021,0.187232
259.4000,-0.0737137,210.26,0.176436
259.3000,-0.991703,209.552,0.166368
259.2000,1.1457,211.621,0.195707
259.1000,-1.23579,211.405,0.192665
259.0000,-0.385966,211.592,0.195307
258.9000,1.74835,210.47,0.179412
258.8000,-0.457246,211.605,0.195483
258.7000,-0.135196,211.548,0.194683
258.6000,0.790878,210.998,0.186895
258.5000,0.185455,210.54,0.180408
258.4000,-1.03694,212.592,0.209396
258.3000,0.314292,211.662,0.196283
258.2000,0.560307,211.841,0.19881
258.1000,0.262838,211.807,0.19833
258.0000,1.01757,210.24,0.176147
257.9000,0.655175,210.441,0.17901
257.8000,1.87637,210.143,0.174779
257.7000,-0.302319,210.816,0.184327
257.6000,2.72766,212.122,0.202773
257.5000,-0.0395227,211.986,0.200856
257.4000,0.322523,212.021,0.201352
257.3000,0.229635,211.736,0.197339
257.2000,-0.239871,211.373,0.192201
257.1000,0.00279055,211.357,0.191976
257.0000,-1.90763,212.688,0.210751
256.9000,0.555323,212.012,0.201224
256.8000,0.485686,211.96,0.200489
256.7000,0.511214,211.864,0.199146
256.6000,0.525985,210.715,0.182898
256.5000,1.25769,213.369,0.220316
256.4000,1.61635,211.577,0.195083
256.3000,-2.05246,212.119,0.202742
256.2000,1.64998,211.638,0.195947
256.1000,0.366125,212.071,0.202055
256.0000,-0.248248,211.796,0.198187
255.9000,-0.27626,212.398,0.206668
255.8000,-0.631472,213.6,0.223557
255.7000,0.69315,211.727,0.197211
255.6000,0.124685,211.782,0.197979
255.5000,-0.57558,212.77,0.211898
255.4000,-0.552674,212.221,0.204179
255.3000,1.341,212.917,0.213968
255.2000,1.72182,212.807,0.212423
255.1000,2.7949,212.954,0.214494
255.0000,0.26724,212.527,0.208487
254.9000,0.928698,211.921,0.199945
254.8000,1.19022,211.487,0.193818
254.7000,0.65424,212.312,0.205456
254.6000,-0.534658,211.893,0.199546
254.5000,-0.0366159,212.442,0.207291
254.4000,0.362149,211.944,0.200265
254.3000,0.891307,212.856,0.213109
254.2000,0.490959,213.727,0.225335
254.1000,0.940762,212.465,0.20761
254.0000,0.408817,212.44,0.207259
253.9000,-1.05635,213.136,0.21704
253.8000,1.71664,212.276,0.204945
253.7000,1.68235,212.514,0.208295
253.6000,0.142331,213.277,0.219028
253.5000,-0.222196,214.435,0.235242
253.4000,1.97397,213.829,0.226763
253.3000,0.101613,213.618,0.223811
253.2000,-0.103543,212.567,0.209045
253.1000,0.743724,211.981,0.200792
253.0000,-0.578958,213.331,0.219775
252.9000,1.17552,213.042,0.215719
252.8000,-0.797892,213.21,0.21809
252.7000,1.41634,212.255,0.204658
252.6000,1.58732,212.927,0.214112
252.5000,0.646177,212.467,0.207642
252.4000,0.451836,213.146,0.217183
252.3000,0.169232,213.68,0.224668
252.2000,-0.809741,213.995,0.229079
252.1000,-0.558596,213.29,0.219203
252.0000,1.71962,213.93,0.228175
251.9000,0.895594,214.109,0.23068
251.8000,1.24079,214.17,0.231536
251.7000,0.141542,212.6,0.209507
251.6000,0.0839777,211.822,0.198554
251.5000,1.47033,213.085,0.216324
251.4000,-0.334922,213.318,0.2196
251.3000,-0.946522,213,0.21513
251.2000,1.25406,213.659,0.224383
251.1000,-0.346253,213.957,0.228556
251.0000,1.06624,212.892,0.213618
250.9000,1.19606,213.436,0.221254
250.8000,1.58856,214.328,0.233738
250.7000,1.04203,213.704,0.225018
250.6000,1.93958,215.21,0.246054
250.5000,-0.805169,213.258,0.218758
250.4000,-0.164813,213.507,0.222255
250.3000,-0.349927,212.058,0.201879
250.2000,-0.828357,213.47,0.22173
250.1000,0.495314,213.837,0.226875
250.0000,-0.00775274,213.954,0.228508
249.9000,-1.34413,213.227,0.218328
249.8000,1.91398,214,0.229159
249.7000,-0.0197883,213.396,0.220697
249.6000,0.319518,213.317,0.219585
249.5000,0.316242,214.253,0.232693
249.4000,0.0112204,214.041,0.229729
249.3000,0.18988,214.705,0.239008
249.2000,0.499076,214.604,0.2376
249.1000,-0.705608,214.23,0.232376
249.0000,0.0360689,213.825,0.2267
248.9000,0.194705,214.969,0.24269
248.8000,2.33275,213.904,0.227811
248.7000,0.291197,214.367,0.234292
248.6000,-0.555262,213.795,0.226287
248.5000,-2.18442,214.322,0.233659
248.4000,0.170597,214.099,0.230538
248.3000,-0.126163,214.438,0.235274
248.2000,0.304704,215.222,0.246211
248.1000,1.07212,215.719,0.253133
248.0000,-0.612774,214.32,0.233627
247.9000,1.16618,214.978,0.242817
247.8000,-0.129726,215.628,0.251873
247.7000,0.481838,214.932,0.242169
247.6000,0.511223,214.651,0.238248
247.5000,-1.68728,215.231,0.246338
247.4000,-1.28657,214.95,0.242422
247.3000,-0.280355,214.404,0.234799
247.2000,1.81758,215.138,0.245043
247.1000,0.23059,215.46,0.249524
247.0000,-0.429445,215.298,0.247269
246.9000,0.0796848,215.07,0.244096
246.8000,-1.03454,214.697,0.238897
246.7000,0.383407,215.613,0.251652
246.6000,-1.61308,215.498,0.25006
246.5000,-0.164529,215.038,0.243654
246.4000,1.20797,215.278,0.247
246.3000,-2.99281,215.119,0.244775
246.2000,-0.597585,215.048,0.243796
246.1000,0.87335,214.766,0.239862
246.0000,-0.13214,215.766,0.253779
245.9000,0.110927,215.034,0.243591
245.8000,-0.153219,215.838,0.254787
245.7000,-1.4052,215.423,0.24902
245.6000,-1.41755,214.955,0.242501
245.5000,-1.50121,215.789,0.25411
245.4000,-0.692807,215.534,0.250565
245.3000,-2.61346,215.225,0.246259
245.2000,-1.23039,216.265,0.260718
245.1000,-1.56046,215.614,0.251668
245.0000,-0.547682,216.034,0.25751
244.9000,-0.937382,216.471,0.263578
244.8000,-2.67714,215.54,0.250643
244.7000,-1.54727,216.466,0.263499
244.6000,-3.75076,215.917,0.255889
244.5000,-1.33516,216.53,0.264394
244.4000,-3.4751,216.354,0.261944
244.3000,-1.7052,215.853,0.254992
244.2000,-2.18132,216.128,0.258815
244.1000,-3.69792,215.925,0.255999
244.0000,-2.41372,216.761,0.267596
243.9000,-3.426,216.974,0.270545
243.8000,-1.76024,216.895,0.269447
243.7000,-2.45408,216.978,0.270592
243.6000,-2.25075,217.065,0.271799
243.5000,-4.49837,215.935,0.256141
243.4000,-3.65231,216.386,0.262399
243.3000,-1.39602,217.479,0.277514
243.2000,-2.60688,217.948,0.283986
243.1000,-2.14684,216.848,0.268788
243.0000,-1.33305,218.316,0.289059
242.9000,-4.19231,217.147,0.272927
242.8000,-2.67591,217.863,0.282815
242.7000,-2.13965,217.726,0.280924
242.6000,-2.44331,216.689,0.266592
242.5000,-4.42035,216.216,0.260042
242.4000,-3.9446,218.094,0.286001
242.3000,-4.62751,217.53,0.278219
242.2000,-3.30833,218.553,0.292318
242.1000,-1.52961,217.649,0.279861
242.0000,-2.67461,217.508,0.277921
241.9000,-2.617,218.335,0.289324
241.8000,-5.93839,218.166,0.287
241.7000,-3.62687,218.108,0.286188
241.6000,-2.96193,218.308,0.28895
241.5000,-3.74344,218.639,0.293502
241.4000,-5.57087,218.852,0.296429
241.3000,-4.64688,218.05,0.285392
241.2000,-7.84019,219.004,0.298515
241.1000,-3.95617,218.861,0.296554
241.0000,-4.9361,217.964,0.284205
240.9000,-3.17498,219.294,0.302495
240.8000,-5.66541,219.687,0.307883
240.7000,-4.71745,219.152,0.300552
240.6000,-5.64695,219.439,0.304484
240.5000,-6.15918,219.481,0.305058
240.4000,-7.89347,220.916,0.324681
240.3000,-3.24798,219.835,0.309916
240.2000,-5.22454,219.309,0.302697
240.1000,-8.17268,220.383,0.317399
240.0000,-9.19505,219.004,0.298515
239.9000,-5.72748,219.894,0.310722
239.8000,-5.51858,220.828,0.323476
239.7000,-6.7645,219.458,0.304748
239.6000,-6.41186,220.969,0.325392
239.5000,-8.3893,219.064,0.299339
239.4000,-5.50786,220.009,0.312288
239.3000,-6.56861,220.246,0.315526
239.2000,-7.25963,220.937,0.324959
239.1000,-8.08311,221.682,0.335108
239.0000,-9.6386,221.015,0.326025
238.9000,-6.65548,221.247,0.329189
238.8000,-9.53572,221.468,0.332196
238.7000,-8.62599,222.129,0.341171
238.6000,-9.61648,221.392,0.331163
238.5000,-8.42602,220.882,0.324218
238.4000,-9.7359,221.406,0.331348
238.3000,-10.6338,222.566,0.347102
238.2000,-12.1224,223.084,0.354111
238.1000,-9.97297,222.806,0.350355
238.0000,-11.7723,221.897,0.338017
237.9000,-8.75317,222.966,0.352517
237.8000,-10.6133,223.295,0.356959
237.7000,-11.8641,223.803,0.363827
237.6000,-11.8745,222.971,0.352578
237.5000,-9.96203,223.141,0.354877
237.4000,-10.9304,224.779,0.376961
237.3000,-11.6264,224.622,0.374844
237.2000,-13.1922,223.683,0.362207
237.1000,-11.7502,223.697,0.36239
237.0000,-11.9365,224.162,0.368653
236.9000,-13.0529,223.295,0.356959
236.8000,-13.2269,224.131,0.368241
236.7000,-11.4758,224.88,0.378316
236.6000,-14.2003,225.406,0.385372
236.5000,-14.0376,224.823,0.377555
236.4000,-15.6517,225.206,0.382697
236.3000,-14.2287,224.765,0.376778
236.2000,-14.1692,226.578,0.401062
236.1000,-12.4258,225.654,0.388698
236.0000,-14.1163,225.593,0.387878
235.9000,-13.366,225.772,0.390276
235.8000,-15.3831,226.788,0.403859
235.7000,-16.0079,226.744,0.40327
235.6000,-14.1198,226.54,0.400548
235.5000,-14.4377,227.111,0.408165
235.4000,-16.7863,227.345,0.411289
235.3000,-17.8318,227.868,0.418236
235.2000,-17.0623,227.877,0.418357
235.1000,-20.0306,227.534,0.413792
235.0000,-16.6078,225.936,0.392475
234.9000,-18.9841,227.367,0.411575
234.8000,-19.8124,227.36,0.411485
234.7000,-17.7863,228.667,0.428835
234.6000,-18.1244,229.681,0.442247
234.5000,-19.4401,228.644,0.428535
234.4000,-19.395,229.085,0.434371
234.3000,-18.863,228.559,0.427409
234.2000,-20.1389,229.184,0.43569
234.1000,-19.4005,228.19,0.42251
234.0000,-20.4183,229.989,0.446314
233.9000,-20.4897,229.402,0.438566
233.8000,-21.5522,230.474,0.452703
233.7000,-21.7382,229.857,0.44458
233.6000,-20.0068,229.789,0.443683
233.5000,-22.0716,229.664,0.442023
233.4000,-23.0042,230.795,0.456922
233.3000,-22.8744,231.647,0.468109
233.2000,-23.6053,231.384,0.464661
233.1000,-20.8537,230.98,0.459365
233.0000,-24.5657,231.303,0.463605
232.9000,-22.8432,231.996,0.472681
232.8000,-23.3993,229.989,0.446314
232.7000,-24.5274,231.267,0.463129
232.6000,-26.6654,232.3,0.476669
232.5000,-25.6351,231.795,0.470054
232.4000,-26.5883,231.929,0.471805
232.3000,-26.7443,232.922,0.484796
232.2000,-26.8227,233.439,0.491532
232.1000,-27.6616,233.279,0.48945
232.0000,-26.2173,232.92,0.484766
231.9000,-27.6064,234.314,0.502908
231.8000,-28.856,233.488,0.492166
231.7000,-28.3836,234.037,0.499316
231.6000,-28.1212,233.73,0.495323
231.5000,-26.9435,234.159,0.500892
231.4000,-27.6618,234.429,0.504409
231.3000,-29.0205,234.991,0.511696
231.2000,-29.789,235.398,0.516962
231.1000,-29.8535,235.584,0.519365
231.0000,-31.6937,234.309,0.502849
230.9000,-29.9642,234.932,0.510933
230.8000,-30.5875,235.493,0.518193
230.7000,-32.3112,235.379,0.516713
230.6000,-31.1152,235.213,0.514572
230.5000,-31.6297,235.664,0.520405
230.4000,-33.5976,235.47,0.517885
230.3000,-34.6184,236.181,0.527077
230.2000,-33.8067,237.863,0.548705
230.1000,-32.0294,236.22,0.527574
230.0000,-34.4181,236.22,0.527574
229.9000,-33.0251,237.41,0.542902
229.8000,-37.1241,238.187,0.552859
229.7000,-33.7581,238.429,0.555964
229.6000,-34.9716,237.837,0.548371
229.5000,-34.8571,237.372,0.542407
229.4000,-35.2164,237.324,0.541796
229.3000,-35.4075,239.029,0.563628
229.2000,-38.042,238.478,0.556587
229.1000,-38.025,239.476,0.56934
229.0000,-39.0004,239.008,0.563368
228.9000,-34.9268,240.845,0.586756
228.8000,-39.5035,239.406,0.568444
228.7000,-37.2486,239.793,0.573384
228.6000,-37.544,240.448,0.581719
228.5000,-39.874,240.768,0.585778
228.4000,-40.1501,240.643,0.584195
228.3000,-39.6363,241.161,0.590767
228.2000,-38.3746,240.889,0.587317
228.1000,-40.7037,241.492,0.594959
228.0000,-39.6807,241.148,0.590609
227.9000,-39.2552,241.62,0.596581
227.8000,-40.8614,241.592,0.596222
227.7000,-41.1238,244.443,0.632156
227.6000,-41.3501,242.568,0.608568
227.5000,-43.4872,241.288,0.592375
227.4000,-40.6717,243.347,0.618378
227.3000,-40.8249,243.336,0.618249
227.2000,-40.1462,243.202,0.616552
227.1000,-44.2307,243.205,0.616595
227.0000,-43.9329,243.3,0.617793
226.9000,-41.0434,243.429,0.619419
226.8000,-44.8689,244.239,0.629598
226.7000,-45.0975,244.765,0.636189
226.6000,-44.6447,246.38,0.656358
226.5000,-45.2178,244.379,0.631346
226.4000,-43.6099,245.422,0.644411
226.3000,-44.3077,247.034,0.664493
226.2000,-45.9033,244.925,0.638189
226.1000,-45.9825,244.848,0.637225
226.0000,-44.4716,246.337,0.655821
225.9000,-44.8668,245.791,0.649011
225.8000,-45.5609,246.434,0.657035
225.7000,-44.6177,246.218,0.654338
225.6000,-47.6266,246.971,0.663718
225.5000,-46.1064,247.503,0.670319
225.4000,-45.2982,246.715,0.660533
225.3000,-45.9587,246.912,0.662986
225.2000,-45.9019,247.557,0.670994
225.1000,-46.6352,247.95,0.67587
225.0000,-48.4756,248.467,0.682267
224.9000,-46.7098,248.857,0.687085
224.8000,-48.8819,248.6,0.683906
224.7000,-48.0038,248.345,0.680753
224.6000,-48.6833,249.568,0.695866
224.5000,-48.5985,250.561,0.70808
224.4000,-48.9023,248.343,0.680739
224.3000,-46.8244,249.566,0.695838
224.2000,-52.2302,249.683,0.697276
224.1000,-47.1261,249.654,0.696927
224.0000,-50.3603,249.419,0.694022
223.9000,-47.3237,250.096,0.702368
223.8000,-49.7785,250.995,0.713407
223.7000,-49.397,251.565,0.720392
223.6000,-48.016,251.116,0.714894
223.5000,-47.753,250.411,0.706242
223.4000,-52.4351,251.527,0.719935
223.3000,-49.5196,251.799,0.723263
223.2000,-51.3535,252.283,0.729178
223.1000,-46.2384,252.343,0.729912
223.0000,-50.1485,253.208,0.740455
222.9000,-49.9072,252.541,0.732332
222.8000,-50.0663,252.793,0.735401
222.7000,-51.9543,253.093,0.739061
222.6000,-49.2743,253.128,0.739489
222.5000,-51.5765,253.818,0.747885
222.4000,-53.3645,254.618,0.757595
222.3000,-50.7868,254.249,0.753115
222.2000,-51.1847,254.998,0.762194
222.1000,-53.1535,254.898,0.760987
222.0000,-51.2466,254.935,0.761426
221.9000,-51.1043,255.176,0.764347
221.8000,-48.0289,255.196,0.764594
221.7000,-56.911,256.182,0.776502
221.6000,-48.2937,256.497,0.7803
221.5000,-53.5329,256.716,0.782934
221.4000,-46.3719,256.388,0.778989
221.3000,-49.5262,257.022,0.786615
221.2000,-52.5844,257.464,0.791927
221.1000,-53.1243,256.95,0.785757
221.0000,-47.3584,258.246,0.80132
220.9000,-52.4462,257.161,0.788291
220.8000,-48.8612,257.969,0.797992
220.7000,-50.382,258.35,0.802555
220.6000,-51.5858,258.759,0.807451
220.5000,-50.5955,259.281,0.813693
220.4000,-51.6107,260.012,0.822411
220.3000,-50.3249,259.583,0.817305
220.2000,-53.8112,259.581,0.817277
220.1000,-52.5471,259.961,0.821803
220.0000,-50.6722,260.187,0.824502
219.9000,-48.2239,260.585,0.829235
219.8000,-50.1712,260.686,0.830434
219.7000,-51.1477,260.466,0.82782
219.6000,-53.2062,261.127,0.83567
219.5000,-51.203,260.82,0.832023
219.4000,-48.8331,261.343,0.838238
219.3000,-52.9908,262.264,0.849151
219.2000,-50.1375,262.34,0.850049
219.1000,-51.6673,262.024,0.846308
219.0000,-49.3305,263.004,0.857893
218.9000,-49.0092,262.433,0.851148
218.8000,-49.1034,262.791,0.855378
218.7000,-51.983,263.216,0.860392
218.6000,-49.2661,262.75,0.854896
218.5000,-50.6015,264.296,0.873105
218.4000,-54.2719,264.439,0.874783
218.3000,-51.1754,264.17,0.871627
218.2000,-50.5085,264.187,0.871827
218.1000,-49.2402,263.972,0.869295
218.0000,-52.8465,264.928,0.880529
217.9000,-51.3325,265.456,0.886717
217.8000,-49.8484,265.109,0.882655
217.7000,-54.572,265.283,0.884687
217.6000,-53.7628,265.983,0.892883
217.5000,-52.411,266.902,0.903611
217.4000,-52.2332,266.345,0.897106
217.3000,-52.0623,267.279,0.908007
217.2000,-52.549,267.521,0.910816
217.1000,-49.8915,268.08,0.917323
217.0000,-51.2172,268.2,0.918718
216.9000,-47.7969,268.292,0.919784
216.8000,-51.412,268.519,0.922413
216.7000,-54.0534,268.302,0.919902
216.6000,-51.8154,268.406,0.921099
216.5000,-50.814,269.31,0.931576
216.4000,-49.6509,269.553,0.934394
216.3000,-49.7157,269.875,0.938113
216.2000,-47.9732,270.232,0.942233
216.1000,-51.0972,270.468,0.944952
216.0000,-50.9527,270.556,0.945971
215.9000,-54.2036,270.974,0.950787
215.8000,-51.1265,271.226,0.953682
215.7000,-50.9174,271.484,0.956652
215.6000,-50.807,271.251,0.953969
215.5000,-50.8131,271.629,0.958319
215.4000,-47.6457,272.031,0.962938
215.3000,-50.773,272.761,0.971302
215.2000,-52.6633,272.674,0.970303
215.1000,-47.7552,273.27,0.977122
215.0000,-53.2396,273.404,0.978651
214.9000,-49.0857,273.343,0.977964
214.8000,-52.2292,274.105,0.986657
214.7000,-50.5766,274.27,0.988543
214.6000,-49.604,274.321,0.989124
214.5000,-47.6054,275.112,0.998126
214.4000,-42.9856,275.16,0.998666
214.3000,-50.3285,275.927,1.00738
214.2000,-50.6136,276.089,1.00921
214.1000,-49.8942,276.112,1.00947
214.0000,-51.8007,276.329,1.01193
213.9000,-54.7352,277.26,1.02247
213.8000,-48.7821,277.799,1.02854
213.7000,-48.8625,277.308,1.02301
213.6000,-51.2205,277.487,1.02503
213.5000,-51.4835,277.71,1.02755
213.4000,-52.6337,278.643,1.03805
213.3000,-49.9877,279.212,1.04444
213.2000,-53.7061,278.886,1.04079
213.1000,-51.927,280.048,1.05382
213.0000,-50.2032,279.882,1.05197
212.9000,-49.5093,280.249,1.05608
212.8000,-48.0545,280.413,1.05791
212.7000,-49.0954,280.518,1.05909
212.6000,-48.2647,281.656,1.07179
212.5000,-48.5843,281.077,1.06533
212.4000,-52.3029,281.487,1.06991
212.3000,-53.3502,282.895,1.08558
212.2000,-50.2522,283.707,1.09458
212.1000,-51.9216,282.814,1.08468
212.0000,-52.515,283.699,1.0945
211.9000,-54.7275,284.249,1.10059
211.8000,-50.5589,284.591,1.10438
211.7000,-50.4317,285.346,1.11271
211.6000,-57.0353,284.639,1.1049
211.5000,-53.2157,285.72,1.11683
211.4000,-51.4593,286.527,1.12571
211.3000,-52.9696,286.892,1.12971
211.2000,-53.5536,286.91,1.12991
211.1000,-52.0833,287.455,1.13589
211.0000,-55.0671,288.598,1.1484
210.9000,-55.9504,288.337,1.14555
210.8000,-51.5201,289.081,1.15367
210.7000,-50.7194,289.264,1.15567
210.6000,-50.8019,290.335,1.16733
210.5000,-52.7799,289.706,1.16049
210.4000,-48.4268,290.964,1.17416
210.3000,-52.8681,290.9,1.17347
210.2000,-55.1559,291.95,1.18484
210.1000,-55.8981,292.121,1.18669
210.0000,-53.2359,292.189,1.18743
209.9000,-48.9473,293.208,1.19844
209.8000,-50.9949,293.274,1.19915
209.7000,-57.39,294.173,1.20882
209.6000,-50.4951,294.696,1.21445
209.5000,-53.9515,296.192,1.23047
209.4000,-56.7247,296.003,1.22845
209.3000,-55.8895,296.435,1.23307
209.2000,-55.666,297.822,1.24786
209.1000,-52.585,298.56,1.2557
209.0000,-52.4878,298.617,1.2563
208.9000,-53.2417,299.162,1.26209
208.8000,-52.6324,299.557,1.26628
208.7000,-54.6098,299.997,1.27093
208.6000,-56.7944,301.62,1.28807
208.5000,-54.9196,301.411,1.28586
208.4000,-51.3123,302.055,1.29265
208.3000,-57.5263,302.664,1.29904
208.2000,-50.346,303.296,1.30567
208.1000,-51.5694,304.061,1.31368
208.0000,-49.6948,305.448,1.32816
207.9000,-53.5584,305.677,1.33055
207.8000,-52.2943,306.239,1.33639
207.7000,-54.7239,306.998,1.34428
207.6000,-59.3182,308.643,1.36131
207.5000,-50.4191,308.515,1.35999
207.4000,-49.6435,309.196,1.36702
207.3000,-52.371,309.776,1.373
207.2000,-53.6486,310.678,1.38228
207.1000,-46.9385,310.926,1.38483
207.0000,-48.8938,311.935,1.39517
206.9000,-47.7117,313.108,1.40717
206.8000,-47.8708,312.962,1.40567
206.7000,-47.09,314.14,1.41768
206.6000,-46.494,315.062,1.42705
206.5000,-48.132,315.975,1.43632
206.4000,-43.1916,316.512,1.44175
206.3000,-48.7159,317.668,1.45343
206.2000,-41.5184,318.283,1.45963
206.1000,-47.9492,319.483,1.47169
206.0000,-45.2673,320.719,1.48408
205.9000,-48.7452,321.413,1.49101
205.8000,-43.7432,321.818,1.49506
205.7000,-49.0974,322.604,1.50288
205.6000,-39.8515,323.623,1.51302
205.5000,-37.3951,324.368,1.52041
205.4000,-42.5726,326.138,1.53791
205.3000,-31.098,326.837,1.5448
205.2000,-36.846,328.108,1.5573
205.1000,-37.4604,328.845,1.56452
205.0000,-31.2258,329.529,1.57122
204.9000,-44.8751,330.528,1.58098
204.8000,-25.9058,332.167,1.59693
204.7000,-27.3152,332.927,1.60431
204.6000,-30.3355,333.448,1.60936
204.5000,-30.7583,334.536,1.61988
204.4000,-30.534,335.992,1.63392
204.3000,-36.5313,337.18,1.64534
204.2000,-25.93,338.616,1.65909
204.1000,-20.0578,339.161,1.6643
204.0000,-29.4249,340.27,1.67487
203.9000,-30.537,341.778,1.68921
203.8000,-23.9872,344.005,1.71027
203.7000,-26.3144,344.168,1.71181
203.6000,-21.3577,345.515,1.7245
203.5000,-21.4563,346.542,1.73413
203.4000,-30.7008,348.57,1.75311
203.3000,-15.7707,349.068,1.75775
203.2000,-27.091,349.79,1.76448
203.1000,-15.6189,351.434,1.77974
203.0000,-23.0216,352.205,1.78688
202.9000,-18.0239,353.877,1.80232
202.8000,-16.5976,355.171,1.81422
202.7000,-28.2835,355.536,1.81757
202.6000,-6.91469,356.754,1.82874
202.5000,-14.0555,358.577,1.84539
202.4000,-8.29352,360.075,1.85901
202.3000,-3.48028,361.229,1.86947
202.2000,-10.0704,362.901,1.88459
202.1000,-6.61916,364.302,1.89721
202.0000,-0.703526,366.017,1.9126
201.9000,-2.73975,367.391,1.92489
201.8000,-1.45949,369.828,1.94659
201.7000,-1.83787,371.358,1.96016
201.6000,4.96601,371.944,1.96534
201.5000,-2.12493,373.882,1.98242
201.4000,1.12201,374.607,1.9888
201.3000,13.5173,376.353,2.00411
201.2000,3.7357,377.772,2.0165
201.1000,7.75748,379.706,2.03334
201.0000,8.99987,381.307,2.04722
200.9000,10.6637,382.67,2.059
200.8000,7.07182,383.37,2.06503
200.7000,13.3517,384.274,2.07282
200.6000,0.865228,387.224,2.0981
200.5000,8.25757,388.318,2.10744
200.4000,18.1178,390.551,2.12643
200.3000,12.9444,391.554,2.13492
200.2000,16.8364,393.518,2.15151
200.1000,16.9313,395.488,2.16808
200.0000,23.2664,396.704,2.17827
199.9000,18.1342,398.806,2.19583
199.8000,33.2473,400.969,2.21382
199.7000,23.5296,402.131,2.22345
199.6000,31.5814,403.348,2.23351
199.5000,31.3105,405.304,2.24962
199.4000,35.186,406.547,2.25983
199.3000,29.7045,407.686,2.26916
199.2000,15.0699,409.308,2.28241
199.1000,29.1358,411.087,2.29689
199.0000,26.6584,412.784,2.31066
198.9000,35.3707,414.502,2.32454
198.8000,26.592,416.409,2.3399
198.7000,17.9958,418.495,2.35663
198.6000,39.6712,420.167,2.36999
198.5000,23.268,421.517,2.38074
198.4000,36.1405,424.313,2.40292
198.3000,28.4017,425.937,2.41575
198.2000,24.1692,426.22,2.41798
198.1000,24.5814,428.577,2.43651
198.0000,35.526,429.969,2.44741
197.9000,16.9112,431.83,2.46195
197.8000,27.9832,433.547,2.47531
197.7000,38.8509,435.296,2.48887
197.6000,27.7527,437.074,2.50261
197.5000,27.1183,437.801,2.50822
197.4000,35.617,440.505,2.529
197.3000,13.9413,441.908,2.53974
197.2000,38.0433,442.68,2.54564
197.1000,25.2225,445.484,2.56698
197.0000,38.1199,447.685,2.58366
196.9000,40.9222,448.585,2.59046
196.8000,21.9892,450.171,2.60242
196.7000,27.2136,452.197,2.61763
196.6000,38.8604,453.44,2.62694
196.5000,45.3201,455.506,2.64236
196.4000,39.2937,456.557,2.65019
196.3000,30.8544,459.063,2.66879
196.2000,34.9753,460.242,2.6775
196.1000,25.2366,462.222,2.69211
196.0000,33.0495,463.423,2.70094
195.9000,27.7237,465.276,2.71452
195.8000,35.2411,466.282,2.72188
195.7000,34.4695,468.616,2.73889
195.6000,30.7471,469.582,2.74591
195.5000,45.8689,470.786,2.75465
195.4000,20.0847,472.408,2.76638
195.3000,46.5041,473.862,2.77688
195.2000,29.2553,474.697,2.78289
195.1000,44.6339,476.891,2.79865
195.0000,25.0254,477.318,2.80171
194.9000,37.0801,477.997,2.80657
194.8000,38.7815,480.229,2.82251
194.7000,27.3434,480.988,2.82791
194.6000,32.9886,481.902,2.83441
194.5000,22.0597,483.521,2.84589
194.4000,33.5376,484.747,2.85457
194.3000,18.8681,485.555,2.86028
194.2000,34.4541,486.971,2.87027
194.1000,25.4913,488.074,2.87803
194.0000,19.1313,489.836,2.8904
193.9000,30.32,491.142,2.89953
193.8000,33.9965,492.969,2.91229
193.7000,25.9387,493.8,2.91808
193.6000,19.9033,494.367,2.92203
193.5000,34.6246,495.683,2.93116
193.4000,25.3625,496.574,2.93734
193.3000,26.0171,496.974,2.94011
193.2000,14.9435,497.499,2.94374
193.1000,28.339,499.882,2.96019
193.0000,28.6876,500.601,2.96514
192.9000,12.2886,501.442,2.97092
192.8000,27.6175,501.422,2.97078
192.7000,14.9403,502.688,2.97947
192.6000,16.4176,504.612,2.99264
192.5000,24.4951,506.086,3.0027
192.4000,14.9448,506.59,3.00614
192.3000,8.44342,507.63,3.01322
192.2000,31.5797,508.236,3.01733
192.1000,17.7056,509.517,3.02602
192.0000,11.3295,510.675,3.03386
191.9000,18.4843,511.956,3.04252
191.8000,25.8244,512.025,3.04299
191.7000,26.7036,512.95,3.04923
191.6000,30.3867,513.396,3.05223
191.5000,12.0361,514.157,3.05735
191.4000,15.524,515.804,3.06842
191.3000,15.6604,516.8,3.07509
191.2000,29.1071,517.268,3.07822
191.1000,14.4656,518.5,3.08646
191.0000,25.5165,520.341,3.09874
190.9000,2.06354,520.516,3.09991
190.8000,18.9466,522.029,3.10996
190.7000,5.54171,524.048,3.12335
190.6000,16.1163,524.026,3.1232
190.5000,13.4187,525.352,3.13197
190.4000,3.6772,526.468,3.13933
190.3000,21.9484,527.293,3.14477
190.2000,19.5844,527.755,3.1478
190.1000,14.5953,528.184,3.15063
190.0000,7.53486,529.724,3.16074

##### Extended Information
[Comments]
Sample name,SHND.928.BUFFER+PROTEIN
Comment,BUFFER + PROTEIN 
User,SADIYYAH HOLSEY
Division
Company,Saint Mary's College

[Detailed Information]
Creation date,9/28/2022 2:39 PM

Data array type,Linear data array * 3
Horizontal axis,Wavelength [nm]
Vertical axis(1),CD [mdeg]
Vertical axis(2),HT [V]
Vertical axis(3),Abs
Start,320 nm
End,190 nm
Data interval,0.1 nm
Data points,1301    

[Measurement Information]
Instrument name,J-1500
Model name,J-1500
Serial No.,B051061638

Detector,PM-539
Detector S/N,B051061638
  Lock-in amp.,X mode
  HT volt,Auto

Accessory,PTC-517
Accessory S/N,B026561646
  Temperature,27.41 C
  Control sensor,Holder
  Monitor sensor,Holder

Measurement date,9/28/2022 2:39 PM

CD Overload detect,995
Photometric mode,CD, HT, Abs
Measure range,320 - 190 nm
Data pitch,0.1 nm
CD scale,20 mdeg/0.05 dOD
FL scale,20 mdeg/0.05 dOD
D.I.T.,8 msec
Bandwidth,2.00 nm
Start mode,Immediately
Scanning mode,Continuous
Scanning speed,200 nm/min
Baseline correction,None
Shutter control,Auto
No. of cycle,1/1
N2 Flowmeter,Manual

Solvent,NaPO4 buffer

