TITLE,SL + BM Additive
DATA TYPE,
ORIGIN,JASCO
OWNER,
DATE,22/09/29
TIME,14:09:57
SPECTROMETER/DATA SYSTEM,
LOCALE,1033
RESOLUTION,
DELTAX,-0.1
XUNITS,NANOMETERS
YUNITS,CD [mdeg]
Y2UNITS,HT [V]
Y3UNITS,ABSORBANCE
FIRSTX,  320.0000
LASTX,  190.0000
NPOINTS,    1301
FIRSTY,     0.40216
MAXY,     7.78821
MINY,    -8.26285
XYDATA
320.0000,0.402164,208.501,0.151382
319.9000,1.70679,209.368,0.163753
319.8000,2.87858,207.749,0.140609
319.7000,0.207452,208.77,0.155219
319.6000,0.904998,207.886,0.142574
319.5000,0.3065,208.446,0.150588
319.4000,2.25071,207.984,0.143971
319.3000,0.602419,208.574,0.152418
319.2000,0.38844,208.163,0.146535
319.1000,1.0669,208.415,0.15015
319.0000,1.7268,208.229,0.147492
318.9000,0.590872,208.493,0.151268
318.8000,0.733438,208.975,0.158147
318.7000,0.932682,208.197,0.147021
318.6000,1.63586,208.071,0.145221
318.5000,0.862224,208.955,0.157856
318.4000,1.30868,208.169,0.146632
318.3000,1.21415,208.317,0.14874
318.2000,2.59213,208.505,0.15143
318.1000,2.94349,207.829,0.141762
318.0000,0.213692,208.48,0.151074
317.9000,-0.172596,208.252,0.147816
317.8000,0.668858,208.497,0.151317
317.7000,0.115862,208.381,0.149664
317.6000,2.31123,208.056,0.14501
317.5000,1.17588,207.989,0.144052
317.4000,1.51685,207.866,0.142282
317.3000,1.26679,208.435,0.150426
317.2000,1.87611,207.848,0.142023
317.1000,1.58593,208.279,0.148205
317.0000,-1.08025,207.691,0.13978
316.9000,-0.533237,207.746,0.140561
316.8000,1.65944,208.324,0.148838
316.7000,2.51797,208.081,0.145367
316.6000,2.7196,208.114,0.145837
316.5000,0.699224,208.487,0.151171
316.4000,2.24652,208.063,0.145107
316.3000,1.6678,208.023,0.144539
316.2000,-0.0323963,208.049,0.144912
316.1000,2.19686,208.024,0.144555
316.0000,0.42569,207.732,0.140365
315.9000,1.26459,208.482,0.151106
315.8000,2.4959,208.142,0.146243
315.7000,1.3365,207.56,0.137895
315.6000,1.125,207.937,0.143305
315.5000,1.18114,208.101,0.145659
315.4000,2.74015,207.563,0.137943
315.3000,1.78651,207.994,0.144117
315.2000,1.59505,208.297,0.148465
315.1000,1.107,207.561,0.137911
315.0000,1.4732,207.679,0.139602
314.9000,0.891457,207.57,0.138041
314.8000,2.12897,207.759,0.140755
314.7000,1.83636,207.942,0.14337
314.6000,1.46438,207.679,0.139602
314.5000,1.4044,207.283,0.133925
314.4000,2.57142,207.695,0.139829
314.3000,2.00711,207.621,0.138773
314.2000,0.956551,207.604,0.138529
314.1000,2.55018,207.367,0.13513
314.0000,1.35022,207.96,0.14363
313.9000,2.40085,207.592,0.13835
313.8000,1.69268,207.181,0.13246
313.7000,0.7205,207.555,0.13783
313.6000,-0.133998,207.084,0.131059
313.5000,2.38692,207.53,0.137472
313.4000,0.849523,207.656,0.139277
313.3000,2.91511,207.9,0.14277
313.2000,-0.292984,207.444,0.136236
313.1000,2.79971,207.986,0.144003
313.0000,3.18166,207.481,0.136756
312.9000,-0.0203161,208.134,0.146129
312.8000,0.736678,207.656,0.139277
312.7000,0.987173,207.269,0.133713
312.6000,0.800313,207.577,0.138139
312.5000,0.0393201,207.645,0.139114
312.4000,0.939894,208.35,0.14921
312.3000,0.790092,207.708,0.140024
312.2000,2.76345,207.142,0.13189
312.1000,1.01032,208.182,0.146811
312.0000,1.44875,207.632,0.138935
311.9000,1.17715,207.754,0.140674
311.8000,2.13478,207.952,0.143516
311.7000,0.771215,207.394,0.13552
311.6000,1.68138,207.384,0.135374
311.5000,0.863831,207.546,0.1377
311.4000,1.2104,207.468,0.136578
311.3000,2.34126,207.788,0.141162
311.2000,1.3239,207.528,0.137439
311.1000,0.81929,207.272,0.133762
311.0000,0.336501,207.701,0.139927
310.9000,1.40005,207.741,0.140495
310.8000,1.09196,207.844,0.141974
310.7000,1.08399,207.837,0.141876
310.6000,1.08058,207.623,0.138805
310.5000,0.502268,207.498,0.137
310.4000,0.879904,207.695,0.139829
310.3000,1.03803,207.658,0.139309
310.2000,-0.392729,207.76,0.140772
310.1000,2.43039,207.125,0.131646
310.0000,0.908222,207.78,0.141048
309.9000,-0.371911,207.9,0.14277
309.8000,1.19755,207.922,0.143094
309.7000,1.50019,207.683,0.139667
309.6000,-0.780132,207.828,0.141746
309.5000,1.39706,207.822,0.141649
309.4000,0.871982,207.789,0.141178
309.3000,-0.650829,208.544,0.151997
309.2000,1.21516,208.094,0.145545
309.1000,2.39763,208.257,0.147881
309.0000,2.04087,208.64,0.153357
308.9000,0.492052,208.304,0.148562
308.8000,1.93827,208.51,0.151511
308.7000,2.09991,207.908,0.142883
308.6000,2.58831,207.677,0.139569
308.5000,1.46184,207.263,0.133632
308.4000,1.55043,207.158,0.132118
308.3000,2.96643,207.93,0.143208
308.2000,-0.535205,206.894,0.128321
308.1000,2.9715,207.765,0.140837
308.0000,2.22092,207.317,0.134413
307.9000,1.21901,206.911,0.128566
307.8000,1.52625,207.877,0.142445
307.7000,0.428603,208.335,0.149
307.6000,1.74657,207.533,0.137505
307.5000,1.90945,207.793,0.141243
307.4000,1.18112,208.651,0.153519
307.3000,0.581707,207.88,0.142493
307.2000,2.50963,207.901,0.142786
307.1000,1.86311,207.222,0.133046
307.0000,1.42577,207.397,0.135553
306.9000,0.297323,206.167,0.117856
306.8000,2.07162,208.344,0.149129
306.7000,1.44334,207.938,0.143322
306.6000,1.09729,208.066,0.145156
306.5000,1.65125,207.988,0.144036
306.4000,0.518237,207.986,0.144003
306.3000,0.608531,207.467,0.136561
306.2000,1.68317,207.831,0.141779
306.1000,1.19001,207.845,0.14199
306.0000,2.20337,207.863,0.14225
305.9000,0.352965,207.853,0.142104
305.8000,-0.869624,208.495,0.151285
305.7000,-1.22798,207.87,0.142347
305.6000,1.22636,207.849,0.142039
305.5000,1.43826,207.478,0.136724
305.4000,0.6744,207.72,0.140187
305.3000,0.0646731,208.038,0.14475
305.2000,-1.52073,208.096,0.145577
305.1000,1.32735,207.518,0.137293
305.0000,0.274573,207.496,0.136984
304.9000,-0.759211,207.918,0.143029
304.8000,0.135002,207.34,0.134739
304.7000,1.87938,208.004,0.144263
304.6000,-1.45014,207.972,0.143809
304.5000,1.88116,206.397,0.121174
304.4000,1.22412,208.234,0.147557
304.3000,-0.367057,207.444,0.136236
304.2000,0.0308267,206.979,0.129544
304.1000,1.89295,207.373,0.135211
304.0000,0.180777,207.078,0.130978
303.9000,1.36422,207.428,0.136008
303.8000,0.888174,206.934,0.128908
303.7000,1.3964,207.435,0.136106
303.6000,1.04285,207.06,0.130717
303.5000,1.94459,207.661,0.139342
303.4000,1.20829,207.542,0.137635
303.3000,1.57699,207.22,0.133014
303.2000,0.61909,207.044,0.130489
303.1000,0.511792,207.406,0.135683
303.0000,0.767477,207.493,0.136935
302.9000,2.93383,208.07,0.145204
302.8000,1.77364,207.125,0.131646
302.7000,-1.15431,206.605,0.124162
302.6000,2.24576,206.003,0.115484
302.5000,2.73776,206.746,0.126201
302.4000,0.814301,207.458,0.136431
302.3000,0.922041,207.316,0.134397
302.2000,0.437163,207.854,0.14212
302.1000,1.1863,208.01,0.144344
302.0000,0.550049,207.609,0.138594
301.9000,0.727686,207.272,0.133762
301.8000,0.474645,207.953,0.143533
301.7000,1.20166,207.134,0.131776
301.6000,1.76954,207.206,0.132818
301.5000,1.60731,206.576,0.123753
301.4000,0.67994,206.94,0.128989
301.3000,-1.6021,207.21,0.132867
301.2000,0.894053,207.411,0.135764
301.1000,1.17269,207.224,0.133079
301.0000,0.221184,206.413,0.121402
300.9000,0.905599,206.951,0.129152
300.8000,2.468,206.948,0.129104
300.7000,-0.048106,206.8,0.126968
300.6000,0.917815,207.461,0.13648
300.5000,-1.42959,207.295,0.134088
300.4000,1.35904,207.239,0.13329
300.3000,1.05346,207.214,0.132932
300.2000,0.893264,206.917,0.128663
300.1000,0.0453571,206.655,0.12488
300.0000,1.68277,207.423,0.135927
299.9000,1.00461,207.816,0.141568
299.8000,-0.291925,207.1,0.131287
299.7000,0.963031,207.333,0.134641
299.6000,0.507308,206.685,0.12532
299.5000,-0.376452,207.406,0.135683
299.4000,2.06259,206.447,0.121892
299.3000,1.06223,206.89,0.128272
299.2000,0.848407,206.528,0.123052
299.1000,2.02521,207.079,0.130994
299.0000,1.1564,207.243,0.133339
298.9000,1.98007,206.787,0.126788
298.8000,1.7236,206.852,0.127718
298.7000,0.160074,207.556,0.137846
298.6000,0.584995,206.785,0.126756
298.5000,-0.395538,207.56,0.137895
298.4000,0.543221,206.737,0.126071
298.3000,2.66585,206.847,0.127653
298.2000,1.81118,206.115,0.117104
298.1000,-0.286961,207.043,0.130473
298.0000,1.94727,206.912,0.128582
297.9000,1.6701,207.267,0.133697
297.8000,0.745704,207.35,0.134885
297.7000,2.90658,207.176,0.132378
297.6000,0.328539,206.811,0.127131
297.5000,0.451281,206.623,0.124423
297.4000,0.754874,206.986,0.129658
297.3000,0.858913,207.633,0.138952
297.2000,0.881782,206.853,0.127734
297.1000,0.480616,206.902,0.128436
297.0000,-0.482024,207.153,0.132053
296.9000,1.82139,206.693,0.125435
296.8000,1.37309,207.313,0.134348
296.7000,1.97574,205.889,0.113832
296.6000,2.38381,206.968,0.129397
296.5000,1.00599,207.39,0.135455
296.4000,0.575218,207.96,0.14363
296.3000,0.215459,207.402,0.135634
296.2000,1.54069,205.72,0.111392
296.1000,3.36233,207.425,0.135959
296.0000,-0.264501,206.869,0.127963
295.9000,-0.314177,206.892,0.128305
295.8000,2.11121,206.46,0.122072
295.7000,2.14428,207.085,0.131075
295.6000,1.99874,206.686,0.125337
295.5000,-0.871902,206.999,0.129837
295.4000,1.35689,206.338,0.120324
295.3000,1.64341,206.899,0.128403
295.2000,1.14947,206.928,0.12881
295.1000,2.05364,206.607,0.124194
295.0000,-0.403806,206.711,0.125696
294.9000,0.748637,206.903,0.128452
294.8000,0.767643,206.823,0.12731
294.7000,1.60493,207.357,0.134983
294.6000,0.22487,206.601,0.124113
294.5000,1.28109,206.647,0.124766
294.4000,-1.29927,206.24,0.118902
294.3000,0.0284137,206.355,0.120569
294.2000,1.65014,205.881,0.113717
294.1000,-0.741131,207.125,0.131646
294.0000,-0.231148,206.609,0.124227
293.9000,0.651204,206.449,0.121925
293.8000,2.15931,206.44,0.121794
293.7000,0.594725,206.59,0.12395
293.6000,0.359384,206.406,0.121304
293.5000,1.68607,206.735,0.126038
293.4000,1.14302,206.491,0.122529
293.3000,0.823459,206.213,0.11851
293.2000,-0.416101,206.853,0.127734
293.1000,2.82274,206.496,0.122594
293.0000,-0.0732289,206.656,0.124896
292.9000,0.700892,206.64,0.124667
292.8000,0.541795,206.185,0.118117
292.7000,0.603294,206.388,0.121043
292.6000,1.31024,206.767,0.126495
292.5000,0.661693,206.295,0.119703
292.4000,0.777485,206.414,0.121419
292.3000,0.24915,207.352,0.134918
292.2000,0.0607205,206.395,0.121141
292.1000,0.10365,205.937,0.114535
292.0000,0.397859,205.307,0.105425
291.9000,1.57407,205.887,0.113815
291.8000,2.49455,205.744,0.111736
291.7000,1.20673,206.665,0.125027
291.6000,1.71632,206.353,0.120536
291.5000,1.38137,206.274,0.119393
291.4000,2.30932,206.742,0.126136
291.3000,1.16907,205.753,0.111867
291.2000,0.412162,205.867,0.11352
291.1000,1.44894,206.18,0.118036
291.0000,0.900522,205.444,0.107409
290.9000,1.62497,206.449,0.121925
290.8000,1.56033,206.005,0.115517
290.7000,0.599267,206.243,0.118951
290.6000,2.17934,206.279,0.119474
290.5000,-0.454626,204.834,0.0985604
290.4000,1.30511,205.62,0.10995
290.3000,1.67812,206.094,0.116793
290.2000,1.75115,206.213,0.11851
290.1000,1.50484,206.07,0.11645
290.0000,0.119363,206.205,0.118396
289.9000,1.69548,206.086,0.116679
289.8000,0.146049,206.655,0.12488
289.7000,-0.93547,205.546,0.108885
289.6000,0.353463,206.302,0.119801
289.5000,0.768421,206.076,0.116531
289.4000,1.75712,206.606,0.124178
289.3000,0.592632,206.085,0.116662
289.2000,0.296481,206.38,0.120929
289.1000,0.485178,205.953,0.114764
289.0000,0.539228,206.196,0.118265
288.9000,1.04638,206.332,0.120226
288.8000,0.0862887,206.347,0.120455
288.7000,2.42515,205.746,0.111769
288.6000,0.559377,206.222,0.118641
288.5000,1.5757,205.842,0.11316
288.4000,1.471,206.925,0.128778
288.3000,0.730159,206.261,0.119213
288.2000,2.44906,206.027,0.115828
288.1000,1.44206,206.133,0.117365
288.0000,3.03089,205.991,0.115304
287.9000,0.597972,205.899,0.113979
287.8000,0.148405,206.199,0.118314
287.7000,1.36074,206.55,0.123378
287.6000,1.75536,206.059,0.116286
287.5000,1.00977,206.482,0.122399
287.4000,0.188814,206.065,0.116384
287.3000,0.468076,206.031,0.115893
287.2000,0.747359,206.148,0.117578
287.1000,1.52638,206.538,0.123198
287.0000,1.69213,206.87,0.127979
286.9000,0.96841,206.317,0.120013
286.8000,-0.564072,207.53,0.137472
286.7000,3.28255,205.768,0.112096
286.6000,2.11062,205.787,0.112358
286.5000,0.874716,206.716,0.125761
286.4000,1.87943,206.115,0.117104
286.3000,3.40385,206.585,0.123884
286.2000,0.496974,206.741,0.12612
286.1000,0.507458,206.461,0.122088
286.0000,2.44063,206.057,0.11627
285.9000,1.16299,206.43,0.121647
285.8000,0.591005,205.958,0.11483
285.7000,-0.361001,206.477,0.122317
285.6000,0.779435,205.645,0.110311
285.5000,0.847169,206.469,0.122202
285.4000,0.343507,205.695,0.111032
285.3000,1.72948,206.049,0.116155
285.2000,1.08091,205.927,0.114388
285.1000,-0.0403207,206.164,0.117807
285.0000,1.40342,205.662,0.110556
284.9000,0.160682,205.78,0.11226
284.8000,0.35628,206.977,0.129527
284.7000,0.0768891,206.231,0.118771
284.6000,0.754849,206.303,0.119817
284.5000,1.21092,206.35,0.120487
284.4000,-0.687718,205.918,0.114257
284.3000,1.32425,205.955,0.114797
284.2000,2.04153,206.358,0.120602
284.1000,0.660066,205.679,0.110802
284.0000,1.8341,205.711,0.111261
283.9000,1.91773,206.02,0.11573
283.8000,1.47323,205.916,0.114224
283.7000,0.740866,206.262,0.119229
283.6000,0.640929,206.252,0.119082
283.5000,2.25487,205.14,0.102996
283.4000,1.40853,206.201,0.118346
283.3000,1.38427,206.173,0.117938
283.2000,1.07831,206.2,0.11833
283.1000,1.80872,205.299,0.10531
283.0000,0.751292,206.938,0.128957
282.9000,0.957272,206.252,0.119082
282.8000,0.527288,205.94,0.114568
282.7000,0.119383,206.224,0.118673
282.6000,0.439135,206.849,0.127685
282.5000,0.598417,206.124,0.117234
282.4000,0.482467,206.008,0.11555
282.3000,2.42551,205.615,0.109885
282.2000,1.7122,205.85,0.113275
282.1000,1.13144,205.979,0.115141
282.0000,1.80891,206.166,0.11784
281.9000,2.02089,206.803,0.127017
281.8000,1.20348,206.805,0.12705
281.7000,2.12394,205.555,0.109016
281.6000,0.545617,205.636,0.110179
281.5000,1.15599,206.411,0.121369
281.4000,1.41263,206.607,0.124194
281.3000,0.465325,206.625,0.124455
281.2000,0.417022,205.959,0.114846
281.1000,0.876922,205.336,0.105835
281.0000,0.479535,205.304,0.105376
280.9000,1.40388,205.909,0.114126
280.8000,-0.940238,207.084,0.131059
280.7000,0.958258,205.549,0.108918
280.6000,1.24511,205.568,0.109196
280.5000,0.0223488,206.61,0.124243
280.4000,1.57898,205.779,0.112243
280.3000,0.126646,206.44,0.121794
280.2000,-0.587032,205.45,0.107491
280.1000,-1.52765,206.011,0.115599
280.0000,1.20977,206.829,0.127392
279.9000,-0.346771,206.359,0.120618
279.8000,1.60382,206.307,0.119867
279.7000,0.995742,206.287,0.119589
279.6000,0.442352,206.037,0.115975
279.5000,-0.792958,205.989,0.115288
279.4000,2.06155,206.482,0.122399
279.3000,1.26301,205.587,0.109475
279.2000,1.57047,206.367,0.120732
279.1000,0.0895364,206.446,0.121876
279.0000,0.270533,205.555,0.109016
278.9000,0.989871,206.206,0.118412
278.8000,1.55399,206.54,0.123231
278.7000,-0.608564,205.685,0.110884
278.6000,1.25297,206.677,0.125206
278.5000,1.25559,206.364,0.1207
278.4000,1.09174,206.571,0.123672
278.3000,2.27173,206.397,0.121174
278.2000,0.452074,206.336,0.120291
278.1000,1.38301,206.712,0.125712
278.0000,0.247772,205.887,0.113815
277.9000,0.548247,206.53,0.123084
277.8000,1.95939,206.299,0.119752
277.7000,1.75248,206.443,0.121827
277.6000,0.45831,206.211,0.118494
277.5000,1.64216,206.162,0.117774
277.4000,2.31318,206.781,0.126707
277.3000,1.87273,206.994,0.129772
277.2000,0.52524,206.496,0.122594
277.1000,0.784273,206.402,0.121239
277.0000,0.0178356,206.545,0.123297
276.9000,0.332205,206.099,0.116875
276.8000,1.09886,206.291,0.119638
276.7000,1.47912,206.012,0.115615
276.6000,1.81462,206.095,0.116809
276.5000,0.474509,206.846,0.127637
276.4000,1.75519,206.155,0.117676
276.3000,0.45447,206.512,0.122823
276.2000,0.832477,206.87,0.127979
276.1000,1.2376,207.253,0.133486
276.0000,0.120593,206.163,0.11779
275.9000,-0.369124,206.272,0.11936
275.8000,-0.565099,206.461,0.122088
275.7000,2.14167,206.55,0.123378
275.6000,0.49346,206.055,0.116237
275.5000,-0.634493,206.099,0.116875
275.4000,0.412188,206.976,0.129511
275.3000,0.443899,206.826,0.127343
275.2000,0.219346,206.089,0.116727
275.1000,0.871828,206.747,0.126217
275.0000,0.833655,206.452,0.121957
274.9000,1.65771,206.253,0.119098
274.8000,0.67743,207.081,0.13101
274.7000,0.37649,206.324,0.120112
274.6000,0.463479,207.253,0.133486
274.5000,1.6842,206.684,0.125304
274.4000,0.641852,206.451,0.121941
274.3000,0.932292,206.6,0.124096
274.2000,-0.269902,206.857,0.1278
274.1000,2.14715,207.2,0.13272
274.0000,1.09273,206.413,0.121402
273.9000,1.43313,206.394,0.121124
273.8000,1.00723,206.265,0.119262
273.7000,1.27805,206.117,0.117136
273.6000,1.41085,206.122,0.117202
273.5000,1.17469,207.079,0.130994
273.4000,0.0767603,206.128,0.117284
273.3000,0.271885,206.679,0.125239
273.2000,0.975562,206.954,0.129185
273.1000,1.0421,206.768,0.126511
273.0000,-0.729375,206.173,0.117938
272.9000,0.656533,206.298,0.119736
272.8000,1.36015,206.386,0.12101
272.7000,0.973636,206.593,0.123998
272.6000,-0.657598,207.338,0.134707
272.5000,-0.912594,206.285,0.119556
272.4000,2.0105,206.503,0.122692
272.3000,1.23004,205.773,0.112161
272.2000,0.257026,207.194,0.132639
272.1000,-0.339886,206.678,0.125222
272.0000,0.579093,206.099,0.116875
271.9000,1.82274,206.682,0.125271
271.8000,0.208672,206.649,0.124798
271.7000,1.16834,206.639,0.124651
271.6000,0.883386,206.926,0.128794
271.5000,-0.229041,206.767,0.126495
271.4000,0.229745,206.55,0.123378
271.3000,-0.409272,206.631,0.124537
271.2000,0.986816,207.46,0.136464
271.1000,0.962797,206.616,0.124325
271.0000,1.70125,206.65,0.124814
270.9000,0.343094,206.293,0.11967
270.8000,0.894173,206.86,0.127832
270.7000,0.65699,206.97,0.129414
270.6000,1.49667,207.017,0.130098
270.5000,0.679612,207.215,0.132948
270.4000,-0.0802905,207.247,0.133404
270.3000,1.59064,207.033,0.130326
270.2000,1.0028,206.622,0.124406
270.1000,-0.396996,206.793,0.12687
270.0000,-0.0441289,207.278,0.133844
269.9000,0.587126,206.559,0.123509
269.8000,1.14464,206.9,0.128419
269.7000,0.485392,206.735,0.126038
269.6000,1.03003,206.966,0.129365
269.5000,1.78642,206.793,0.12687
269.4000,1.23882,207.508,0.137147
269.3000,0.281185,207.05,0.13057
269.2000,-0.866019,206.72,0.125826
269.1000,-0.18968,206.346,0.120438
269.0000,0.734076,206.421,0.121517
268.9000,1.60491,206.979,0.129544
268.8000,1.36867,207.136,0.131808
268.7000,1.96452,207.354,0.134934
268.6000,-0.673933,207.892,0.142656
268.5000,-0.264403,207.688,0.139732
268.4000,0.778478,207.171,0.132313
268.3000,2.23342,207.568,0.138009
268.2000,1.87723,206.891,0.128289
268.1000,0.979847,206.906,0.1285
268.0000,0.364096,207.406,0.135683
267.9000,0.758841,206.939,0.128973
267.8000,1.17816,207.187,0.132541
267.7000,0.849345,207.411,0.135764
267.6000,1.18524,207.488,0.13687
267.5000,2.73576,207.677,0.139569
267.4000,0.395327,207.894,0.142688
267.3000,1.66034,207.516,0.137261
267.2000,1.36094,208.019,0.144474
267.1000,1.40329,207.059,0.130701
267.0000,0.919789,207.358,0.134999
266.9000,1.24264,207.848,0.142023
266.8000,1.61092,207.85,0.142055
266.7000,1.23469,207.245,0.133372
266.6000,0.888729,208.067,0.145172
266.5000,1.07114,208.236,0.147589
266.4000,1.03593,207.53,0.137472
266.3000,1.35464,208.193,0.146973
266.2000,1.6879,207.706,0.139992
266.1000,1.85901,207.24,0.133306
266.0000,0.00639138,207.977,0.143873
265.9000,-0.0900168,207.929,0.143192
265.8000,0.899906,207.908,0.142883
265.7000,-0.932693,207.492,0.136919
265.6000,0.0441429,207.988,0.144036
265.5000,0.0194186,208.137,0.146162
265.4000,0.537418,207.689,0.139748
265.3000,1.18452,208.032,0.144669
265.2000,0.715515,207.384,0.135374
265.1000,1.30617,207.931,0.143224
265.0000,0.0281345,207.912,0.142948
264.9000,0.896573,208.483,0.151123
264.8000,1.3609,208.432,0.150393
264.7000,0.611048,208.249,0.147767
264.6000,-0.625572,208.718,0.154474
264.5000,-1.40916,208.393,0.149826
264.4000,0.692623,208.861,0.156513
264.3000,-0.913218,208.253,0.147832
264.2000,-0.948473,208.295,0.148432
264.1000,1.11134,208.497,0.151317
264.0000,-1.22603,208.571,0.15237
263.9000,1.99163,208.082,0.145383
263.8000,0.365553,208.18,0.146778
263.7000,-0.554633,208.571,0.15237
263.6000,-0.0313904,208.154,0.146405
263.5000,1.40786,209.072,0.159537
263.4000,-1.76067,208.575,0.152434
263.3000,1.72798,208.709,0.154345
263.2000,1.62549,207.829,0.141762
263.1000,1.24925,208.297,0.148465
263.0000,1.20605,208.806,0.155737
262.9000,1.46337,209.397,0.164157
262.8000,2.03004,208.401,0.14994
262.7000,-0.907289,209.028,0.158907
262.6000,1.18449,209.355,0.16356
262.5000,0.663987,208.777,0.155316
262.4000,-0.121644,208.635,0.153293
262.3000,2.4807,209.162,0.160814
262.2000,2.15369,209.268,0.162332
262.1000,-0.0903455,208.296,0.148448
262.0000,2.35892,209.088,0.159763
261.9000,1.62664,208.822,0.155963
261.8000,-0.304057,209.172,0.160959
261.7000,1.47489,209.044,0.159133
261.6000,-0.00102808,208.567,0.152321
261.5000,0.124125,208.859,0.156497
261.4000,3.1838,208.401,0.14994
261.3000,1.07162,209.407,0.164302
261.2000,1.739,208.973,0.158114
261.1000,1.03398,209.53,0.166061
261.0000,1.04593,209.363,0.163672
260.9000,0.942217,209.129,0.160345
260.8000,0.55695,209.118,0.160184
260.7000,2.21214,209.184,0.161121
260.6000,-1.30845,209.326,0.163156
260.5000,1.34302,209.945,0.171961
260.4000,0.482552,209.301,0.1628
260.3000,0.814854,209.472,0.165238
260.2000,1.96506,208.815,0.155866
260.1000,1.41601,210.091,0.174039
260.0000,-0.408545,209.332,0.163237
259.9000,0.330587,209.137,0.160458
259.8000,1.2697,209.408,0.164318
259.7000,-0.342507,208.987,0.158325
259.6000,0.261209,209.161,0.160797
259.5000,-0.164706,209.162,0.160814
259.4000,-0.673384,209.904,0.171382
259.3000,1.09174,209.025,0.158858
259.2000,1.77203,209.99,0.172606
259.1000,1.24477,209.886,0.171124
259.0000,1.85877,210.26,0.176436
258.9000,2.59444,210.106,0.174248
258.8000,1.73734,210.178,0.175278
258.7000,1.54704,210.736,0.183187
258.6000,2.98596,210.164,0.175069
258.5000,-0.0559035,209.917,0.171559
258.4000,2.069,209.664,0.167964
258.3000,1.43465,210.713,0.182866
258.2000,1.58709,210.161,0.175037
258.1000,1.75257,209.874,0.170946
258.0000,-0.408839,209.833,0.170366
257.9000,0.121332,210.318,0.177257
257.8000,0.734298,210.423,0.178752
257.7000,-0.118245,210.372,0.178029
257.6000,1.11044,210.566,0.180778
257.5000,1.4082,210.24,0.176147
257.4000,0.247342,210.773,0.183717
257.3000,1.96605,210.306,0.177096
257.2000,0.0165646,210.241,0.176163
257.1000,1.38438,209.959,0.172155
257.0000,-0.398936,210.56,0.180697
256.9000,1.08804,211.203,0.189797
256.8000,0.973957,210.609,0.181388
256.7000,0.751755,209.395,0.164141
256.6000,0.337296,210.956,0.186301
256.5000,0.890456,211.335,0.191672
256.4000,0.524095,210.269,0.176565
256.3000,0.360285,210.934,0.185996
256.2000,1.77816,210.95,0.186221
256.1000,0.554247,211.266,0.190695
256.0000,1.39489,211.435,0.193082
255.9000,0.964533,210.521,0.180135
255.8000,0.467115,210.926,0.185884
255.7000,-0.533242,210.703,0.182722
255.6000,0.014738,211.103,0.188386
255.5000,-0.561893,210.857,0.184905
255.4000,-0.279473,210.167,0.175117
255.3000,-0.0206146,210.782,0.183846
255.2000,0.776205,211.251,0.190486
255.1000,-1.18701,211.628,0.195803
255.0000,-0.973148,211.907,0.199753
254.9000,2.14383,211.123,0.188675
254.8000,0.810228,212.141,0.203045
254.7000,2.43404,211.792,0.198123
254.6000,-0.129358,210.951,0.186237
254.5000,1.81564,211.63,0.195835
254.4000,-0.485233,211.36,0.192025
254.3000,0.84797,211.071,0.187937
254.2000,1.11878,210.916,0.18574
254.1000,0.387531,211.618,0.195675
254.0000,0.806037,211.88,0.19937
253.9000,0.195234,211.344,0.1918
253.8000,-0.563145,210.882,0.185258
253.7000,2.27617,211.29,0.191031
253.6000,0.967504,211.999,0.201048
253.5000,0.621084,211.417,0.192826
253.4000,0.607304,211.469,0.193562
253.3000,1.24727,211.002,0.186959
253.2000,1.5162,211.896,0.199594
253.1000,1.54112,212.136,0.202981
253.0000,1.01419,211.313,0.191352
252.9000,1.2676,211.931,0.200089
252.8000,0.887233,211.512,0.19417
252.7000,0.780629,211.776,0.197899
252.6000,1.73508,211.956,0.200441
252.5000,-0.242852,211.902,0.199674
252.4000,0.177627,211.726,0.197195
252.3000,2.38248,211.946,0.200297
252.2000,-0.247319,212.212,0.204051
252.1000,2.5526,212.298,0.205264
252.0000,1.73187,212.438,0.207227
251.9000,0.0825504,211.463,0.193482
251.8000,0.852469,212.296,0.205232
251.7000,0.633594,211.626,0.195787
251.6000,0.544029,211.59,0.195275
251.5000,0.984043,211.05,0.187633
251.4000,0.498546,211.039,0.187488
251.3000,0.163835,212.034,0.201544
251.2000,1.61201,212.792,0.212216
251.1000,0.576356,212.663,0.2104
251.0000,-0.357469,211.829,0.19865
250.9000,1.42069,212.719,0.211181
250.8000,0.764846,212.409,0.206828
250.7000,1.17069,212.423,0.207019
250.6000,2.68253,212.345,0.205918
250.5000,0.56219,213.078,0.216229
250.4000,0.926029,212.625,0.209858
250.3000,-0.109387,212.705,0.21099
250.2000,1.70382,213.07,0.216117
250.1000,2.6599,211.941,0.200233
250.0000,0.141461,212.537,0.20863
249.9000,1.09234,212.212,0.204051
249.8000,0.581398,212.442,0.207291
249.7000,0.564945,212.822,0.212631
249.6000,-0.448122,213.362,0.22022
249.5000,1.71892,212.805,0.212392
249.4000,-0.137758,212.708,0.211037
249.3000,-1.08244,213.456,0.22154
249.2000,1.989,212.798,0.212296
249.1000,0.948232,213.059,0.215958
249.0000,2.05734,213.476,0.22181
248.9000,1.07101,212.886,0.213538
248.8000,0.434399,213.264,0.218837
248.7000,2.23951,212.789,0.212169
248.6000,-0.457039,212.745,0.211547
248.5000,-1.02217,213.089,0.216388
248.4000,0.757325,212.965,0.214637
248.3000,0.686221,212.444,0.207323
248.2000,1.09407,213.426,0.22111
248.1000,0.518595,212.747,0.211579
248.0000,1.72588,213.175,0.217597
247.9000,1.07486,212.877,0.213411
247.8000,0.500754,212.931,0.214159
247.7000,-0.414058,213.854,0.227113
247.6000,0.101638,213.51,0.222286
247.5000,-0.121838,214.019,0.229428
247.4000,0.443091,213.261,0.218805
247.3000,0.643895,213.164,0.217438
247.2000,1.53481,214.186,0.231758
247.1000,1.10003,213.576,0.223224
247.0000,-0.915595,212.968,0.214685
246.9000,0.506593,213.563,0.223033
246.8000,1.86067,213.386,0.220554
246.7000,2.0437,213.374,0.220379
246.6000,-1.34388,213.548,0.222826
246.5000,1.04959,214.149,0.231235
246.4000,0.245196,213.276,0.219012
246.3000,-0.0527202,213.538,0.222683
246.2000,0.725832,214.034,0.229634
246.1000,1.51782,214.375,0.234403
246.0000,-0.271114,213.929,0.228159
245.9000,0.509225,214.285,0.233136
245.8000,0.787139,214.66,0.238375
245.7000,1.01585,214.106,0.230633
245.6000,0.0963001,214.288,0.233184
245.5000,1.20862,213.989,0.229
245.4000,1.52657,214.688,0.23877
245.3000,1.60413,214.895,0.241664
245.2000,0.978576,214.364,0.234245
245.1000,1.56038,214.482,0.235891
245.0000,-1.54574,214.098,0.230522
244.9000,-0.81632,213.974,0.228794
244.8000,-0.572005,214.698,0.238913
244.7000,1.67357,214.019,0.229428
244.6000,2.05673,214.376,0.234419
244.5000,0.972396,215.165,0.245422
244.4000,-1.14569,214.74,0.239498
244.3000,-0.306097,214.851,0.241047
244.2000,0.197432,215.032,0.243575
244.1000,1.36953,215.235,0.246401
244.0000,0.985452,214.263,0.232835
243.9000,1.89572,215.465,0.249603
243.8000,0.764311,213.873,0.227382
243.7000,1.87944,214.917,0.241963
243.6000,-0.615266,214.989,0.242975
243.5000,0.826323,215.35,0.247994
243.4000,2.00888,214.968,0.242674
243.3000,-0.784084,214.889,0.241568
243.2000,0.150241,215.514,0.250281
243.1000,1.57951,214.887,0.241553
243.0000,0.780558,215.187,0.245722
242.9000,1.79039,214.953,0.242469
242.8000,0.432834,215.002,0.243148
242.7000,-0.7559,215.18,0.245628
242.6000,1.12607,215.35,0.247994
242.5000,-1.22574,214.876,0.241395
242.4000,1.79294,215.318,0.247553
242.3000,0.830549,215.327,0.247679
242.2000,0.959499,216.001,0.257053
242.1000,-0.142119,215.968,0.256597
242.0000,1.45499,216.644,0.265964
241.9000,1.20994,215.733,0.253322
241.8000,1.43532,215.557,0.25088
241.7000,-1.43089,216.349,0.261881
241.6000,1.34238,215.199,0.245896
241.5000,1.24654,215.746,0.253511
241.4000,1.56462,215.935,0.256141
241.3000,1.06706,216.009,0.257163
241.2000,1.28873,216.65,0.266058
241.1000,-0.228836,216.331,0.261629
241.0000,0.597059,216.416,0.262808
240.9000,0.467258,216.618,0.265603
240.8000,1.87208,216.433,0.263043
240.7000,0.795673,216.219,0.260073
240.6000,0.64871,216.346,0.261834
240.5000,1.44566,216.53,0.264394
240.4000,1.48164,215.848,0.254929
240.3000,-0.132814,216.848,0.268788
240.2000,-0.724251,215.644,0.252093
240.1000,1.59971,216.53,0.264394
240.0000,-0.323607,217.078,0.271971
239.9000,2.00081,216.887,0.269337
239.8000,1.91893,217.747,0.281221
239.7000,2.5195,217.48,0.27753
239.6000,1.09915,217.352,0.275761
239.5000,0.698667,217.108,0.272394
239.4000,1.29743,217.478,0.277499
239.3000,-1.11847,216.97,0.270482
239.2000,1.09303,217.241,0.274227
239.1000,0.147243,217.462,0.27728
239.0000,-0.319002,217.546,0.278437
238.9000,2.54707,216.964,0.270404
238.8000,1.12652,217.376,0.27609
238.7000,1.15323,218.462,0.291071
238.6000,-1.21706,217.838,0.282471
238.5000,0.630265,217.496,0.277749
238.4000,0.133513,218.698,0.294312
238.3000,1.64939,218.273,0.288467
238.2000,1.12226,218.242,0.288045
238.1000,2.61127,218.316,0.289059
238.0000,-0.15538,218.496,0.291538
237.9000,1.82431,218.521,0.291881
237.8000,1.67474,218.556,0.292364
237.7000,1.86993,218.285,0.288638
237.6000,-0.225628,218.385,0.290011
237.5000,3.53082,218.739,0.294872
237.4000,0.0375103,219.256,0.301982
237.3000,1.08652,218.823,0.296025
237.2000,1.2869,218.498,0.29157
237.1000,1.2214,219.411,0.304096
237.0000,1.04368,219.408,0.304064
236.9000,1.30395,218.73,0.294748
236.8000,1.70672,219.229,0.301609
236.7000,1.79149,218.749,0.295013
236.6000,-0.0270996,219.361,0.303412
236.5000,-0.00650062,219.457,0.304732
236.4000,2.12374,219.034,0.298935
236.3000,0.0746309,219.73,0.308473
236.2000,1.93249,219.599,0.306673
236.1000,-0.560748,219.71,0.308194
236.0000,0.0980323,220.197,0.31486
235.9000,0.213909,219.227,0.301578
235.8000,0.859604,219.814,0.309621
235.7000,0.828014,220.086,0.313342
235.6000,-0.201588,220.465,0.318528
235.5000,0.227937,219.947,0.311435
235.4000,-0.242589,220.391,0.317507
235.3000,0.887753,220.082,0.313295
235.2000,2.4313,220.874,0.32411
235.1000,0.716049,220.581,0.320106
235.0000,0.736297,219.936,0.311296
234.9000,1.2564,220.379,0.317352
234.8000,1.35485,220.521,0.319287
234.7000,0.660114,220.718,0.321977
234.6000,0.317514,220.775,0.32275
234.5000,0.324078,221.24,0.329096
234.4000,1.07227,220.671,0.321328
234.3000,3.13898,220.716,0.321946
234.2000,0.695948,220.969,0.325392
234.1000,0.796828,221.102,0.327213
234.0000,0.501769,220.958,0.325253
233.9000,0.783612,221.478,0.332334
233.8000,-0.645915,220.944,0.325052
233.7000,2.30281,221.142,0.327754
233.6000,0.281242,221.268,0.329466
233.5000,1.23267,222.063,0.340279
233.4000,0.670908,221.875,0.337725
233.3000,2.18533,221.727,0.335708
233.2000,0.34421,221.596,0.333937
233.1000,-0.609489,222.409,0.344967
233.0000,1.10648,221.984,0.339202
232.9000,-1.50199,222.06,0.340233
232.8000,1.54243,221.732,0.335785
232.7000,1.97811,222.524,0.346534
232.6000,-1.47936,222.538,0.346718
232.5000,0.853276,222.593,0.34747
232.4000,-0.0565763,223.058,0.353758
232.3000,0.770363,222.737,0.349419
232.2000,0.915592,223.292,0.356929
232.1000,1.41959,222.934,0.352088
232.0000,0.839033,223.398,0.358352
231.9000,0.870361,222.973,0.352609
231.8000,-0.857822,223.494,0.359653
231.7000,0.255408,223.545,0.360341
231.6000,2.00749,223.371,0.357985
231.5000,-0.0424398,223.365,0.357909
231.4000,-0.535202,223.515,0.359928
231.3000,1.96238,223.502,0.35976
231.2000,1.03935,223.977,0.366165
231.1000,1.97607,224.318,0.370759
231.0000,-0.361313,224.116,0.368043
230.9000,2.27683,223.89,0.364988
230.8000,-1.17942,224.201,0.369187
230.7000,0.826421,223.485,0.359531
230.6000,2.57461,224.328,0.370896
230.5000,1.98713,223.504,0.359791
230.4000,1.22771,224.079,0.367539
230.3000,0.918649,223.372,0.358
230.2000,0.484321,223.73,0.362834
230.1000,0.664031,223.74,0.362971
230.0000,1.336,224.486,0.373015
229.9000,0.411122,224.389,0.371719
229.8000,0.297787,224.376,0.371536
229.7000,2.63668,224.482,0.37297
229.6000,0.507054,224.413,0.37204
229.5000,2.83949,224.61,0.374692
229.4000,0.98469,224.557,0.373975
229.3000,1.48278,224.725,0.37623
229.2000,0.744906,224.641,0.375103
229.1000,-0.337193,225.139,0.3818
229.0000,1.67369,224.93,0.378986
228.9000,2.90228,225.417,0.385524
228.8000,-0.80016,225.61,0.388106
228.7000,0.322093,224.596,0.374494
228.6000,3.07882,224.976,0.37961
228.5000,-1.75421,225.032,0.380355
228.4000,0.628961,226.036,0.393809
228.3000,0.0255094,226.204,0.396067
228.2000,1.53097,226.379,0.398399
228.1000,0.404338,226.748,0.40333
228.0000,0.530012,226.291,0.397218
227.9000,1.39469,226.481,0.399761
227.8000,-0.440509,226.332,0.397778
227.7000,0.700984,226.543,0.400593
227.6000,-0.656533,226.506,0.400094
227.5000,-0.227252,226.119,0.39493
227.4000,3.25354,227.013,0.406866
227.3000,1.43659,227.572,0.414304
227.2000,0.762355,226.702,0.40271
227.1000,0.234673,226.977,0.406383
227.0000,-1.08335,227.759,0.41679
226.9000,0.142603,226.983,0.406458
226.8000,0.0472927,227.382,0.411771
226.7000,1.56786,228.44,0.425832
226.6000,0.374612,226.867,0.404917
226.5000,2.78061,228.083,0.421096
226.4000,0.419568,228.224,0.422961
226.3000,1.8934,227.887,0.418492
226.2000,1.36884,228.171,0.422269
226.1000,1.58076,228.327,0.424329
226.0000,0.705828,228.296,0.423923
225.9000,1.63266,227.759,0.41679
225.8000,2.41066,228.38,0.425035
225.7000,1.14985,228.714,0.429466
225.6000,-0.629192,228.424,0.425621
225.5000,-0.369598,228.861,0.431417
225.4000,2.16367,228.456,0.426042
225.3000,0.807902,228.874,0.431582
225.2000,2.02514,228.778,0.430306
225.1000,1.86203,229.289,0.437068
225.0000,3.94214,228.714,0.429466
224.9000,2.6508,229.893,0.445044
224.8000,1.58085,229.818,0.444057
224.7000,0.597779,229.531,0.440273
224.6000,2.80704,230.354,0.451122
224.5000,1.28572,229.535,0.440318
224.4000,0.919988,230.493,0.452957
224.3000,0.706233,229.919,0.445387
224.2000,-0.0595018,229.864,0.44467
224.1000,2.2117,230.959,0.459082
224.0000,0.486329,230.269,0.450003
223.9000,0.702677,230.15,0.448435
223.8000,0.638335,230.395,0.451659
223.7000,0.346213,231.304,0.46362
223.6000,1.46672,230.459,0.452509
223.5000,0.623841,230.235,0.449555
223.4000,0.729811,230.487,0.452882
223.3000,1.07803,230.873,0.45795
223.2000,0.39458,231.17,0.46185
223.1000,1.33822,230.791,0.456877
223.0000,1.25978,231.469,0.465776
222.9000,1.19503,231.574,0.467158
222.8000,2.58024,231.547,0.466801
222.7000,0.811697,231.678,0.468525
222.6000,1.20509,231.325,0.463888
222.5000,1.64463,232.01,0.472874
222.4000,1.8073,232.011,0.472888
222.3000,0.843917,231.865,0.470974
222.2000,1.4882,232.646,0.481186
222.1000,-0.365769,231.7,0.468807
222.0000,4.02561,232.002,0.47277
221.9000,-0.168635,232.542,0.479824
221.8000,-3.41834,231.989,0.472592
221.7000,2.69477,232.609,0.480698
221.6000,2.36874,233.291,0.489598
221.5000,2.08619,233.074,0.486776
221.4000,0.201983,232.93,0.484899
221.3000,1.42192,233.328,0.490085
221.2000,1.69305,233.646,0.494232
221.1000,1.83282,232.081,0.473793
221.0000,0.245608,233.318,0.489952
220.9000,1.08619,233.606,0.493701
220.8000,0.179876,233.555,0.493037
220.7000,2.77585,234.214,0.501613
220.6000,-0.327025,234.428,0.504394
220.5000,4.12115,234.017,0.499051
220.4000,2.067,232.877,0.484204
220.3000,-0.0890911,234.036,0.499302
220.2000,2.77877,233.622,0.493907
220.1000,2.72863,233.957,0.49827
220.0000,2.23446,234.153,0.500818
219.9000,0.155991,234.381,0.503776
219.8000,1.46472,234.403,0.50407
219.7000,-0.476995,234.483,0.5051
219.6000,3.14627,234.062,0.49964
219.5000,-1.40916,234.73,0.508304
219.4000,-0.144726,234.579,0.50635
219.3000,2.24965,234.98,0.51155
219.2000,0.773502,234.785,0.509024
219.1000,-0.195378,235.047,0.512416
219.0000,0.563502,235.678,0.520581
218.9000,1.73365,235.404,0.517036
218.8000,2.76361,235.209,0.514513
218.7000,2.75133,235.338,0.516185
218.6000,1.53325,235.811,0.522293
218.5000,1.45794,235.63,0.519966
218.4000,2.65639,236.589,0.532335
218.3000,-0.804074,235.585,0.51938
218.2000,1.42934,235.712,0.52102
218.1000,1.72089,235.829,0.522528
218.0000,2.8439,236.631,0.532875
217.9000,2.89453,235.851,0.522821
217.8000,-0.929027,236.795,0.53499
217.7000,1.32218,236.479,0.530919
217.6000,1.81519,236.433,0.53032
217.5000,1.86364,236.846,0.535647
217.4000,0.0259927,236.701,0.53378
217.3000,0.874317,237.37,0.542378
217.2000,2.23682,237.997,0.550434
217.1000,2.74384,237.295,0.541417
217.0000,-0.256716,237.182,0.539961
216.9000,0.0670989,237.234,0.540631
216.8000,3.05249,237.888,0.549025
216.7000,1.33637,237.234,0.540631
216.6000,2.43477,238.427,0.555935
216.5000,-0.478942,237.55,0.544692
216.4000,2.06625,238.403,0.55563
216.3000,1.58407,238.496,0.556819
216.2000,4.44468,238.183,0.552815
216.1000,1.06375,238.378,0.555311
216.0000,0.446717,238.68,0.559168
215.9000,0.48315,238.493,0.556776
215.8000,1.80789,238.471,0.5565
215.7000,0.322944,238.924,0.562296
215.6000,-0.129608,239.021,0.563527
215.5000,-0.48316,238.883,0.561775
215.4000,1.83269,238.919,0.562224
215.3000,4.39592,239.094,0.564467
215.2000,1.85101,239.524,0.569947
215.1000,4.38592,240.007,0.576112
215.0000,0.80468,239.304,0.567143
214.9000,1.39754,239.115,0.564728
214.8000,2.16636,239.273,0.566753
214.7000,1.27464,239.617,0.571132
214.6000,2.88317,239.785,0.573283
214.5000,2.95308,239.174,0.56548
214.4000,-0.0718542,239.717,0.572417
214.3000,-0.759331,240.001,0.576025
214.2000,2.1459,240.632,0.584051
214.1000,2.86298,239.716,0.572403
214.0000,-0.447229,240.298,0.579802
213.9000,1.0277,239.954,0.575434
213.8000,-2.0315,240.686,0.584742
213.7000,0.968968,240.33,0.58022
213.6000,2.34886,240.733,0.585332
213.5000,1.30339,240.412,0.581258
213.4000,1.78033,240.479,0.582107
213.3000,3.1207,240.556,0.583087
213.2000,-0.27201,241.3,0.592533
213.1000,3.357,240.771,0.585821
213.0000,-0.361811,241.407,0.593883
212.9000,4.06514,241.485,0.594873
212.8000,0.74609,241.955,0.600824
212.7000,1.55529,241.93,0.600509
212.6000,0.578139,241.18,0.591011
212.5000,-2.0029,241.13,0.590379
212.4000,1.98569,242.236,0.604376
212.3000,1.40632,241.815,0.599047
212.2000,3.87701,241.556,0.595778
212.1000,0.698324,242.211,0.604061
212.0000,0.795657,242.2,0.603918
211.9000,2.40785,242.621,0.60924
211.8000,1.80608,242.557,0.608425
211.7000,-0.03475,242.43,0.606823
211.6000,2.43338,242.749,0.610855
211.5000,3.31789,242.444,0.606995
211.4000,1.12123,242.861,0.612255
211.3000,3.73275,242.907,0.612841
211.2000,-1.83476,243.556,0.621015
211.1000,2.14844,243.077,0.614982
211.0000,-1.40201,243.347,0.618378
210.9000,2.26747,243.894,0.625259
210.8000,1.28221,243.505,0.620374
210.7000,1.66378,243.779,0.623821
210.6000,2.21753,243.236,0.61698
210.5000,2.06193,243.193,0.616438
210.4000,2.02943,244.062,0.627365
210.3000,2.65708,244.658,0.63484
210.2000,1.99486,244.653,0.634784
210.1000,-1.13961,245.6,0.646634
210.0000,2.64235,244.517,0.63308
209.9000,0.526973,244.317,0.630565
209.8000,0.785661,245.395,0.644071
209.7000,3.15911,245.3,0.642881
209.6000,2.68891,245.096,0.640331
209.5000,2.36324,245.308,0.642981
209.4000,0.250261,245.495,0.645317
209.3000,0.242103,246.301,0.655369
209.2000,2.26633,245.642,0.647157
209.1000,3.63227,244.851,0.637267
209.0000,2.66417,245.793,0.649039
208.9000,1.6573,245.981,0.651386
208.8000,0.533885,245.888,0.650227
208.7000,1.89496,246.269,0.654974
208.6000,2.44186,246.972,0.663733
208.5000,-0.984925,246.754,0.661013
208.4000,0.504708,246.301,0.655369
208.3000,0.559118,246.855,0.662267
208.2000,1.90479,247.597,0.671486
208.1000,-1.36078,247.774,0.673679
208.0000,2.18543,246.819,0.66183
207.9000,1.72205,246.773,0.661252
207.8000,3.81645,248.902,0.687645
207.7000,2.27153,247.994,0.676417
207.6000,-1.0326,248.377,0.681159
207.5000,2.79064,248.285,0.680009
207.4000,2.83369,248.771,0.686021
207.3000,2.89272,248.238,0.679434
207.2000,-1.07396,248.536,0.683122
207.1000,4.40705,248.475,0.682365
207.0000,-0.00655072,248.888,0.687477
206.9000,0.836713,249.262,0.692094
206.8000,0.850657,249.848,0.699314
206.7000,1.60454,249.792,0.698616
206.6000,0.883871,249.521,0.695279
206.5000,2.99089,249.995,0.701127
206.4000,-0.967824,249.876,0.699663
206.3000,-0.833178,249.754,0.698156
206.2000,2.31689,249.927,0.700291
206.1000,-0.854966,250.784,0.710821
206.0000,2.43434,250.912,0.712393
205.9000,1.49434,251.497,0.71956
205.8000,1.75409,251.045,0.714019
205.7000,2.65628,251.626,0.721141
205.6000,-0.250436,251.095,0.71463
205.5000,-0.0825636,251.612,0.720975
205.4000,0.368586,252.352,0.730022
205.3000,3.47813,251.49,0.719477
205.2000,3.81926,252.121,0.727198
205.1000,1.26966,252.716,0.734461
205.0000,-0.164734,252.288,0.729233
204.9000,1.73041,252.715,0.734447
204.8000,2.19217,252.913,0.736865
204.7000,1.96285,252.693,0.734185
204.6000,1.43195,253.25,0.740966
204.5000,1.44097,253.028,0.73826
204.4000,3.465,253.159,0.739862
204.3000,4.08552,254.323,0.754009
204.2000,0.853486,254.181,0.75229
204.1000,0.558569,253.601,0.74524
204.0000,0.687941,254.719,0.758818
203.9000,3.19777,255.118,0.763648
203.8000,2.15574,255.952,0.773727
203.7000,3.7688,255.551,0.768883
203.6000,-0.779895,254.768,0.759408
203.5000,-0.0585061,255.358,0.766554
203.4000,2.80429,255.551,0.768883
203.3000,3.1041,255.628,0.769814
203.2000,-0.4307,255.31,0.765965
203.1000,3.45683,255.632,0.769868
203.0000,-0.0213316,255.427,0.76739
202.9000,1.16422,256.107,0.7756
202.8000,0.912213,256.091,0.775409
202.7000,0.123664,256.792,0.783848
202.6000,-0.200563,256.679,0.782497
202.5000,3.58737,257.396,0.79111
202.4000,3.13616,257.9,0.797163
202.3000,0.0962279,257.449,0.79175
202.2000,0.857796,257.743,0.795287
202.1000,4.01154,257.629,0.793914
202.0000,0.76645,258.01,0.798481
201.9000,2.57023,258.343,0.802473
201.8000,-0.531055,258.653,0.80619
201.7000,3.05552,259.105,0.811596
201.6000,4.56331,260.247,0.825217
201.5000,1.07612,259.598,0.81748
201.4000,1.03624,259.434,0.81552
201.3000,0.971212,259.864,0.820655
201.2000,0.0565206,259.564,0.817075
201.1000,0.864505,260.195,0.824597
201.0000,-1.79289,260.307,0.825932
200.9000,-0.618828,260.935,0.833396
200.8000,1.45575,260.93,0.833329
200.7000,0.711101,261.451,0.839515
200.6000,3.14042,261.062,0.834903
200.5000,2.60794,262.193,0.848306
200.4000,2.1573,261.255,0.83719
200.3000,-0.487211,261.313,0.837876
200.2000,-0.0682323,261.967,0.845638
200.1000,1.79172,261.446,0.839461
200.0000,-1.23491,262.9,0.856662
199.9000,-0.519174,262.877,0.856395
199.8000,-1.1906,263.394,0.86249
199.7000,2.3683,263.392,0.862463
199.6000,2.49895,263.847,0.867828
199.5000,1.55814,264.346,0.873691
199.4000,4.04506,263.43,0.862917
199.3000,-0.0880748,263.837,0.867708
199.2000,3.73584,264.034,0.870028
199.1000,4.44349,265.189,0.883585
199.0000,-0.874573,264.563,0.876247
198.9000,0.517287,264.661,0.877391
198.8000,0.965849,265,0.881366
198.7000,7.78821,265.981,0.892856
198.6000,0.15658,265.592,0.888309
198.5000,4.5422,265.921,0.892154
198.4000,3.24126,265.863,0.891478
198.3000,0.641543,265.932,0.892286
198.2000,2.56664,266.853,0.903043
198.1000,2.04058,266.879,0.903346
198.0000,-2.07865,266.778,0.902171
197.9000,0.326093,266.178,0.89516
197.8000,-0.82237,266.909,0.90369
197.7000,-0.533447,267.574,0.911436
197.6000,1.76041,267.919,0.915454
197.5000,1.44286,268.009,0.916494
197.4000,3.70283,268.169,0.91835
197.3000,4.07283,268.503,0.922229
197.2000,-3.13728,268.778,0.925422
197.1000,1.15895,269.093,0.929071
197.0000,1.42498,269.496,0.933726
196.9000,1.98794,268.862,0.926393
196.8000,-1.99323,269.986,0.939395
196.7000,-2.52652,269.914,0.938558
196.6000,4.98898,269.85,0.937825
196.5000,-2.6722,270.262,0.942573
196.4000,2.63786,270.564,0.946062
196.3000,3.57747,270.76,0.948321
196.2000,2.43552,271.255,0.954021
196.1000,-1.09595,272.074,0.963432
196.0000,2.21709,271.169,0.95303
195.9000,-0.869307,271.996,0.962535
195.8000,-0.323824,272.389,0.967044
195.7000,1.06466,272.617,0.969654
195.6000,-1.15056,272.284,0.965836
195.5000,2.50108,272.915,0.973066
195.4000,4.63825,273.699,0.982028
195.3000,2.13298,273.581,0.980683
195.2000,3.08293,274.199,0.987729
195.1000,2.44203,273.952,0.984912
195.0000,-0.230901,275.22,0.999349
194.9000,-0.296399,275.241,0.999594
194.8000,0.706002,275.212,0.999259
194.7000,4.04409,275.433,1.00177
194.6000,-2.45043,276.118,1.00955
194.5000,3.57192,276.54,1.01432
194.4000,1.69612,276.916,1.01858
194.3000,4.14355,277.034,1.01991
194.2000,0.172751,277.439,1.02449
194.1000,2.36515,277.984,1.03064
194.0000,1.89263,278.843,1.04031
193.9000,2.56512,278.823,1.04008
193.8000,0.561243,279.333,1.0458
193.7000,-1.51605,280.583,1.05981
193.6000,4.65768,280.622,1.06025
193.5000,-0.0212741,281.447,1.06946
193.4000,-2.16506,281.359,1.06848
193.3000,1.0911,281.8,1.07339
193.2000,-1.36273,282.257,1.07849
193.1000,-0.389492,282.823,1.08478
193.0000,6.85159,283.505,1.09235
192.9000,6.62378,284.032,1.09819
192.8000,-0.547,284.108,1.09903
192.7000,4.62951,284.971,1.10857
192.6000,-0.489098,285.439,1.11373
192.5000,1.37636,287.167,1.13274
192.4000,-0.460335,286.702,1.12764
192.3000,2.88087,287.165,1.13271
192.2000,3.41066,288.188,1.14392
192.1000,1.71194,288.822,1.15085
192.0000,-0.414807,289.249,1.15551
191.9000,-1.27769,290.698,1.17127
191.8000,1.74704,291.399,1.17888
191.7000,-4.73439,291.376,1.17863
191.6000,-8.26285,291.535,1.18035
191.5000,-2.10364,293.271,1.19911
191.4000,4.22963,294.246,1.20961
191.3000,2.79457,294.212,1.20925
191.2000,0.573772,294.906,1.2167
191.1000,-3.95295,295.808,1.22636
191.0000,-0.897396,298.066,1.25045
190.9000,0.939024,298.964,1.26
190.8000,-7.22721,300.649,1.27783
190.7000,2.26055,301.959,1.29163
190.6000,5.42577,303.084,1.30345
190.5000,0.841949,304.325,1.31644
190.4000,0.126715,305.121,1.32476
190.3000,0.333339,306.096,1.33491
190.2000,0.985119,306.88,1.34306
190.1000,3.28704,307.985,1.35451
190.0000,0.736646,308.403,1.35883

##### Extended Information
[Comments]
Sample name,SL + BM Additive
Comment,Additive w buffer
User,Stacie Lally and Beth Mlinek
Division
Company,Saint Mary's College

[Detailed Information]
Creation date,9/29/2022 1:09 PM

Data array type,Linear data array * 3
Horizontal axis,Wavelength [nm]
Vertical axis(1),CD [mdeg]
Vertical axis(2),HT [V]
Vertical axis(3),Abs
Start,320 nm
End,190 nm
Data interval,0.1 nm
Data points,1301    

[Measurement Information]
Instrument name,J-1500
Model name,J-1500
Serial No.,B051061638

Detector,PM-539
Detector S/N,B051061638
  Lock-in amp.,X mode
  HT volt,Auto

Accessory,PTC-517
Accessory S/N,B026561646
  Temperature,22.25 C
  Control sensor,Holder
  Monitor sensor,Holder

Measurement date,9/29/2022 1:09 PM

CD Overload detect,1275
Photometric mode,CD, HT, Abs
Measure range,320 - 190 nm
Data pitch,0.1 nm
CD scale,20 mdeg/0.05 dOD
FL scale,20 mdeg/0.05 dOD
D.I.T.,8 msec
Bandwidth,2.00 nm
Start mode,Immediately
Scanning mode,Continuous
Scanning speed,200 nm/min
Baseline correction,None
Shutter control,Auto
No. of cycle,1/1
N2 Flowmeter,Manual

Solvent,NaPO4 buffer

