TITLE,SL + BM Additive
DATA TYPE,
ORIGIN,JASCO
OWNER,
DATE,22/09/29
TIME,14:07:55
SPECTROMETER/DATA SYSTEM,
LOCALE,1033
RESOLUTION,
DELTAX,-0.1
XUNITS,NANOMETERS
YUNITS,CD [mdeg]
Y2UNITS,HT [V]
Y3UNITS,ABSORBANCE
FIRSTX,  320.0000
LASTX,  190.0000
NPOINTS,    1301
FIRSTY,     1.75171
MAXY,     5.24612
MINY,    -3.84985
XYDATA
320.0000,1.75171,207.814,0.141535
319.9000,0.732559,208.378,0.149615
319.8000,0.759547,208.03,0.144636
319.7000,2.40884,208.969,0.158066
319.6000,1.40949,208.947,0.157743
319.5000,0.679203,208.632,0.153244
319.4000,0.950154,207.585,0.138252
319.3000,1.41536,208.822,0.155963
319.2000,0.999118,208.459,0.150782
319.1000,2.91799,207.691,0.13978
319.0000,0.879235,208.057,0.145026
318.9000,3.21898,207.645,0.139114
318.8000,2.03227,206.707,0.12563
318.7000,2.57324,207.27,0.13373
318.6000,0.628913,207.512,0.137212
318.5000,0.675135,208.738,0.154766
318.4000,2.95748,208.389,0.149778
318.3000,1.60346,208.761,0.15509
318.2000,1.71949,208.186,0.146875
318.1000,-0.103201,207.556,0.137846
318.0000,2.48097,207.87,0.142347
317.9000,0.415596,208.122,0.145951
317.8000,3.19684,208.079,0.145334
317.7000,1.14162,208.337,0.149032
317.6000,1.56905,208.668,0.153762
317.5000,0.720928,208.696,0.154167
317.4000,1.26943,208.193,0.146973
317.3000,3.72817,208.651,0.153519
317.2000,-0.552384,209.536,0.166142
317.1000,1.16213,207.829,0.141762
317.0000,2.2583,207.653,0.139228
316.9000,0.358214,208.757,0.155041
316.8000,0.910962,207.878,0.142461
316.7000,1.36591,208.207,0.147167
316.6000,1.55854,207.964,0.143695
316.5000,3.86943,208.763,0.155122
316.4000,2.22932,207.968,0.143744
316.3000,1.19168,208.505,0.15143
316.2000,1.10688,207.916,0.142997
316.1000,1.08918,207.666,0.139423
316.0000,1.40953,207.547,0.137716
315.9000,-0.0330085,207.917,0.143013
315.8000,1.13867,208.932,0.157532
315.7000,1.07622,207.832,0.141795
315.6000,0.985806,207.492,0.136919
315.5000,0.336234,207.722,0.140219
315.4000,2.61032,207.936,0.143289
315.3000,2.17363,208.319,0.148773
315.2000,-0.370243,207.922,0.143094
315.1000,2.29476,207.718,0.140171
315.0000,1.16645,208.113,0.145821
314.9000,1.05406,206.429,0.121631
314.8000,1.3423,208.382,0.14968
314.7000,0.364899,208.412,0.150102
314.6000,-0.213323,207.47,0.13661
314.5000,2.08541,207.793,0.141243
314.4000,0.643173,208.478,0.151042
314.3000,1.02491,207.448,0.136285
314.2000,-0.589268,208.048,0.144896
314.1000,2.54534,208.144,0.146275
314.0000,0.996001,208.44,0.150507
313.9000,1.69489,208.265,0.147994
313.8000,0.0683326,208.139,0.146194
313.7000,1.3156,206.355,0.120569
313.6000,-0.0788397,207.984,0.143971
313.5000,0.35187,207.701,0.139927
313.4000,-0.125118,207.453,0.136366
313.3000,1.83725,207.124,0.131629
313.2000,1.73132,207.607,0.138578
313.1000,2.41665,207.743,0.140528
313.0000,0.890595,206.623,0.124423
312.9000,0.446625,208.032,0.144669
312.8000,-0.686764,206.849,0.127685
312.7000,-0.478103,207.281,0.133893
312.6000,0.349459,208.036,0.144718
312.5000,1.12308,208.046,0.144864
312.4000,1.23762,206.523,0.122986
312.3000,0.0749014,207.802,0.141373
312.2000,1.31787,206.913,0.128599
312.1000,0.883058,207.498,0.137
312.0000,1.37241,208.429,0.150345
311.9000,1.61077,207.311,0.134316
311.8000,1.51142,208.313,0.148692
311.7000,1.44204,207.211,0.132883
311.6000,2.07069,207.846,0.142006
311.5000,1.00896,206.911,0.128566
311.4000,2.55983,206.985,0.129641
311.3000,0.111034,206.333,0.120242
311.2000,1.90551,208.584,0.152564
311.1000,2.06909,207.476,0.136691
311.0000,1.76043,207.488,0.13687
310.9000,0.87186,207.87,0.142347
310.8000,0.37464,207.447,0.136268
310.7000,1.61793,205.942,0.114601
310.6000,1.21535,206.924,0.128762
310.5000,0.285509,207.865,0.142266
310.4000,1.95814,207.865,0.142266
310.3000,-0.0287809,206.948,0.129104
310.2000,0.696206,209.437,0.164738
310.1000,3.5741,207.996,0.14415
310.0000,1.65827,207.49,0.136886
309.9000,1.91814,207.016,0.130082
309.8000,2.40014,207.61,0.13861
309.7000,1.42438,208.099,0.145626
309.6000,0.281216,207.207,0.132835
309.5000,1.43197,208.035,0.144701
309.4000,1.48824,208.168,0.146616
309.3000,2.78755,207.691,0.13978
309.2000,0.319022,206.58,0.123803
309.1000,-0.0847026,207.637,0.139
309.0000,1.61571,207.473,0.136642
308.9000,1.13342,206.498,0.122627
308.8000,1.97987,206.29,0.119621
308.7000,0.421396,207.661,0.139342
308.6000,0.294028,209.007,0.158599
308.5000,1.57553,208.5,0.151366
308.4000,-1.13624,206.747,0.126217
308.3000,0.501357,207.992,0.144085
308.2000,1.3803,206.486,0.122447
308.1000,0.435649,207.076,0.130945
308.0000,1.77246,207.355,0.134951
307.9000,3.64942,207.945,0.143419
307.8000,1.10105,208.258,0.147897
307.7000,1.63282,208.078,0.145318
307.6000,1.69609,207.628,0.13887
307.5000,0.527461,207.721,0.140203
307.4000,0.546638,207.458,0.136431
307.3000,-0.610578,207.729,0.140317
307.2000,0.624763,207.458,0.136431
307.1000,1.46997,207.527,0.137423
307.0000,-0.458233,207.735,0.140414
306.9000,2.51264,207.028,0.130261
306.8000,1.19336,208.79,0.15551
306.7000,1.48338,207.65,0.139195
306.6000,2.40009,208.171,0.146648
306.5000,1.48875,208.192,0.146956
306.4000,-0.972138,207.959,0.143614
306.3000,1.2291,206.347,0.120455
306.2000,1.36049,209.603,0.167093
306.1000,1.97834,208.333,0.148967
306.0000,2.59713,206.66,0.124961
305.9000,-0.378944,206.225,0.11869
305.8000,-0.0933582,207.763,0.140804
305.7000,0.096342,206.676,0.12519
305.6000,1.93089,208.465,0.150863
305.5000,1.26884,208.225,0.147427
305.4000,0.362528,208.307,0.148594
305.3000,1.53982,206.324,0.120112
305.2000,0.562855,208.415,0.15015
305.1000,2.23312,207.729,0.140317
305.0000,1.33397,208.066,0.145156
304.9000,1.21512,207.69,0.139764
304.8000,1.27449,208.065,0.145139
304.7000,-1.02146,207.355,0.134951
304.6000,1.08201,207.973,0.143825
304.5000,0.020634,207.563,0.137943
304.4000,1.32893,207.95,0.143484
304.3000,0.330257,206.963,0.129315
304.2000,0.983289,208.527,0.151754
304.1000,-0.106627,206.781,0.126707
304.0000,1.87812,207.304,0.134218
303.9000,0.362181,207.67,0.139472
303.8000,0.167776,207.512,0.137212
303.7000,0.981732,207.435,0.136106
303.6000,1.91287,207.141,0.131874
303.5000,1.23564,207.01,0.13
303.4000,0.503107,206.899,0.128403
303.3000,0.185814,207.468,0.136578
303.2000,1.30915,206.976,0.129511
303.1000,1.01297,208.267,0.148027
303.0000,0.852663,207.509,0.137163
302.9000,0.812435,208.572,0.152386
302.8000,0.393135,208.529,0.151771
302.7000,1.11505,207.014,0.130049
302.6000,0.778796,206.921,0.128713
302.5000,0.186883,207.697,0.139862
302.4000,1.95578,207.069,0.130847
302.3000,1.09686,207.152,0.132037
302.2000,-0.703849,207.553,0.137797
302.1000,0.527396,206.661,0.124978
302.0000,0.751873,207.204,0.132786
301.9000,-0.318472,206.514,0.122856
301.8000,2.39268,206.551,0.123394
301.7000,1.57531,207.456,0.136398
301.6000,0.928916,206.554,0.123427
301.5000,1.92203,206.581,0.123819
301.4000,0.465866,206.819,0.127245
301.3000,0.325311,208.371,0.149518
301.2000,1.18532,208.888,0.156901
301.1000,1.97438,206.898,0.128386
301.0000,2.17227,206.998,0.129821
300.9000,2.34827,207.162,0.132183
300.8000,-1.40384,207.192,0.132606
300.7000,1.6337,207.163,0.132199
300.6000,-0.343687,207.348,0.134853
300.5000,0.621199,207.621,0.138773
300.4000,0.27815,207.818,0.1416
300.3000,1.32785,207.19,0.13259
300.2000,0.928876,206.771,0.12656
300.1000,1.58825,207.803,0.141389
300.0000,0.525758,206.947,0.129088
299.9000,1.28003,206.929,0.128826
299.8000,1.15913,206.463,0.122121
299.7000,1.07722,206.47,0.122219
299.6000,0.623603,207.187,0.132541
299.5000,0.491656,207.322,0.134479
299.4000,1.6049,207.243,0.133339
299.3000,0.874827,207.392,0.135487
299.2000,2.12793,207.508,0.137147
299.1000,1.53303,206.981,0.129577
299.0000,1.9402,205.668,0.110638
298.9000,0.47584,206.129,0.1173
298.8000,2.02672,206.97,0.129414
298.7000,2.19014,206.745,0.126185
298.6000,0.851689,207.488,0.13687
298.5000,-0.694098,207.244,0.133355
298.4000,1.08954,207.4,0.135602
298.3000,1.05746,206.617,0.124341
298.2000,2.00381,207.861,0.142217
298.1000,-0.487873,207.087,0.131108
298.0000,2.86981,206.554,0.123427
297.9000,0.180684,206.872,0.128011
297.8000,1.97535,206.759,0.126381
297.7000,2.17804,206.949,0.12912
297.6000,0.259631,207.291,0.134039
297.5000,0.879809,206.21,0.118477
297.4000,0.572738,206.856,0.127783
297.3000,2.93384,206.98,0.12956
297.2000,0.810833,206.505,0.122725
297.1000,0.701913,206.9,0.128419
297.0000,-0.573921,206.116,0.11712
296.9000,1.85008,207.914,0.14298
296.8000,1.61859,206.591,0.123966
296.7000,1.95627,206.949,0.12912
296.6000,1.56376,207.076,0.130945
296.5000,0.433091,206.38,0.120929
296.4000,1.55434,207.441,0.136187
296.3000,0.418808,206.596,0.124031
296.2000,1.16452,205.756,0.111916
296.1000,0.720076,206.973,0.129462
296.0000,1.81792,206.512,0.122823
295.9000,0.901961,206.395,0.121141
295.8000,0.153075,206.267,0.119295
295.7000,0.176703,206.418,0.121467
295.6000,0.530414,206.924,0.128762
295.5000,1.09337,206.323,0.120095
295.4000,1.54035,207.035,0.130359
295.3000,0.378315,206.074,0.116515
295.2000,-0.234142,206.977,0.129527
295.1000,1.64129,206.413,0.121402
295.0000,-0.218591,206.881,0.128142
294.9000,1.47843,206.475,0.1223
294.8000,-0.515688,206.905,0.128484
294.7000,1.06828,207.498,0.137
294.6000,2.19074,206.537,0.123182
294.5000,0.210339,205.798,0.112522
294.4000,0.696284,206.754,0.126316
294.3000,1.21386,206.037,0.115975
294.2000,1.85144,206.873,0.128028
294.1000,0.29033,206.502,0.122676
294.0000,0.637781,206.372,0.120814
293.9000,-0.629775,206.724,0.125875
293.8000,0.0679096,206.813,0.127164
293.7000,0.262912,206.521,0.122953
293.6000,0.176961,206.735,0.126038
293.5000,0.466145,206.613,0.124276
293.4000,0.805228,206.747,0.126217
293.3000,0.457377,207.119,0.131564
293.2000,3.72581,207.368,0.135146
293.1000,-0.213029,206.683,0.125288
293.0000,2.41669,205.493,0.108114
292.9000,0.279443,206.228,0.118739
292.8000,-0.691605,206.07,0.11645
292.7000,0.125953,206.163,0.11779
292.6000,0.884782,206.083,0.116646
292.5000,1.14574,206.525,0.123019
292.4000,-0.0612037,206.84,0.127555
292.3000,-0.765583,206.114,0.117087
292.2000,0.395507,205.751,0.111851
292.1000,0.672715,205.653,0.110425
292.0000,0.0328443,208.143,0.146259
291.9000,0.679702,208.682,0.153957
291.8000,0.288578,206.788,0.126805
291.7000,1.31443,206.517,0.122905
291.6000,1.18564,206.443,0.121827
291.5000,0.941053,206.324,0.120112
291.4000,1.47302,205.832,0.113013
291.3000,0.527186,206.117,0.117136
291.2000,0.313625,206.214,0.118526
291.1000,0.3298,206.289,0.119605
291.0000,1.60886,205.249,0.104588
290.9000,2.61987,207.147,0.131971
290.8000,-0.814218,207.25,0.133453
290.7000,2.0736,205.898,0.113962
290.6000,1.77979,206.673,0.125141
290.5000,0.383002,205.338,0.105868
290.4000,0.812473,206.158,0.117725
290.3000,-0.00552151,206.017,0.115681
290.2000,2.21055,206.522,0.12297
290.1000,0.642641,205.757,0.111932
290.0000,0.947832,206.487,0.122464
289.9000,1.48955,206.651,0.124831
289.8000,0.834463,206.027,0.115828
289.7000,1.17778,206.971,0.12943
289.6000,-0.884101,205.612,0.109835
289.5000,2.1213,205.711,0.111261
289.4000,0.495837,205.968,0.114977
289.3000,3.17491,206.509,0.12279
289.2000,-0.140949,206.477,0.122317
289.1000,2.00896,206.749,0.126234
289.0000,-0.0539788,206.138,0.117431
288.9000,0.272658,206.077,0.116548
288.8000,0.335362,206.683,0.125288
288.7000,2.79841,206.6,0.124096
288.6000,1.43471,206.611,0.124259
288.5000,1.89971,206.259,0.11918
288.4000,0.111405,205.605,0.109737
288.3000,0.984662,206.963,0.129315
288.2000,1.60679,206.29,0.119621
288.1000,1.7524,206.153,0.117643
288.0000,2.40553,205.455,0.107557
287.9000,0.547817,205.396,0.106704
287.8000,2.36188,206.063,0.116351
287.7000,2.20501,205.896,0.113946
287.6000,-0.189946,205.611,0.109819
287.5000,1.33757,206.157,0.117709
287.4000,0.560013,205.722,0.111424
287.3000,0.92796,206.594,0.124015
287.2000,-1.27069,205.453,0.107541
287.1000,1.25639,206.028,0.115844
287.0000,0.433666,207.281,0.133893
286.9000,2.85261,205.536,0.108737
286.8000,0.914445,207.099,0.131271
286.7000,-0.367791,205.721,0.111408
286.6000,-0.372954,205.537,0.108754
286.5000,-1.44539,206.485,0.122431
286.4000,0.249353,207.117,0.131532
286.3000,0.896433,205.58,0.109376
286.2000,0.321953,207.373,0.135211
286.1000,0.500761,205.916,0.114224
286.0000,0.911288,206.512,0.122823
285.9000,0.356165,205.402,0.106803
285.8000,2.21273,206.002,0.115468
285.7000,0.740955,205.733,0.111588
285.6000,1.48374,205.996,0.115386
285.5000,0.851178,205.638,0.110212
285.4000,2.69074,205.366,0.106278
285.3000,1.12117,207.309,0.1343
285.2000,1.40044,206.149,0.117594
285.1000,1.78301,205.961,0.114879
285.0000,-0.172639,205.882,0.113733
284.9000,-1.50051,205.509,0.108344
284.8000,0.792069,206.559,0.123509
284.7000,1.69636,206.541,0.123247
284.6000,-0.0844594,205.94,0.114568
284.5000,0.0601585,206.402,0.121239
284.4000,0.281581,206.347,0.120455
284.3000,1.10967,206.01,0.115582
284.2000,0.617385,205.817,0.1128
284.1000,0.464448,205.784,0.112325
284.0000,0.844393,206.811,0.127131
283.9000,-0.504792,205.475,0.107852
283.8000,1.72333,204.886,0.0993164
283.7000,0.221781,205.885,0.113782
283.6000,-0.291138,205.859,0.113406
283.5000,1.23082,206.327,0.12016
283.4000,0.586319,206.097,0.116842
283.3000,0.23895,207.343,0.134788
283.2000,0.432615,206.687,0.125353
283.1000,-0.180796,206.547,0.123329
283.0000,0.702447,207.967,0.143728
282.9000,0.151451,206.17,0.117888
282.8000,1.26394,206.448,0.121909
282.7000,-0.307543,205.987,0.115255
282.6000,0.84557,205.967,0.114961
282.5000,2.38776,206.962,0.129299
282.4000,1.15233,205.901,0.114012
282.3000,-0.230688,205.266,0.104834
282.2000,-0.0956712,205.524,0.108557
282.1000,2.44138,206.744,0.126169
282.0000,0.455697,206.251,0.119066
281.9000,1.33272,205.664,0.110589
281.8000,1.97224,206.051,0.116171
281.7000,0.884768,206.644,0.124733
281.6000,-0.851545,205.273,0.104932
281.5000,0.0513555,205.576,0.109311
281.4000,2.36155,206.482,0.122399
281.3000,0.135657,205.813,0.112735
281.2000,1.239,206.038,0.115991
281.1000,0.3536,206.592,0.123982
281.0000,1.08553,206.449,0.121925
280.9000,0.151729,205.833,0.113029
280.8000,-0.420934,206.683,0.125288
280.7000,1.51907,206.008,0.11555
280.6000,0.796777,206.207,0.118428
280.5000,0.186601,205.911,0.114159
280.4000,-0.342928,206.403,0.121255
280.3000,0.946284,206.142,0.117496
280.2000,1.59538,206.452,0.121957
280.1000,0.554329,206.709,0.125663
280.0000,0.454472,206.519,0.122921
279.9000,1.33611,205.696,0.111048
279.8000,-0.534618,206.656,0.124896
279.7000,0.918126,206.473,0.122268
279.6000,1.25755,205.596,0.109606
279.5000,-0.096605,206.673,0.125141
279.4000,0.818998,206.185,0.118117
279.3000,2.07259,206.424,0.121565
279.2000,1.78848,204.476,0.0933621
279.1000,1.76952,206.83,0.127408
279.0000,0.965421,206.531,0.1231
278.9000,0.0967974,206.558,0.123492
278.8000,1.01978,206.199,0.118314
278.7000,0.335826,205.733,0.111588
278.6000,-0.6474,206.208,0.118444
278.5000,1.76023,205.904,0.114061
278.4000,1.1712,206.482,0.122399
278.3000,1.47539,205.549,0.108918
278.2000,0.515867,206.338,0.120324
278.1000,-0.401748,206.598,0.124064
278.0000,0.210616,206.234,0.118821
277.9000,-0.109322,205.457,0.10759
277.8000,1.80606,207.136,0.131808
277.7000,0.451178,205.47,0.107786
277.6000,0.492614,207.171,0.132313
277.5000,1.50015,206.892,0.128305
277.4000,0.513736,206.641,0.124684
277.3000,1.01445,206.218,0.118592
277.2000,1.93451,206.745,0.126185
277.1000,1.90656,206.495,0.122578
277.0000,0.202398,205.903,0.114044
276.9000,0.236636,206.959,0.129267
276.8000,1.52568,205.175,0.103505
276.7000,1.61465,207.564,0.13796
276.6000,0.405475,205.456,0.107573
276.5000,-0.219905,206.872,0.128011
276.4000,-0.203546,205.923,0.114323
276.3000,0.684562,207.307,0.134267
276.2000,1.18547,206.499,0.122643
276.1000,1.44629,206.658,0.124929
276.0000,3.22414,205.766,0.112063
275.9000,0.453853,206.555,0.123443
275.8000,1.26387,205.5,0.108213
275.7000,0.774675,206.069,0.116433
275.6000,0.658168,206.359,0.120618
275.5000,3.31228,205.943,0.114617
275.4000,-2.07995,205.903,0.114044
275.3000,0.555833,205.666,0.110622
275.2000,-0.403042,205.716,0.111343
275.1000,0.184188,206.409,0.121337
275.0000,1.66423,206.167,0.117856
274.9000,2.43509,206.095,0.116809
274.8000,0.635414,207.057,0.130668
274.7000,0.677658,206.414,0.121419
274.6000,0.032975,206.661,0.124978
274.5000,2.04932,206.025,0.115795
274.4000,2.59008,207.255,0.133518
274.3000,0.661244,206.31,0.119915
274.2000,1.4364,206.539,0.123215
274.1000,1.20378,206.319,0.120046
274.0000,1.03163,207.427,0.135992
273.9000,1.22925,206.308,0.119883
273.8000,-0.917377,207.941,0.143354
273.7000,2.01781,206.806,0.127066
273.6000,0.374237,205.775,0.112194
273.5000,0.25373,207.003,0.129902
273.4000,1.68369,206.576,0.123753
273.3000,3.61938,206.551,0.123394
273.2000,0.737733,206.743,0.126152
273.1000,-0.519726,206.134,0.117382
273.0000,1.20149,205.15,0.103143
272.9000,0.836499,206.409,0.121337
272.8000,1.46868,206.931,0.128859
272.7000,1.32433,205.58,0.109376
272.6000,1.05183,206.242,0.118935
272.5000,-0.431237,205.983,0.11519
272.4000,0.556859,205.791,0.112424
272.3000,0.958051,206.061,0.116319
272.2000,1.67904,206.346,0.120438
272.1000,0.562583,206.649,0.124798
272.0000,2.18644,206.917,0.128663
271.9000,1.34455,206.223,0.118657
271.8000,-0.378447,206.481,0.122382
271.7000,0.704323,205.739,0.11167
271.6000,0.528088,206.976,0.129511
271.5000,-0.919146,206.779,0.126674
271.4000,0.464033,207.2,0.13272
271.3000,-0.967946,206.198,0.118297
271.2000,0.529296,206.321,0.120079
271.1000,0.198888,208.065,0.145139
271.0000,-0.179642,207.609,0.138594
270.9000,0.260567,206.81,0.127115
270.8000,1.72367,206.751,0.126266
270.7000,0.86315,206.265,0.119262
270.6000,0.556065,207.835,0.141844
270.5000,2.99748,207.521,0.137342
270.4000,1.39236,206.79,0.126837
270.3000,1.79819,206.426,0.121582
270.2000,0.665395,208.122,0.145951
270.1000,0.0130553,206.269,0.119327
270.0000,1.32148,206.042,0.116041
269.9000,-0.962902,207.304,0.134218
269.8000,2.81852,206.477,0.122317
269.7000,1.24614,207.197,0.132688
269.6000,0.729488,207.054,0.130636
269.5000,1.43962,207.623,0.138805
269.4000,2.48696,206.863,0.127881
269.3000,-0.143892,206.389,0.121059
269.2000,-0.393565,207.461,0.13648
269.1000,-0.556681,206.96,0.129283
269.0000,0.772785,207.509,0.137163
268.9000,-0.616642,207.267,0.133697
268.8000,-0.778942,207.27,0.13373
268.7000,0.963174,207.619,0.13874
268.6000,-0.261214,208.975,0.158147
268.5000,0.570367,207.113,0.131483
268.4000,-0.147353,207.109,0.131417
268.3000,0.745927,206.804,0.127033
268.2000,0.192787,207.3,0.134169
268.1000,0.116091,207.947,0.143451
268.0000,0.7536,207.053,0.130619
267.9000,0.910462,206.809,0.127098
267.8000,1.42037,206.665,0.125027
267.7000,-1.28877,207.984,0.143971
267.6000,2.4585,208.18,0.146778
267.5000,0.889885,207.117,0.131532
267.4000,0.700412,206.837,0.127506
267.3000,-0.470804,207.101,0.131304
267.2000,0.641589,207.277,0.133828
267.1000,0.594124,207.413,0.13578
267.0000,0.351047,207.117,0.131532
266.9000,0.648723,206.929,0.128826
266.8000,-0.42695,207.345,0.134804
266.7000,1.85189,207.262,0.133616
266.6000,1.47953,207.212,0.132899
266.5000,1.48133,208.13,0.146064
266.4000,0.0698906,207.494,0.136952
266.3000,1.11074,207.351,0.134902
266.2000,-0.283957,207.752,0.140658
266.1000,-0.334303,208.347,0.149178
266.0000,-0.288688,209.485,0.165416
265.9000,0.499172,208.124,0.145983
265.8000,1.76898,206.983,0.129609
265.7000,0.659781,208.266,0.14801
265.6000,1.0815,207.539,0.137602
265.5000,1.02756,208.495,0.151285
265.4000,-0.717044,208.89,0.156934
265.3000,0.778027,207.409,0.135731
265.2000,-0.184819,207.775,0.140983
265.1000,0.200934,208.37,0.149502
265.0000,-0.723799,207.879,0.142477
264.9000,0.819544,208.433,0.15041
264.8000,0.680578,208.08,0.145351
264.7000,0.331113,208.035,0.144701
264.6000,0.756757,208.841,0.156238
264.5000,0.117735,207.76,0.140772
264.4000,0.164219,207.955,0.143565
264.3000,-1.50424,208.711,0.154377
264.2000,1.01811,207.81,0.141486
264.1000,-0.295951,208.268,0.148043
264.0000,-0.316679,208.36,0.149356
263.9000,0.169996,208.138,0.146178
263.8000,0.537885,208.872,0.156675
263.7000,1.30236,208.084,0.145415
263.6000,-1.7271,209.016,0.158729
263.5000,-0.643045,208.208,0.147183
263.4000,0.70038,208.838,0.15619
263.3000,-1.02957,208.435,0.150426
263.2000,-0.163556,209.465,0.165125
263.1000,1.5508,209.119,0.1602
263.0000,1.01794,208.407,0.150037
262.9000,1.82981,209.289,0.162623
262.8000,0.457188,208.356,0.149307
262.7000,0.379086,209.555,0.166416
262.6000,1.00966,208.644,0.153422
262.5000,0.996206,209.087,0.159747
262.4000,-0.107765,209.374,0.163834
262.3000,0.866706,208.814,0.15585
262.2000,1.01397,209.821,0.170205
262.1000,-0.91868,207.914,0.14298
262.0000,-0.170709,209.539,0.16619
261.9000,0.173697,208.918,0.157338
261.8000,0.321374,207.742,0.140512
261.7000,0.949203,209.254,0.162122
261.6000,-0.418104,210.064,0.173652
261.5000,0.49826,207.169,0.132281
261.4000,-0.688786,208.629,0.153212
261.3000,0.511917,208.532,0.151819
261.2000,0.577994,208.985,0.158292
261.1000,0.941893,209.804,0.169963
261.0000,-0.00459115,208.352,0.149243
260.9000,0.96486,209.912,0.171494
260.8000,-0.241537,208.015,0.144425
260.7000,1.16042,208.802,0.155672
260.6000,0.0161492,209.645,0.16769
260.5000,1.3807,209.162,0.160814
260.4000,-0.358093,209.659,0.1679
260.3000,1.44849,208.859,0.156497
260.2000,2.0464,210.317,0.177241
260.1000,0.375593,209.146,0.160588
260.0000,0.618885,209.105,0.160006
259.9000,-1.38135,208.866,0.156594
259.8000,-1.40254,209.539,0.16619
259.7000,-0.0419525,209.112,0.160103
259.6000,0.727747,209.305,0.162849
259.5000,1.3063,209.271,0.162365
259.4000,0.542587,210.259,0.17642
259.3000,0.601846,210.075,0.173813
259.2000,0.0613135,210.059,0.173588
259.1000,0.988868,209.543,0.166239
259.0000,-0.0491372,209.278,0.162461
258.9000,0.714315,208.699,0.154199
258.8000,-0.292972,209.099,0.159909
258.7000,0.770723,209.795,0.169834
258.6000,2.96435,209.242,0.161961
258.5000,0.298493,210.029,0.173153
258.4000,0.69895,209.777,0.169577
258.3000,1.21131,209.906,0.171414
258.2000,2.97323,210.128,0.17457
258.1000,0.443427,209.228,0.161751
258.0000,2.00769,210.72,0.182963
257.9000,1.10538,209.946,0.171977
257.8000,1.05684,210.543,0.180456
257.7000,-1.02635,210.647,0.181935
257.6000,0.797149,210.819,0.184359
257.5000,-0.237656,210.498,0.179813
257.4000,0.832989,210.187,0.175407
257.3000,-0.583327,210.589,0.181099
257.2000,0.652592,210.874,0.185146
257.1000,-0.677437,210.472,0.179444
257.0000,0.77707,210.54,0.180408
256.9000,1.28875,209.657,0.167868
256.8000,-1.35597,210.619,0.181533
256.7000,1.23045,209.848,0.170576
256.6000,0.578437,211.2,0.189765
256.5000,0.593939,210.506,0.179926
256.4000,0.170006,209.781,0.169625
256.3000,-1.39652,210.397,0.178383
256.2000,-0.560654,210.695,0.182609
256.1000,0.168568,211.909,0.199769
256.0000,1.96704,209.619,0.167319
255.9000,0.0294188,210.713,0.182866
255.8000,0.0825631,210.449,0.179122
255.7000,0.189243,210.627,0.181645
255.6000,0.820196,211.236,0.190262
255.5000,0.573486,211.749,0.197515
255.4000,-0.150159,210.213,0.175777
255.3000,0.413567,210.056,0.173539
255.2000,1.68421,211.003,0.186975
255.1000,0.395597,210.374,0.178061
255.0000,-1.57231,210.471,0.179428
254.9000,1.35936,210.77,0.183669
254.8000,-0.499082,211.272,0.190775
254.7000,0.277697,211.436,0.193098
254.6000,0.854404,211.151,0.18906
254.5000,-0.180867,211.032,0.187376
254.4000,-1.35836,211.102,0.18837
254.3000,3.01739,211.486,0.193802
254.2000,0.198952,211.498,0.193978
254.1000,1.44174,211.107,0.188451
254.0000,0.243265,210.97,0.18651
253.9000,0.835277,211.855,0.199018
253.8000,0.801467,211.786,0.198043
253.7000,0.248731,211.741,0.197403
253.6000,1.91357,211.143,0.188948
253.5000,0.840067,211.412,0.192761
253.4000,-0.215821,211.451,0.193306
253.3000,-0.402751,212.211,0.204035
253.2000,-1.06497,211.863,0.19913
253.1000,0.915673,211.417,0.192826
253.0000,0.144825,212.553,0.208853
252.9000,0.0232458,211.052,0.187665
252.8000,1.03009,212.532,0.20855
252.7000,0.96429,211.502,0.194026
252.6000,0.904764,211.926,0.200009
252.5000,0.318883,211.771,0.197835
252.4000,1.12343,211.716,0.197051
252.3000,0.746406,211.194,0.189669
252.2000,0.770379,212.391,0.206573
252.1000,3.10114,211.643,0.196027
252.0000,2.24386,212.039,0.201607
251.9000,-0.0595892,211.049,0.187617
251.8000,0.094585,212.341,0.205871
251.7000,-0.0784804,212.176,0.20354
251.6000,0.174483,212.256,0.204674
251.5000,0.502471,212.965,0.214637
251.4000,1.94065,212.727,0.211292
251.3000,0.924885,212.326,0.205647
251.2000,0.0840696,211.956,0.200441
251.1000,1.41756,213.41,0.220888
251.0000,0.139335,211.973,0.200681
250.9000,0.880028,212.048,0.201735
250.8000,2.80067,212.224,0.204211
250.7000,0.105348,213.067,0.21607
250.6000,2.19731,212.738,0.211452
250.5000,0.825343,213.09,0.216404
250.4000,0.448282,212.741,0.211499
250.3000,-0.180712,212.779,0.212025
250.2000,1.48108,212.822,0.212631
250.1000,1.47686,212.795,0.212248
250.0000,0.600491,212.914,0.213921
249.9000,0.585183,211.76,0.197675
249.8000,1.21914,213.286,0.219155
249.7000,2.03097,211.972,0.200665
249.6000,0.309024,212.835,0.212822
249.5000,1.22274,213.062,0.216006
249.4000,1.69563,212.801,0.212344
249.3000,1.48048,212.416,0.206924
249.2000,1.84676,212.911,0.213889
249.1000,1.37259,213.854,0.227113
249.0000,2.01402,213.627,0.223938
248.9000,-0.0489013,213.895,0.227684
248.8000,-1.68627,213.334,0.219823
248.7000,-0.213421,213.461,0.221603
248.6000,0.472117,212.75,0.211627
248.5000,1.26067,213.239,0.218487
248.4000,0.738875,212.908,0.213841
248.3000,2.14684,212.526,0.208471
248.2000,1.2096,212.46,0.207546
248.1000,-0.0134735,213.095,0.216467
248.0000,1.41552,213.592,0.223446
247.9000,2.01789,212.669,0.21048
247.8000,-0.0932494,212.934,0.214207
247.7000,0.293502,213.397,0.220713
247.6000,0.835325,212.81,0.212471
247.5000,0.232778,213.308,0.219457
247.4000,2.01626,213.664,0.224446
247.3000,1.59769,213.917,0.228001
247.2000,1.73019,213.266,0.218869
247.1000,1.11868,211.529,0.19441
247.0000,0.656648,213.751,0.225669
246.9000,1.13759,214.329,0.233754
246.8000,-0.0596244,215.116,0.244744
246.7000,0.508418,213.826,0.226716
246.6000,1.97621,212.843,0.212933
246.5000,1.65254,214.363,0.234229
246.4000,1.54761,213.426,0.22111
246.3000,-0.543896,213.976,0.228825
246.2000,0.0653084,214.46,0.23559
246.1000,-0.177618,214.16,0.231394
246.0000,0.512529,214.098,0.230522
245.9000,0.515003,214.56,0.236983
245.8000,1.0633,214.281,0.233089
245.7000,-2.53297,213.379,0.220459
245.6000,2.37481,214.143,0.231156
245.5000,1.23276,213.88,0.227477
245.4000,-0.849335,213.949,0.228445
245.3000,1.34691,214.473,0.235765
245.2000,0.570105,214.525,0.236492
245.1000,1.42001,214.93,0.242153
245.0000,1.68217,214.212,0.232122
244.9000,0.756706,214.649,0.238233
244.8000,0.144819,214.279,0.233057
244.7000,-1.02871,214.827,0.240715
244.6000,0.457893,215.344,0.247916
244.5000,1.52807,214.438,0.235274
244.4000,0.065126,213.984,0.228937
244.3000,1.26505,215.03,0.243543
244.2000,0.487519,215.227,0.24629
244.1000,2.9317,214.337,0.233865
244.0000,2.16301,214.387,0.234562
243.9000,0.840343,214.765,0.239846
243.8000,0.419641,214.908,0.241837
243.7000,0.557416,214.797,0.240288
243.6000,1.7616,215.548,0.250754
243.5000,-0.0118044,214.306,0.233437
243.4000,0.531434,215.105,0.244586
243.3000,1.80291,215.767,0.253795
243.2000,0.695357,214.555,0.23692
243.1000,-0.147151,214.713,0.239118
243.0000,2.94301,214.225,0.232297
242.9000,1.31523,215.821,0.254551
242.8000,1.26418,215.134,0.244996
242.7000,2.27054,215.387,0.248515
242.6000,-0.33059,214.317,0.233596
242.5000,0.698953,215.083,0.244286
242.4000,0.111832,215.381,0.248436
242.3000,0.158587,215.098,0.244491
242.2000,0.220013,215.049,0.243812
242.1000,0.615789,215.813,0.25444
242.0000,2.09785,214.724,0.239276
241.9000,1.77043,215.871,0.255243
241.8000,1.92997,215.701,0.252881
241.7000,0.663025,215.668,0.252424
241.6000,0.705717,216.202,0.259837
241.5000,2.8357,215.509,0.250218
241.4000,0.931135,216.26,0.260639
241.3000,1.16584,215.913,0.255826
241.2000,1.79703,216.629,0.26576
241.1000,-1.48665,216.764,0.267628
241.0000,1.39814,216.171,0.259413
240.9000,1.88833,216.316,0.261425
240.8000,1.41672,215.971,0.256628
240.7000,0.0419946,216.8,0.26813
240.6000,1.66092,216.792,0.26802
240.5000,0.732628,217.361,0.275887
240.4000,-0.5613,217.263,0.27454
240.3000,0.928403,216.227,0.260183
240.2000,2.30765,217.035,0.271376
240.1000,0.0511429,216.888,0.269353
240.0000,-1.12228,217.735,0.281049
239.9000,1.5087,217.267,0.274587
239.8000,-0.602881,216.947,0.270169
239.7000,0.796747,216.953,0.270247
239.6000,0.42957,217.087,0.272096
239.5000,-0.0971534,217.137,0.272786
239.4000,-0.660462,216.586,0.265164
239.3000,2.18092,218.07,0.285673
239.2000,0.465961,217.08,0.272002
239.1000,-1.10814,217.512,0.277968
239.0000,0.374566,217.525,0.278156
238.9000,-0.130112,217.672,0.280189
238.8000,1.09223,217.618,0.279438
238.7000,0.264263,216.79,0.267989
238.6000,1.95956,217.521,0.278093
238.5000,-1.76042,218.341,0.289402
238.4000,0.35561,217.33,0.275464
238.3000,1.34298,217.31,0.275182
238.2000,0.600017,217.787,0.281768
238.1000,-0.422194,217.334,0.275511
238.0000,0.504367,218.148,0.28675
237.9000,0.908498,219.644,0.307294
237.8000,0.156263,218.893,0.29699
237.7000,-0.727478,218.617,0.293206
237.6000,-0.332766,218.377,0.289901
237.5000,0.586116,218.253,0.288186
237.4000,1.0684,218.417,0.290447
237.3000,2.31748,218.322,0.289137
237.2000,0.41717,219.411,0.304096
237.1000,1.76792,218.645,0.29358
237.0000,0.0861626,218.733,0.294795
236.9000,1.53916,219.369,0.303521
236.8000,-0.536393,218.952,0.297799
236.7000,1.86551,218.777,0.295402
236.6000,-0.589913,219.559,0.30613
236.5000,2.17584,219.358,0.303381
236.4000,-0.946466,220.138,0.314054
236.3000,1.63708,220.588,0.320199
236.2000,1.90303,219.93,0.311203
236.1000,0.164188,219.258,0.301998
236.0000,3.0435,219.216,0.301423
235.9000,2.18132,219.471,0.304919
235.8000,2.05235,219.522,0.305617
235.7000,3.02942,220.77,0.322688
235.6000,0.493952,220.671,0.321328
235.5000,0.0830889,219.85,0.310117
235.4000,1.57188,220.821,0.323384
235.3000,0.801788,220.342,0.316842
235.2000,2.19753,220.038,0.312691
235.1000,3.56409,220.794,0.323013
235.0000,3.75359,220.53,0.31941
234.9000,1.06247,220.149,0.314209
234.8000,0.00831915,220.123,0.313853
234.7000,0.763676,220.299,0.316253
234.6000,1.90001,220.021,0.312458
234.5000,0.28284,221.134,0.327646
234.4000,3.23879,221.42,0.331533
234.3000,0.953013,220.893,0.324357
234.2000,-0.46823,220.818,0.323337
234.1000,1.97105,221.635,0.334461
234.0000,-0.271551,220.549,0.319673
233.9000,1.10176,221.84,0.337248
233.8000,0.524162,221.443,0.331856
233.7000,0.0281145,221.665,0.334877
233.6000,1.10561,221.796,0.336648
233.5000,0.0968635,221.379,0.330978
233.4000,-0.965605,221.443,0.331856
233.3000,-0.0809699,222.088,0.340617
233.2000,0.730001,221.665,0.334877
233.1000,1.88528,221.2,0.32854
233.0000,2.61517,222.483,0.345981
232.9000,0.547553,223.026,0.353329
232.8000,1.27495,222.105,0.340848
232.7000,-0.292698,221.809,0.336832
232.6000,0.15354,223.245,0.356286
232.5000,0.949793,223.286,0.356837
232.4000,1.86081,222.301,0.343508
232.3000,0.753444,222.931,0.352042
232.2000,0.913289,223.055,0.353712
232.1000,1.25565,222.712,0.349081
232.0000,-0.957379,222.881,0.351367
231.9000,0.761201,222.834,0.350723
231.8000,0.616027,224.05,0.367157
231.7000,1.133,223.323,0.357342
231.6000,1.70486,223.397,0.358337
231.5000,1.4566,223.5,0.359729
231.4000,1.67925,223.268,0.356592
231.3000,4.32755,223.416,0.358597
231.2000,1.40435,224.296,0.370469
231.1000,1.62492,223.467,0.359286
231.0000,1.05581,223.672,0.362054
230.9000,0.490736,223.374,0.358031
230.8000,0.320425,223.323,0.357342
230.7000,1.74577,224.075,0.367493
230.6000,0.770928,223.483,0.3595
230.5000,4.6981,223.912,0.365294
230.4000,1.84264,222.846,0.350892
230.3000,1.12239,223.912,0.365294
230.2000,1.29051,223.871,0.364744
230.1000,1.483,224.313,0.370698
230.0000,-0.447831,223.993,0.366378
229.9000,-0.134714,224.276,0.370194
229.8000,2.49982,223.674,0.362085
229.7000,1.11789,225.338,0.38446
229.6000,1.75706,224.311,0.370667
229.5000,-0.186088,224.77,0.376839
229.4000,-0.456769,224.202,0.369202
229.3000,2.04152,224.339,0.371048
229.2000,1.58727,224.392,0.37175
229.1000,0.309993,224.514,0.373396
229.0000,1.25406,224.944,0.379183
228.9000,0.218352,224.232,0.369599
228.8000,1.28324,225.154,0.381998
228.7000,0.483215,225.767,0.390215
228.6000,1.09525,225.385,0.385098
228.5000,-0.650156,225.384,0.385083
228.4000,1.62394,225.538,0.387149
228.3000,-1.86236,226.107,0.394764
228.2000,-0.524809,225.136,0.381754
228.1000,-0.948064,226.197,0.39596
228.0000,-0.151086,226.035,0.393794
227.9000,1.62208,226.332,0.397778
227.8000,2.18912,226.754,0.403406
227.7000,0.206526,225.863,0.391504
227.6000,0.225031,226.856,0.404766
227.5000,-0.662995,226.831,0.404434
227.4000,1.05307,226.823,0.404328
227.3000,-0.480215,226.764,0.403542
227.2000,1.80176,227.538,0.413852
227.1000,1.57808,227.326,0.411032
227.0000,0.437536,227.222,0.409644
226.9000,0.789255,227.674,0.415661
226.8000,1.75525,227.178,0.409055
226.7000,0.991725,227.757,0.41676
226.6000,1.58125,227.766,0.416881
226.5000,1.35455,227.94,0.4192
226.4000,-0.263448,227.838,0.417845
226.3000,2.0562,228.006,0.420073
226.2000,1.65328,228.377,0.42499
226.1000,1.8514,228.326,0.424314
226.0000,-0.0877881,228.942,0.432482
225.9000,2.89435,228.468,0.426207
225.8000,0.819486,228.009,0.420118
225.7000,0.661997,228.834,0.431057
225.6000,0.946602,228.496,0.426568
225.5000,-0.216849,228.505,0.426688
225.4000,1.03651,228.473,0.426267
225.3000,-0.927024,229.323,0.437518
225.2000,0.993706,228.726,0.429616
225.1000,2.86891,229.093,0.434476
225.0000,1.54033,229.084,0.434356
224.9000,1.46869,229.442,0.43909
224.8000,3.03253,229.445,0.439135
224.7000,1.55453,229.462,0.43936
224.6000,1.54534,229.438,0.439045
224.5000,1.20037,229.658,0.441948
224.4000,1.41638,229.799,0.443803
224.3000,2.26833,230.47,0.452659
224.2000,1.36205,229.545,0.440452
224.1000,0.145043,230.346,0.451018
224.0000,2.00773,230.09,0.447644
223.9000,0.99261,230.312,0.45057
223.8000,2.18652,229.92,0.445402
223.7000,-0.534717,230.584,0.45415
223.6000,1.93215,230.201,0.449107
223.5000,-0.67505,230.712,0.455834
223.4000,0.278694,231.253,0.462951
223.3000,2.29514,230.5,0.453046
223.2000,-2.02216,230.731,0.456088
223.1000,0.980756,231.112,0.461091
223.0000,1.44585,231.713,0.468985
222.9000,-0.530346,231.642,0.468049
222.8000,-0.146542,230.681,0.455432
222.7000,1.72993,231.441,0.465419
222.6000,1.06331,232.093,0.473956
222.5000,2.40832,231.576,0.467188
222.4000,3.35715,231.796,0.470069
222.3000,2.83675,232.578,0.480298
222.2000,1.33058,231.686,0.468628
222.1000,0.410958,232.258,0.476121
222.0000,2.10811,233.145,0.487693
221.9000,1.93486,232.339,0.477173
221.8000,-0.203778,232.284,0.476462
221.7000,-0.310174,232.447,0.47858
221.6000,1.10536,232.93,0.484899
221.5000,1.46231,233.317,0.489937
221.4000,1.96721,233.357,0.490469
221.3000,-0.258677,232.46,0.478758
221.2000,0.936132,232.965,0.485357
221.1000,-2.77804,232.937,0.484988
221.0000,0.832589,233.386,0.490838
220.9000,-0.664149,233.686,0.494748
220.8000,0.164809,233.541,0.49286
220.7000,1.56982,233.32,0.489982
220.6000,-0.419231,234.035,0.499287
220.5000,1.21794,232.887,0.484337
220.4000,2.97869,233.972,0.498462
220.3000,3.39289,233.874,0.497195
220.2000,0.480819,234.581,0.506379
220.1000,3.00261,234.543,0.505879
220.0000,0.963505,234.009,0.498948
219.9000,0.30215,234.202,0.501451
219.8000,0.249409,234.713,0.508084
219.7000,-0.532074,235.323,0.515994
219.6000,1.03714,234.251,0.502099
219.5000,2.83533,234.693,0.507834
219.4000,3.4444,234.513,0.505497
219.3000,-1.23737,234.806,0.509288
219.2000,1.17589,234.795,0.509156
219.1000,0.658406,234.846,0.509817
219.0000,0.155098,235.235,0.514851
218.9000,0.942784,235.245,0.514983
218.8000,1.03103,235.773,0.521811
218.7000,-1.4379,235.297,0.515657
218.6000,1.33856,235.562,0.519087
218.5000,3.28042,235.974,0.524401
218.4000,-0.306367,235.332,0.516112
218.3000,1.01584,236.124,0.526346
218.2000,-0.259481,236.117,0.526243
218.1000,-0.230495,235.908,0.523552
218.0000,1.73902,236.527,0.531532
217.9000,1.70479,236.28,0.528348
217.8000,1.62684,236.198,0.527296
217.7000,2.53731,236.827,0.535399
217.6000,1.18108,236.412,0.530057
217.5000,2.53287,237.08,0.53865
217.4000,0.029337,237.006,0.537702
217.3000,2.22528,236.552,0.531853
217.2000,1.89903,237.179,0.539932
217.1000,0.613445,238.108,0.551857
217.0000,1.67091,237.116,0.539116
216.9000,2.46777,236.799,0.535034
216.8000,1.95188,237.186,0.540019
216.7000,-0.106271,236.735,0.534218
216.6000,2.73729,237.043,0.538184
216.5000,1.54845,238.232,0.553439
216.4000,-0.743223,237.689,0.546481
216.3000,2.49513,237.857,0.548632
216.2000,3.92627,238.397,0.555558
216.1000,3.20584,238.446,0.556181
216.0000,-3.42009,238.489,0.556732
215.9000,2.09593,239.052,0.563932
215.8000,0.373563,238.165,0.552583
215.7000,1.42459,238.128,0.552104
215.6000,-0.667247,238.443,0.556138
215.5000,0.735591,238.84,0.561225
215.4000,1.26721,238.551,0.55753
215.3000,-0.157027,238.58,0.557892
215.2000,1.74149,239.338,0.567577
215.1000,0.720063,239.184,0.56561
215.0000,2.48132,239.358,0.567837
214.9000,-0.638633,239.731,0.57259
214.8000,3.43668,239.281,0.566854
214.7000,2.13475,240.005,0.576083
214.6000,1.17449,239.519,0.56989
214.5000,0.216551,239.113,0.564713
214.4000,3.13043,240.189,0.578419
214.3000,4.16261,240.111,0.577424
214.2000,0.333216,240.36,0.580595
214.1000,1.12256,239.855,0.574164
214.0000,0.633755,240.65,0.584281
213.9000,1.47923,240.366,0.580667
213.8000,-1.24615,240.378,0.580826
213.7000,1.95577,240,0.576011
213.6000,2.54028,240.669,0.584526
213.5000,2.22879,240.795,0.586123
213.4000,-0.19473,241.104,0.590048
213.3000,0.327231,240.671,0.584555
213.2000,1.0405,240.494,0.582295
213.1000,0.932833,240.528,0.582727
213.0000,0.417622,240.892,0.58736
212.9000,0.683269,241.768,0.598459
212.8000,1.75105,240.547,0.582971
212.7000,0.526233,240.881,0.587216
212.6000,0.903746,241.862,0.599649
212.5000,3.75996,241.755,0.598288
212.4000,-0.391868,242.103,0.602687
212.3000,2.23815,241.518,0.59529
212.2000,-0.753966,242.024,0.601698
212.1000,3.13276,241.509,0.595175
212.0000,2.89889,242.351,0.605822
211.9000,3.05104,242.489,0.607567
211.8000,-1.30026,242.049,0.602014
211.7000,0.0829043,242.719,0.610469
211.6000,0.506571,242.967,0.613598
211.5000,1.98423,242.872,0.612398
211.4000,-1.01435,242.993,0.613926
211.3000,1.20924,243.222,0.616809
211.2000,3.81955,243.224,0.616837
211.1000,4.31203,243.648,0.622169
211.0000,0.309568,243.345,0.618363
210.9000,-0.395479,243.59,0.621443
210.8000,0.59175,243.282,0.617565
210.7000,-0.241824,243.741,0.623337
210.6000,2.68071,244.511,0.633009
210.5000,-0.373796,243.489,0.620174
210.4000,2.00213,243.663,0.622354
210.3000,0.432242,244.905,0.637934
210.2000,3.83116,244.11,0.627977
210.1000,2.78898,244.704,0.635422
210.0000,2.11172,244.447,0.632199
209.9000,0.155128,245.093,0.640288
209.8000,0.103258,244.956,0.638573
209.7000,0.976811,245.256,0.642329
209.6000,2.23415,245.787,0.648968
209.5000,1.77957,245.439,0.644624
209.4000,-0.0881654,245.822,0.649407
209.3000,2.44271,245.778,0.648855
209.2000,1.88964,245.199,0.641621
209.1000,2.22643,245.289,0.64274
209.0000,-0.389634,246.274,0.655045
208.9000,-0.857419,246.221,0.654381
208.8000,1.03973,246.802,0.661619
208.7000,1.99034,246.114,0.653039
208.6000,-0.234547,245.929,0.650735
208.5000,2.49987,246.897,0.662788
208.4000,-1.22914,246.284,0.655158
208.3000,-1.52815,246.895,0.662774
208.2000,1.62691,247.078,0.665042
208.1000,2.3209,247.591,0.671416
208.0000,-1.86116,248.217,0.679168
207.9000,1.96629,248.11,0.677849
207.8000,2.26797,248.253,0.679617
207.7000,0.0967984,247.815,0.674198
207.6000,1.7454,248.221,0.679224
207.5000,1.99623,247.525,0.6706
207.4000,1.75879,248.932,0.688009
207.3000,1.15297,248.473,0.682337
207.2000,2.33945,248.824,0.686679
207.1000,-0.21963,248.191,0.678845
207.0000,1.82428,249.022,0.689129
206.9000,-0.470048,249.167,0.690919
206.8000,2.5616,248.49,0.682547
206.7000,1.34388,249.089,0.689954
206.6000,1.91762,249.682,0.697263
206.5000,3.08846,249.607,0.696341
206.4000,0.621887,249.973,0.700848
206.3000,2.7516,250.296,0.704821
206.2000,1.54307,249.876,0.699663
206.1000,3.25621,251.18,0.715672
206.0000,1.57965,250.764,0.710571
205.9000,3.89218,250.918,0.712462
205.8000,-0.130785,251.081,0.714464
205.7000,2.46885,251.252,0.716561
205.6000,0.87965,251.573,0.72049
205.5000,1.85402,251.667,0.721641
205.4000,3.15663,251.076,0.714408
205.3000,1.15542,251.661,0.721571
205.2000,2.27131,251.711,0.722182
205.1000,-0.0911563,252.196,0.728112
205.0000,2.15596,251.783,0.723069
204.9000,1.73258,252.691,0.734157
204.8000,3.79265,252.284,0.729192
204.7000,3.22911,252.602,0.733065
204.6000,-2.58214,252.675,0.733964
204.5000,1.35233,252.379,0.730354
204.4000,0.236999,253.037,0.738371
204.3000,2.41809,253.469,0.743641
204.2000,1.01727,254.22,0.752757
204.1000,0.777552,254.576,0.757087
204.0000,-0.90822,254.35,0.754339
203.9000,1.32138,254.775,0.75949
203.8000,2.50341,254.444,0.755479
203.7000,3.19044,254.502,0.75618
203.6000,-1.33169,254.614,0.75754
203.5000,2.03357,254.901,0.761014
203.4000,2.61482,255.568,0.769088
203.3000,1.46017,255.438,0.767513
203.2000,2.34019,255.429,0.767403
203.1000,-0.453295,256.447,0.779699
203.0000,4.03626,256.291,0.777814
202.9000,0.634098,256.124,0.775806
202.8000,2.35643,256.26,0.777445
202.7000,3.12293,256.122,0.775778
202.6000,2.80992,256.492,0.780245
202.5000,-1.17316,257.255,0.789422
202.4000,0.761867,257.1,0.787556
202.3000,2.41029,257.86,0.796687
202.2000,0.51817,257.728,0.795097
202.1000,-0.754356,258.227,0.801089
202.0000,0.104742,257.701,0.794784
201.9000,0.28737,258.259,0.801469
201.8000,2.64001,258.135,0.799989
201.7000,-0.0910636,258.994,0.810269
201.6000,0.677123,259.928,0.821411
201.5000,-0.770074,259.47,0.815953
201.4000,2.6143,259.518,0.81652
201.3000,2.37377,259.661,0.818223
201.2000,-0.590733,260.087,0.823301
201.1000,2.20854,259.833,0.820277
201.0000,0.352446,260.888,0.832831
200.9000,3.29956,260.576,0.829127
200.8000,-1.32166,261.156,0.83602
200.7000,-0.714735,260.477,0.827955
200.6000,4.62418,261.492,0.839999
200.5000,2.61308,261.354,0.838373
200.4000,3.70776,261.269,0.837365
200.3000,0.924241,261.658,0.841974
200.2000,3.49107,262.329,0.849915
200.1000,-0.0985948,261.906,0.844913
200.0000,1.36247,263.094,0.858949
199.9000,0.789726,263.253,0.860833
199.8000,0.957544,262.84,0.855953
199.7000,3.10455,263.452,0.863171
199.6000,-0.843621,263.616,0.865106
199.5000,1.97491,263.649,0.865493
199.4000,0.656728,263.658,0.8656
199.3000,-1.92727,264.002,0.869655
199.2000,0.0694578,263.512,0.863878
199.1000,4.76236,265.037,0.881805
199.0000,1.73672,264.507,0.875582
198.9000,4.54226,264.751,0.878455
198.8000,2.03119,264.87,0.879851
198.7000,-1.72491,264.819,0.879253
198.6000,0.0838947,265.231,0.884076
198.5000,-1.82339,266.454,0.898389
198.4000,1.16355,265.983,0.892883
198.3000,2.20615,266.681,0.901034
198.2000,-3.84985,266.12,0.894485
198.1000,3.99796,266.356,0.897238
198.0000,1.7387,267.335,0.908653
197.9000,0.943565,266.758,0.901933
197.8000,-0.0350627,267.603,0.911778
197.7000,-2.30468,267.751,0.913491
197.6000,1.40162,267.747,0.913452
197.5000,1.22784,268.42,0.921269
197.4000,-0.883221,267.65,0.912319
197.3000,0.749014,268.249,0.919284
197.2000,0.925007,268.793,0.925592
197.1000,1.75654,269.181,0.930081
197.0000,1.77338,268.343,0.920375
196.9000,1.84585,269.111,0.929281
196.8000,0.26401,269.702,0.93611
196.7000,1.59885,269.976,0.939277
196.6000,-0.16528,270.165,0.941462
196.5000,-0.0307032,269.954,0.939029
196.4000,3.58883,271.789,0.960154
196.3000,-1.7764,270.658,0.947146
196.2000,0.822541,271.124,0.952509
196.1000,1.61638,271.035,0.951491
196.0000,0.827394,271.102,0.952261
195.9000,-0.782488,272.397,0.967135
195.8000,4.00299,272.693,0.970523
195.7000,2.03708,272.291,0.965914
195.6000,3.67107,273.015,0.974207
195.5000,-0.947217,273.406,0.978676
195.4000,2.9648,273.933,0.984692
195.3000,3.79833,274.023,0.985726
195.2000,-1.20171,274.368,0.989653
195.1000,1.73663,274.44,0.990479
195.0000,3.96924,274.576,0.992028
194.9000,-2.24836,274.863,0.995291
194.8000,-1.05856,275.492,1.00244
194.7000,-3.72591,276.153,1.00994
194.6000,-1.82644E-005,275.929,1.0074
194.5000,2.38705,276.725,1.01641
194.4000,-1.29127,275.746,1.00532
194.3000,0.981612,276.374,1.01245
194.2000,3.90932,277.417,1.02423
194.1000,1.2447,277.436,1.02445
194.0000,-1.77815,278.321,1.03443
193.9000,1.16731,278.89,1.04083
193.8000,0.780219,278.952,1.04153
193.7000,-1.71794,279.944,1.05265
193.6000,-0.298712,280.53,1.05922
193.5000,2.32401,281.243,1.06719
193.4000,3.32666,282.218,1.07805
193.3000,3.26977,281.317,1.06801
193.2000,1.32592,281.949,1.07506
193.1000,-0.374629,282.851,1.08509
193.0000,1.54189,283.351,1.09064
192.9000,0.772302,284.377,1.10201
192.8000,0.927655,284.162,1.09963
192.7000,1.42107,284.934,1.10816
192.6000,3.18271,285.908,1.1189
192.5000,-3.63321,286.331,1.12355
192.4000,3.29342,287.101,1.13202
192.3000,2.07178,288.045,1.14236
192.2000,-2.75819,288.592,1.14834
192.1000,2.89198,288.888,1.15157
192.0000,3.84706,290.166,1.1655
191.9000,1.45508,290.458,1.16867
191.8000,3.17706,290.432,1.16839
191.7000,1.80952,291.053,1.17513
191.6000,1.02893,292.737,1.19335
191.5000,2.10112,293.653,1.20323
191.4000,4.2258,294.16,1.20869
191.3000,-0.706975,294.492,1.21226
191.2000,-0.894412,296.291,1.23154
191.1000,1.64818,297.579,1.24527
191.0000,4.24749,298.053,1.25032
190.9000,1.10734,300.412,1.27533
190.8000,5.24612,301.112,1.28271
190.7000,-1.03394,302.232,1.29451
190.6000,0.369312,303.247,1.30516
190.5000,3.5553,304.484,1.3181
190.4000,0.540864,304.893,1.32237
190.3000,1.05899,306.177,1.33576
190.2000,1.68973,307.72,1.35176
190.1000,0.173447,307.683,1.35139
190.0000,-0.62874,309.891,1.37418

##### Extended Information
[Comments]
Sample name,SL + BM Additive
Comment,Additive w buffer
User,Stacie Lally and Beth Mlinek
Division
Company,Saint Mary's College

[Detailed Information]
Creation date,9/29/2022 1:07 PM

Data array type,Linear data array * 3
Horizontal axis,Wavelength [nm]
Vertical axis(1),CD [mdeg]
Vertical axis(2),HT [V]
Vertical axis(3),Abs
Start,320 nm
End,190 nm
Data interval,0.1 nm
Data points,1301    

[Measurement Information]
Instrument name,J-1500
Model name,J-1500
Serial No.,B051061638

Detector,PM-539
Detector S/N,B051061638
  Lock-in amp.,X mode
  HT volt,Auto

Accessory,PTC-517
Accessory S/N,B026561646
  Temperature,22.33 C
  Control sensor,Holder
  Monitor sensor,Holder

Measurement date,9/29/2022 1:07 PM

CD Overload detect,1276
Photometric mode,CD, HT, Abs
Measure range,320 - 190 nm
Data pitch,0.1 nm
CD scale,20 mdeg/0.05 dOD
FL scale,20 mdeg/0.05 dOD
D.I.T.,8 msec
Bandwidth,2.00 nm
Start mode,Immediately
Scanning mode,Continuous
Scanning speed,200 nm/min
Baseline correction,None
Shutter control,Auto
No. of cycle,1/1
N2 Flowmeter,Manual

Solvent,NaPO4 buffer

