TITLE,SL + BM control
DATA TYPE,
ORIGIN,JASCO
OWNER,
DATE,22/09/29
TIME,14:20:03
SPECTROMETER/DATA SYSTEM,
LOCALE,1033
RESOLUTION,
DELTAX,-0.1
XUNITS,NANOMETERS
YUNITS,CD [mdeg]
Y2UNITS,HT [V]
Y3UNITS,ABSORBANCE
FIRSTX,  320.0000
LASTX,  190.0000
NPOINTS,    1301
FIRSTY,     0.35811
MAXY,    51.36436
MINY,   -70.88023
XYDATA
320.0000,0.358106,208.484,0.151139
319.9000,1.27026,208.539,0.151916
319.8000,0.44346,208.493,0.151268
319.7000,1.21422,208.367,0.149453
319.6000,0.897703,207.913,0.142964
319.5000,1.56789,208.832,0.156109
319.4000,1.88442,208.457,0.15075
319.3000,2.15389,208.731,0.154669
319.2000,2.68843,209.729,0.168884
319.1000,2.44621,208.486,0.151155
319.0000,2.21528,208.557,0.152175
318.9000,1.97823,208.719,0.154491
318.8000,1.73055,208.912,0.157241
318.7000,0.652653,208.123,0.145967
318.6000,1.93245,208.436,0.150442
318.5000,1.40256,208.895,0.156998
318.4000,2.02319,209.017,0.158745
318.3000,2.5007,208.072,0.145237
318.2000,2.75418,208.594,0.15271
318.1000,0.826734,208.275,0.14814
318.0000,2.00817,207.757,0.140723
317.9000,3.99833,208.706,0.154313
317.8000,2.2053,208.305,0.148578
317.7000,1.64006,208.566,0.152305
317.6000,3.79717,208.7,0.154215
317.5000,1.57648,208.329,0.148919
317.4000,0.967899,208.101,0.145659
317.3000,1.25482,209.508,0.165739
317.2000,1.05096,209.128,0.160329
317.1000,1.53148,209.084,0.159699
317.0000,0.643249,209.784,0.169673
316.9000,0.864736,208.098,0.14561
316.8000,1.69892,208.994,0.158422
316.7000,2.32566,208.275,0.14814
316.6000,0.983944,209.118,0.160184
316.5000,0.7199,208.888,0.156901
316.4000,2.55621,208.599,0.152775
316.3000,2.49633,209.052,0.159246
316.2000,-0.570373,208.313,0.148692
316.1000,0.0512032,207.846,0.142006
316.0000,0.739032,208.087,0.145448
315.9000,2.53545,207.314,0.134365
315.8000,0.629688,208.256,0.147865
315.7000,3.36568,206.846,0.127637
315.6000,0.28546,209.448,0.164883
315.5000,-1.06197,208.352,0.149243
315.4000,2.84849,207.952,0.143516
315.3000,0.752921,208.262,0.147962
315.2000,1.01807,208.333,0.148967
315.1000,1.07476,208.344,0.149129
315.0000,1.82818,207.859,0.142185
314.9000,1.27101,208.908,0.157193
314.8000,1.57166,208.019,0.144474
314.7000,2.22876,209.082,0.159666
314.6000,1.32984,207.997,0.144166
314.5000,1.27745,208.44,0.150507
314.4000,-0.62321,207.89,0.142623
314.3000,1.93939,207.671,0.139488
314.2000,0.492161,207.782,0.14108
314.1000,2.18051,209.729,0.168884
314.0000,-0.191028,207.935,0.143273
313.9000,1.76248,207.113,0.131483
313.8000,2.77008,207.528,0.137439
313.7000,-0.110134,207.379,0.135292
313.6000,0.412291,207.237,0.133258
313.5000,0.936206,208.325,0.148854
313.4000,2.33197,207.056,0.130652
313.3000,1.49587,207.777,0.141015
313.2000,2.27196,208.989,0.158341
313.1000,2.14643,207.402,0.135634
313.0000,2.42343,207.669,0.139455
312.9000,-0.403729,207.882,0.14251
312.8000,1.79052,207.098,0.131255
312.7000,0.724073,208.194,0.146989
312.6000,0.518167,207.408,0.135715
312.5000,0.99604,207.862,0.142234
312.4000,1.25365,208.257,0.147881
312.3000,2.5834,208.729,0.154636
312.2000,2.58712,207.28,0.133876
312.1000,2.46609,208.325,0.148854
312.0000,1.82745,208.818,0.155899
311.9000,2.53556,206.938,0.128957
311.8000,-0.490728,208.835,0.156141
311.7000,1.92787,208.955,0.157856
311.6000,0.709552,207.969,0.14376
311.5000,-0.392925,208.082,0.145383
311.4000,0.314909,208.371,0.149518
311.3000,1.25195,208.312,0.148675
311.2000,2.20385,207.548,0.137732
311.1000,0.442221,208.796,0.155591
311.0000,2.3626,208.971,0.158082
310.9000,2.25115,208.296,0.148448
310.8000,1.82798,206.091,0.11676
310.7000,3.27107,207.88,0.142493
310.6000,-0.0359865,207.518,0.137293
310.5000,2.70986,208.385,0.149713
310.4000,-0.108931,207.107,0.131385
310.3000,-0.286307,207.86,0.142201
310.2000,1.04895,208.961,0.157953
310.1000,1.3403,206.891,0.128289
310.0000,-0.884427,207.781,0.141064
309.9000,1.62942,208.012,0.144377
309.8000,0.947312,208.165,0.146567
309.7000,1.54366,208.253,0.147832
309.6000,1.06897,208.295,0.148432
309.5000,0.107987,207.391,0.135471
309.4000,0.585552,207.927,0.143159
309.3000,0.96728,206.635,0.124602
309.2000,3.05159,208.195,0.147005
309.1000,0.577325,208.883,0.156837
309.0000,1.23331,207.392,0.135487
308.9000,0.469369,208.319,0.148773
308.8000,1.40572,209.074,0.159553
308.7000,0.878699,208.165,0.146567
308.6000,1.68457,208.526,0.151738
308.5000,1.68987,207.751,0.140642
308.4000,0.5705,207.718,0.140171
308.3000,1.60413,210.089,0.174006
308.2000,2.3369,207.964,0.143695
308.1000,0.940274,207.968,0.143744
308.0000,0.516903,208.018,0.144458
307.9000,0.478846,207.636,0.138984
307.8000,1.41407,208.015,0.144425
307.7000,1.19612,208.35,0.14921
307.6000,0.429495,207.345,0.134804
307.5000,0.166751,208.414,0.150134
307.4000,0.0180234,207.61,0.13861
307.3000,2.87539,208.199,0.147054
307.2000,1.37112,207.175,0.132362
307.1000,2.36259,207.393,0.135504
307.0000,2.06059,207.694,0.139813
306.9000,0.545549,207.936,0.143289
306.8000,1.54888,207.394,0.13552
306.7000,2.03642,208.811,0.155802
306.6000,1.69739,207.749,0.140609
306.5000,1.07404,207.077,0.130962
306.4000,1.46031,207.782,0.14108
306.3000,1.40458,207.377,0.135276
306.2000,2.65199,207.502,0.137066
306.1000,0.656478,208.131,0.146081
306.0000,2.31651,208.42,0.150215
305.9000,2.5313,207.791,0.14121
305.8000,0.564031,207.912,0.142948
305.7000,1.94116,207.258,0.133567
305.6000,1.27062,208.622,0.153098
305.5000,2.53527,208.018,0.144458
305.4000,2.00633,207.699,0.139894
305.3000,1.4024,207.857,0.142152
305.2000,2.00631,208.188,0.146892
305.1000,2.85298,207.849,0.142039
305.0000,2.02681,207.774,0.140967
304.9000,1.46197,208.212,0.147248
304.8000,1.7755,207.89,0.142623
304.7000,1.75945,207.999,0.144198
304.6000,0.294717,206.836,0.12749
304.5000,1.66745,208.012,0.144377
304.4000,0.188293,207.931,0.143224
304.3000,0.32374,207.081,0.13101
304.2000,2.31395,208.28,0.148221
304.1000,2.16485,207.1,0.131287
304.0000,1.30917,206.916,0.128647
303.9000,0.351356,208.253,0.147832
303.8000,2.14335,206.999,0.129837
303.7000,2.61107,207.291,0.134039
303.6000,1.19613,208.173,0.146681
303.5000,0.399992,207.145,0.131939
303.4000,2.5068,207.343,0.134788
303.3000,-0.11604,206.896,0.128354
303.2000,1.53951,207.35,0.134885
303.1000,2.64904,209.746,0.169125
303.0000,1.96272,208.352,0.149243
302.9000,0.739834,207.084,0.131059
302.8000,0.935635,207.434,0.13609
302.7000,0.025735,209.123,0.160264
302.6000,2.36675,207.868,0.142315
302.5000,2.04484,207.454,0.136382
302.4000,1.06323,208.12,0.145918
302.3000,0.735838,208.052,0.144945
302.2000,1.27644,207.643,0.139081
302.1000,0.348379,206.732,0.125989
302.0000,2.6837,207.997,0.144166
301.9000,2.09262,206.701,0.125549
301.8000,2.11134,206.741,0.12612
301.7000,0.663886,207.834,0.141827
301.6000,0.618314,208.07,0.145204
301.5000,2.24665,207.5,0.137033
301.4000,2.69709,207.663,0.139374
301.3000,0.280334,207.515,0.137244
301.2000,1.15538,207.856,0.142136
301.1000,3.29187,208.697,0.154183
301.0000,1.30575,207.846,0.142006
300.9000,1.58639,207.019,0.13013
300.8000,1.39932,207.198,0.132704
300.7000,1.67472,207.349,0.134869
300.6000,1.15632,208.852,0.156384
300.5000,0.379239,207.529,0.137456
300.4000,1.0044,207.82,0.141633
300.3000,-0.151345,207.441,0.136187
300.2000,0.895964,205.949,0.114699
300.1000,1.50062,208.798,0.155623
300.0000,0.357376,206.767,0.126495
299.9000,1.63652,208.6,0.152791
299.8000,1.10493,207.516,0.137261
299.7000,2.01232,206.922,0.128729
299.6000,3.05166,207.632,0.138935
299.5000,2.28696,207.316,0.134397
299.4000,0.959558,206.992,0.129739
299.3000,1.42914,208.066,0.145156
299.2000,1.68088,207.891,0.14264
299.1000,0.920838,206.897,0.12837
299.0000,1.32421,207.901,0.142786
298.9000,0.270717,207.852,0.142087
298.8000,1.73024,207.639,0.139033
298.7000,0.0877759,207.405,0.135666
298.6000,2.08112,207.884,0.142542
298.5000,0.864564,207.513,0.137228
298.4000,0.235011,207.111,0.13145
298.3000,1.33613,206.676,0.12519
298.2000,-0.0229768,207.878,0.142461
298.1000,2.7489,206.522,0.12297
298.0000,1.9555,206.42,0.1215
297.9000,-0.0999539,207.486,0.136838
297.8000,0.225085,206.722,0.125859
297.7000,0.494732,207.941,0.143354
297.6000,0.414912,207.121,0.131597
297.5000,1.33295,206.512,0.122823
297.4000,1.88124,207.682,0.13965
297.3000,1.09531,207.827,0.14173
297.2000,1.17764,206.887,0.128223
297.1000,-0.0990971,207.796,0.141275
297.0000,0.792129,206.759,0.126381
296.9000,0.997613,208.22,0.147362
296.8000,1.60233,206.694,0.125451
296.7000,1.72303,207.508,0.137147
296.6000,2.45843,207.064,0.130766
296.5000,1.48248,207.984,0.143971
296.4000,1.61127,208.015,0.144425
296.3000,2.46377,207.365,0.135097
296.2000,0.161656,206.939,0.128973
296.1000,2.44973,207.133,0.131759
296.0000,0.876833,207.368,0.135146
295.9000,1.59365,208.002,0.144231
295.8000,0.35001,206.917,0.128663
295.7000,2.85814,207.962,0.143663
295.6000,0.959577,206.643,0.124716
295.5000,0.71794,206.323,0.120095
295.4000,0.31588,207.201,0.132737
295.3000,1.10283,207.138,0.131841
295.2000,1.69597,207.487,0.136854
295.1000,0.347991,208.062,0.145091
295.0000,0.871646,207.461,0.13648
294.9000,2.40831,207.895,0.142705
294.8000,1.98519,207.734,0.140398
294.7000,-0.203529,207.705,0.139975
294.6000,1.11107,207.407,0.135699
294.5000,1.96397,206.187,0.118134
294.4000,1.88137,206.877,0.128077
294.3000,-0.902722,207.746,0.140561
294.2000,2.36881,207.757,0.140723
294.1000,0.681554,208.407,0.150037
294.0000,1.8949,206.171,0.117905
293.9000,1.30243,206.576,0.123753
293.8000,1.41268,207.475,0.136675
293.7000,1.19447,208.035,0.144701
293.6000,1.12695,206.976,0.129511
293.5000,0.588291,206.53,0.123084
293.4000,1.35965,207.161,0.132167
293.3000,0.457718,207.914,0.14298
293.2000,0.551241,207.352,0.134918
293.1000,0.291612,207.092,0.131173
293.0000,0.735674,206.198,0.118297
292.9000,1.34731,209.267,0.162316
292.8000,1.32923,206.415,0.121435
292.7000,-1.2257,207.402,0.135634
292.6000,-0.344839,206.776,0.126625
292.5000,1.56975,207.93,0.143208
292.4000,0.602409,207.895,0.142705
292.3000,1.30617,206.734,0.126022
292.2000,1.78072,206.022,0.115762
292.1000,1.7707,207.982,0.143955
292.0000,1.40026,206.692,0.125418
291.9000,2.43429,207.914,0.14298
291.8000,2.16085,207.968,0.143744
291.7000,0.11838,205.391,0.106639
291.6000,1.79486,207.141,0.131874
291.5000,0.931712,207.694,0.139813
291.4000,0.827202,206.628,0.124504
291.3000,1.59381,206.632,0.124553
291.2000,1.88396,206.747,0.126217
291.1000,1.51684,206.785,0.126756
291.0000,1.25412,207.23,0.13316
290.9000,0.77301,206.155,0.117676
290.8000,0.304303,207.339,0.134723
290.7000,0.300574,207.643,0.139081
290.6000,1.28148,207.52,0.137326
290.5000,2.61849,207.28,0.133876
290.4000,2.40236,207.3,0.134169
290.3000,0.846755,206.458,0.122055
290.2000,2.25093,207.136,0.131808
290.1000,0.6383,207.979,0.143906
290.0000,1.4591,207.092,0.131173
289.9000,0.12814,208.37,0.149502
289.8000,0.409775,208.736,0.154733
289.7000,1.57032,207.379,0.135292
289.6000,0.200728,208.239,0.147622
289.5000,0.772005,208.717,0.154458
289.4000,1.98144,207.554,0.137814
289.3000,0.386034,208.294,0.148416
289.2000,0.75831,207.452,0.13635
289.1000,1.06712,207.811,0.141503
289.0000,0.775349,206.821,0.127278
288.9000,2.50931,208.524,0.151706
288.8000,2.28202,208.521,0.151657
288.7000,0.44069,208.259,0.147913
288.6000,0.711494,207.801,0.141356
288.5000,0.021726,207.994,0.144117
288.4000,1.44492,208.004,0.144263
288.3000,0.716436,207.485,0.136822
288.2000,1.48479,207.961,0.143646
288.1000,2.72171,206.806,0.127066
288.0000,2.59994,208.892,0.156966
287.9000,0.496347,207.228,0.133127
287.8000,1.72746,207.552,0.137781
287.7000,2.49019,207.457,0.136415
287.6000,1.89199,208.734,0.154701
287.5000,2.20523,208.799,0.15564
287.4000,0.194743,207.748,0.140593
287.3000,-1.4991,206.898,0.128386
287.2000,0.408919,208.318,0.148757
287.1000,1.18375,207.565,0.137976
287.0000,0.246171,206.814,0.12718
286.9000,-0.755316,207.227,0.133111
286.8000,-0.642248,207.836,0.14186
286.7000,-0.625281,207.807,0.141438
286.6000,0.517478,207.558,0.137862
286.5000,0.0967909,208.343,0.149113
286.4000,2.26646,207.187,0.132541
286.3000,1.73682,207.206,0.132818
286.2000,2.0618,207.721,0.140203
286.1000,1.26097,207.351,0.134902
286.0000,1.33116,208.678,0.153908
285.9000,0.945005,207.519,0.137309
285.8000,1.44682,206.872,0.128011
285.7000,-1.22517,207.381,0.135325
285.6000,-0.377706,207.513,0.137228
285.5000,2.12344,207.811,0.141503
285.4000,1.13161,208.635,0.153293
285.3000,1.34893,207.413,0.13578
285.2000,0.219781,208.18,0.146778
285.1000,1.8947,208.547,0.15203
285.0000,0.651795,208.487,0.151171
284.9000,-0.739171,208.716,0.154442
284.8000,1.43229,208.086,0.145432
284.7000,1.27594,208.176,0.14673
284.6000,2.66255,208.594,0.15271
284.5000,0.609531,207.179,0.132427
284.4000,0.669236,207.338,0.134707
284.3000,-0.0988583,209.17,0.160927
284.2000,-0.425103,208.092,0.145529
284.1000,0.0177809,208.66,0.153649
284.0000,2.00335,207.384,0.135374
283.9000,0.441001,207.413,0.13578
283.8000,1.31279,207.672,0.139504
283.7000,0.988681,208.614,0.152985
283.6000,0.0553745,207.901,0.142786
283.5000,-0.254841,207.345,0.134804
283.4000,0.792379,207.553,0.137797
283.3000,0.492101,208.172,0.146665
283.2000,0.223503,208.744,0.154847
283.1000,1.46651,208.431,0.150377
283.0000,0.803212,207.427,0.135992
282.9000,0.751816,208.091,0.145513
282.8000,0.759609,208.997,0.158454
282.7000,2.32993,207.254,0.133502
282.6000,2.305,206.716,0.125761
282.5000,0.975763,208.251,0.1478
282.4000,1.19624,208.409,0.150053
282.3000,-0.549042,208.01,0.144344
282.2000,0.443464,207.181,0.13246
282.1000,0.642939,208.288,0.148335
282.0000,0.116159,207.118,0.131548
281.9000,0.312036,207.802,0.141373
281.8000,-0.0363112,208.09,0.145496
281.7000,0.337158,208.032,0.144669
281.6000,-0.322689,208.49,0.15122
281.5000,2.14563,207.812,0.141519
281.4000,0.106515,207.413,0.13578
281.3000,-0.839286,207.951,0.1435
281.2000,1.89311,208.284,0.14827
281.1000,-0.0156384,207.519,0.137309
281.0000,-0.0446697,206.727,0.125924
280.9000,0.538178,208.024,0.144555
280.8000,0.633412,206.615,0.124308
280.7000,1.1029,208.448,0.15062
280.6000,-0.588165,207.919,0.143045
280.5000,1.73083,209.117,0.160168
280.4000,0.302077,207.23,0.13316
280.3000,1.36548,207.222,0.133046
280.2000,-0.851678,208.846,0.156303
280.1000,0.756711,208.406,0.150021
280.0000,1.26065,208.917,0.157322
279.9000,1.25402,208.487,0.151171
279.8000,1.01287,208.13,0.146064
279.7000,1.16285,208.156,0.146437
279.6000,0.235875,207.718,0.140171
279.5000,1.33589,208.454,0.150701
279.4000,-0.919367,207.751,0.140642
279.3000,0.943154,207.893,0.142672
279.2000,-1.49891,207.728,0.1403
279.1000,1.66267,207.75,0.140625
279.0000,0.69709,208.454,0.150701
278.9000,1.07291,207,0.129853
278.8000,1.43883,208.266,0.14801
278.7000,1.92062,207.507,0.13713
278.6000,0.171778,209.044,0.159133
278.5000,0.944921,208.666,0.15373
278.4000,1.48176,208.064,0.145123
278.3000,0.536447,209.789,0.169738
278.2000,2.59052,207.698,0.139878
278.1000,0.273185,208.427,0.150312
278.0000,0.907786,208.773,0.155267
277.9000,-0.287601,208.668,0.153762
277.8000,1.07589,208.137,0.146162
277.7000,-0.654277,209.241,0.161945
277.6000,-0.0171254,208.14,0.14621
277.5000,0.328762,207.188,0.132557
277.4000,1.70413,209.325,0.16314
277.3000,2.56587,207.572,0.138074
277.2000,1.04857,207.643,0.139081
277.1000,0.813222,208.132,0.146097
277.0000,0.959175,207.942,0.14337
276.9000,1.17307,208.053,0.144961
276.8000,0.422594,207.706,0.139992
276.7000,-0.398661,208.657,0.1536
276.6000,0.280746,207.341,0.134755
276.5000,2.09102,208.499,0.151349
276.4000,0.620693,207.773,0.14095
276.3000,-0.296496,208.811,0.155802
276.2000,0.827872,208.734,0.154701
276.1000,2.0645,208.227,0.147459
276.0000,0.177525,208.216,0.147297
275.9000,0.384946,207.636,0.138984
275.8000,0.4327,207.383,0.135357
275.7000,0.599448,207.956,0.143581
275.6000,0.0354349,208.003,0.144247
275.5000,1.85742,208.239,0.147622
275.4000,0.764561,208.461,0.150798
275.3000,0.707605,207.717,0.140154
275.2000,2.3772,208.992,0.158389
275.1000,1.89493,208.729,0.154636
275.0000,-0.110929,207.447,0.136268
274.9000,0.580875,208.065,0.145139
274.8000,1.11366,208.143,0.146259
274.7000,-0.139276,209.374,0.163834
274.6000,1.5307,208.36,0.149356
274.5000,0.774556,209.312,0.162946
274.4000,0.00636472,209.053,0.159262
274.3000,0.378505,207.858,0.142168
274.2000,1.13075,208.137,0.146162
274.1000,-0.665135,208.83,0.156077
274.0000,0.383448,208.772,0.155251
273.9000,0.14393,207.907,0.142867
273.8000,-0.524628,208.227,0.147459
273.7000,0.253179,208.345,0.149145
273.6000,0.321404,207.621,0.138773
273.5000,1.53648,208.93,0.1575
273.4000,1.79912,208.104,0.145691
273.3000,1.05443,208.166,0.146583
273.2000,0.816551,208.406,0.150021
273.1000,0.550963,209.072,0.159537
273.0000,1.78875,210.058,0.173572
272.9000,-0.359554,207.408,0.135715
272.8000,1.04276,208.282,0.148238
272.7000,-1.16711,207.958,0.143598
272.6000,0.197352,208.052,0.144945
272.5000,0.433408,209.514,0.165835
272.4000,1.53958,207.964,0.143695
272.3000,-1.20434,209.143,0.160539
272.2000,0.388407,208.446,0.150588
272.1000,-0.864875,207.899,0.142753
272.0000,-0.692823,208.915,0.15729
271.9000,-0.343464,208.72,0.154507
271.8000,0.867611,207.947,0.143451
271.7000,1.63774,207.988,0.144036
271.6000,1.21084,207.854,0.14212
271.5000,0.393017,208.31,0.148643
271.4000,-1.03068,208.002,0.144231
271.3000,-1.75612,208.412,0.150102
271.2000,2.28377,208.566,0.152305
271.1000,-0.0267187,208.12,0.145918
271.0000,1.39406,208.491,0.151236
270.9000,-0.441605,208.954,0.15784
270.8000,-1.47286,207.513,0.137228
270.7000,1.02687,208.126,0.146016
270.6000,1.47651,208.764,0.155138
270.5000,0.203633,208.565,0.152289
270.4000,1.95195,208.316,0.148724
270.3000,-0.701127,208.362,0.149388
270.2000,-0.765324,208.627,0.153179
270.1000,0.0467622,206.856,0.127783
270.0000,0.878715,208.1,0.145642
269.9000,0.717445,208.742,0.154814
269.8000,0.444414,209.263,0.162251
269.7000,-0.327856,208.658,0.153617
269.6000,0.183063,208.398,0.149907
269.5000,-1.05684,208.716,0.154442
269.4000,1.73905,209.031,0.158939
269.3000,0.69136,210.254,0.176356
269.2000,-0.202694,209.455,0.164996
269.1000,0.410109,209.026,0.158874
269.0000,0.205467,208.115,0.145853
268.9000,0.193398,208.774,0.155284
268.8000,-0.646227,208.308,0.148611
268.7000,1.48911,209.346,0.16343
268.6000,-0.25671,208.884,0.156853
268.5000,0.417414,207.528,0.137439
268.4000,-1.10082,208.006,0.144296
268.3000,-0.840638,209.201,0.161363
268.2000,-0.0974014,208.794,0.155559
268.1000,-0.190624,208.929,0.157484
268.0000,-0.519445,209.078,0.159618
267.9000,-0.11181,209.529,0.166045
267.8000,0.950265,209.351,0.163511
267.7000,0.110825,207.358,0.134999
267.6000,-0.342551,209.364,0.163689
267.5000,-0.060069,209.334,0.163269
267.4000,1.54424,208.874,0.156707
267.3000,0.540739,209.221,0.161654
267.2000,0.28266,208.94,0.157645
267.1000,0.694023,209.843,0.170511
267.0000,0.065028,209.571,0.166642
266.9000,2.02969,209.859,0.170737
266.8000,1.04832,209.052,0.159246
266.7000,-0.496521,209.162,0.160814
266.6000,1.14173,209.077,0.159602
266.5000,-0.202946,208.479,0.151058
266.4000,-0.264068,209.253,0.162106
266.3000,2.65975,209.307,0.162881
266.2000,2.1169,209.067,0.159456
266.1000,0.292788,209.668,0.168029
266.0000,0.17779,209.61,0.16719
265.9000,-0.21847,209.554,0.1664
265.8000,-1.16384,210.57,0.180842
265.7000,2.42314,209.364,0.163689
265.6000,1.45066,209.738,0.169012
265.5000,2.50207,209.693,0.168384
265.4000,1.77487,210.874,0.185146
265.3000,0.0513581,210.034,0.173234
265.2000,0.466318,210.611,0.18142
265.1000,1.32277,210.01,0.172879
265.0000,-0.724035,209.542,0.166223
264.9000,-0.324438,209.207,0.16146
264.8000,2.15858,209.394,0.164125
264.7000,0.132167,210.583,0.181019
264.6000,-1.21778,209.641,0.167642
264.5000,1.07109,209.767,0.169431
264.4000,0.218902,208.333,0.148967
264.3000,1.26248,210.034,0.173234
264.2000,0.468884,209.465,0.165125
264.1000,-0.364401,209.631,0.167497
264.0000,0.561268,209.606,0.167142
263.9000,0.303705,210.439,0.178978
263.8000,-0.393624,210.583,0.181019
263.7000,0.820737,210.022,0.173056
263.6000,0.748506,210.326,0.17737
263.5000,0.397195,209.716,0.168706
263.4000,0.683253,210.19,0.175439
263.3000,-0.236763,210.578,0.180955
263.2000,-0.577061,210.575,0.180906
263.1000,-0.539245,209.955,0.172106
263.0000,0.876849,210.257,0.176388
262.9000,0.693175,209.365,0.163705
262.8000,1.59998,210.443,0.179042
262.7000,-0.673621,210.294,0.176919
262.6000,-0.902023,209.974,0.17238
262.5000,0.470974,209.894,0.171237
262.4000,0.620401,210.646,0.181919
262.3000,-0.599796,210.147,0.174827
262.2000,0.16672,210.904,0.185563
262.1000,-0.447026,209.764,0.169383
262.0000,0.424097,210.152,0.174908
261.9000,1.24981,209.777,0.169577
261.8000,1.03138,210.933,0.18598
261.7000,-1.30599,209.746,0.169125
261.6000,-0.123876,210.098,0.174135
261.5000,1.40114,210.233,0.176051
261.4000,1.13217,210.709,0.182802
261.3000,-1.19132,209.755,0.169254
261.2000,-0.0676851,210.217,0.175825
261.1000,1.69726,210.388,0.178254
261.0000,-0.109919,210.926,0.185884
260.9000,-1.77959,210.194,0.175503
260.8000,0.457101,210.325,0.177354
260.7000,1.3946,210.284,0.176775
260.6000,-1.49766,210.44,0.178994
260.5000,-0.00492474,210.462,0.179299
260.4000,-0.74148,210.236,0.176099
260.3000,-0.616132,210.45,0.179138
260.2000,0.448228,210.619,0.181533
260.1000,1.00405,210.53,0.180264
260.0000,0.524287,210.618,0.181517
259.9000,-1.26273,210.954,0.186285
259.8000,2.44863,211.202,0.189781
259.7000,0.695272,210.604,0.181324
259.6000,0.322553,210.737,0.183203
259.5000,0.742949,211.462,0.193466
259.4000,1.29885,210.996,0.186879
259.3000,0.28454,211.47,0.193578
259.2000,0.0883379,209.56,0.166481
259.1000,1.33743,210.785,0.183878
259.0000,1.65061,210.932,0.185964
258.9000,1.57631,211.786,0.198043
258.8000,0.279023,211.299,0.191159
258.7000,-0.842546,212.492,0.207992
258.6000,-0.0194187,212.044,0.201687
258.5000,1.36161,210.877,0.185194
258.4000,0.128959,210.433,0.178897
258.3000,0.686021,211.995,0.200984
258.2000,1.51763,211.818,0.19849
258.1000,1.55975,212.077,0.20215
258.0000,-0.904374,210.703,0.182722
257.9000,0.605705,211.697,0.196779
257.8000,-0.483442,211.864,0.199146
257.7000,1.31311,211.7,0.196827
257.6000,0.581269,211.689,0.196667
257.5000,0.951052,211.401,0.192601
257.4000,-0.505791,211.277,0.190855
257.3000,-1.64891,210.877,0.185194
257.2000,1.07741,212.315,0.205503
257.1000,3.06758,211.123,0.188675
257.0000,1.33548,212.29,0.205152
256.9000,-0.543331,211.516,0.194234
256.8000,1.66201,212.279,0.204993
256.7000,-0.647558,211.318,0.191432
256.6000,2.13872,211.264,0.190663
256.5000,1.51264,211.954,0.200409
256.4000,-1.65667,211.489,0.19385
256.3000,2.20873,211.691,0.196699
256.2000,0.739756,211.825,0.198587
256.1000,0.500531,212.264,0.204785
256.0000,-0.383011,211.684,0.196603
255.9000,-1.39062,211.949,0.200345
255.8000,1.33337,213.226,0.218313
255.7000,0.340091,211.903,0.199689
255.6000,0.5429,212.023,0.201384
255.5000,1.17239,211.81,0.198379
255.4000,0.958063,212.817,0.212567
255.3000,1.09091,212.161,0.203332
255.2000,1.24357,211.635,0.195915
255.1000,-0.214446,212.262,0.204753
255.0000,1.44463,212.218,0.204131
254.9000,-0.194961,212.843,0.212933
254.8000,0.13484,211.341,0.191752
254.7000,1.03147,212.345,0.205918
254.6000,1.48569,211.664,0.196315
254.5000,0.66774,212.614,0.209714
254.4000,-0.281672,213.813,0.226541
254.3000,0.855544,212.438,0.207227
254.2000,1.4608,212.37,0.20627
254.1000,0.66047,213.148,0.217215
254.0000,-0.233947,212.999,0.215115
253.9000,0.0361335,212.133,0.202933
253.8000,0.374562,211.825,0.198587
253.7000,-0.751413,212.397,0.206653
253.6000,-0.0626142,212.086,0.202278
253.5000,0.600177,213.116,0.21677
253.4000,1.86113,212.71,0.211053
253.3000,-0.144445,212.724,0.21126
253.2000,1.04113,212.451,0.207418
253.1000,0.174796,212.634,0.209985
253.0000,-0.444409,212.899,0.213713
252.9000,1.7484,212.89,0.213586
252.8000,0.225996,213.28,0.21906
252.7000,2.06892,213.691,0.224827
252.6000,0.392576,212.822,0.212631
252.5000,-0.769875,212.584,0.209284
252.4000,0.875682,213.179,0.217645
252.3000,-0.102767,212.607,0.209603
252.2000,-0.742263,213.519,0.222413
252.1000,-0.330718,213.72,0.22524
252.0000,0.605971,213.025,0.215481
251.9000,-0.500115,212.672,0.210527
251.8000,1.46048,212.895,0.213666
251.7000,-1.51341,212.919,0.214
251.6000,0.411577,213.266,0.218869
251.5000,-0.735469,213.186,0.21774
251.4000,2.28037,212.883,0.21349
251.3000,-0.67065,213.363,0.220236
251.2000,0.21382,213.75,0.225652
251.1000,0.0364159,212.821,0.212615
251.0000,0.966784,213.434,0.221222
250.9000,1.90053,213.583,0.223319
250.8000,-0.382995,213.882,0.227509
250.7000,0.00735999,212.759,0.211755
250.6000,1.66163,212.979,0.214844
250.5000,-0.871858,214.665,0.238454
250.4000,0.902628,213.215,0.218154
250.3000,2.13274,213.308,0.219457
250.2000,0.480993,214.38,0.234467
250.1000,-1.93199,213.691,0.224827
250.0000,0.397403,213.826,0.226716
249.9000,-0.0844273,215.012,0.243291
249.8000,0.855294,213.495,0.22208
249.7000,-0.105993,214.338,0.233881
249.6000,-0.492289,214.167,0.231489
249.5000,1.32712,214.973,0.242753
249.4000,-0.54508,213.826,0.226716
249.3000,0.873232,214.455,0.235511
249.2000,-0.190469,214.128,0.23095
249.1000,-1.4993,213.55,0.222858
249.0000,-0.0716713,213.658,0.224367
248.9000,-2.4072,215.145,0.245138
248.8000,-1.11223,214.177,0.231631
248.7000,1.0967,214.416,0.234973
248.6000,-1.34197,214.211,0.232107
248.5000,-0.151462,215.253,0.246653
248.4000,-1.26924,213.951,0.228477
248.3000,-0.00445927,214.076,0.230221
248.2000,-0.644357,214.557,0.236936
248.1000,-0.224342,213.871,0.227351
248.0000,-1.53231,214.281,0.233089
247.9000,0.38212,215.01,0.243259
247.8000,-0.0182332,214.048,0.229824
247.7000,-1.0523,214.611,0.237695
247.6000,-0.812993,215.258,0.246717
247.5000,-1.98771,215.722,0.253181
247.4000,0.794168,214.93,0.242153
247.3000,0.241288,213.789,0.226208
247.2000,-0.872776,215.158,0.245328
247.1000,-0.639365,214.675,0.238597
247.0000,1.27453,213.815,0.226573
246.9000,-0.312219,215.155,0.24528
246.8000,-0.206235,216.153,0.259161
246.7000,-1.07856,215.608,0.251589
246.6000,-0.978329,215.131,0.244949
246.5000,0.309795,215.277,0.246985
246.4000,-1.2375,215.276,0.246969
246.3000,-0.97033,215.634,0.251952
246.2000,1.34426,215.44,0.249256
246.1000,-2.52194,216.077,0.258107
246.0000,-0.328977,215.892,0.255543
245.9000,-0.787985,215.089,0.244365
245.8000,-1.8626,215.396,0.248641
245.7000,-0.498525,215.472,0.249697
245.6000,-3.2513,215.601,0.251495
245.5000,-1.6066,216.374,0.262227
245.4000,-1.93333,215.401,0.248704
245.3000,-1.21221,215.051,0.243828
245.2000,-2.53221,214.66,0.238375
245.1000,-1.6794,215.915,0.255857
245.0000,-2.47523,215.034,0.243591
244.9000,-0.0851105,216.477,0.263656
244.8000,-2.157,216.851,0.268836
244.7000,-1.03507,216.429,0.262996
244.6000,-0.625162,217.648,0.279845
244.5000,-1.61511,215.813,0.25444
244.4000,-0.846066,216.113,0.258611
244.3000,-2.21378,216.112,0.258595
244.2000,-3.37585,215.85,0.25496
244.1000,-1.50866,217.079,0.271987
244.0000,-2.04038,216.442,0.263169
243.9000,-4.23655,216.408,0.262698
243.8000,-3.55454,216.043,0.257635
243.7000,-2.47245,216.235,0.260293
243.6000,-2.20337,216.571,0.264959
243.5000,-2.83259,216.805,0.268193
243.4000,-2.36426,217.113,0.272457
243.3000,-0.439875,216.499,0.263955
243.2000,-4.59905,218.031,0.285127
243.1000,-3.27511,217.427,0.276794
243.0000,-4.70351,216.548,0.264645
242.9000,-4.03384,218.102,0.28611
242.8000,-3.49884,216.599,0.265352
242.7000,-4.81266,217.678,0.280267
242.6000,-2.5107,217.872,0.28294
242.5000,-3.60166,217.577,0.278875
242.4000,-5.24546,217.923,0.283643
242.3000,-4.1034,218.481,0.291336
242.2000,-4.29445,217.615,0.279392
242.1000,-4.49012,217.699,0.280549
242.0000,-4.17663,217.975,0.284361
241.9000,-4.68876,218.191,0.287343
241.8000,-4.05032,217.74,0.281127
241.7000,-5.71841,218.791,0.295589
241.6000,-4.3283,218.029,0.285111
241.5000,-5.38174,218.659,0.293782
241.4000,-5.30924,218.602,0.292988
241.3000,-6.77964,218.543,0.292177
241.2000,-4.55347,218.479,0.291304
241.1000,-5.99293,217.407,0.276528
241.0000,-4.62741,218.543,0.292177
240.9000,-8.35416,218.002,0.284736
240.8000,-6.92241,218.894,0.297005
240.7000,-6.77166,218.315,0.289044
240.6000,-5.51763,219.636,0.307185
240.5000,-7.18678,218.921,0.297379
240.4000,-6.38449,219.643,0.307278
240.3000,-10.055,219.501,0.305338
240.2000,-6.31579,220.161,0.314364
240.1000,-6.96501,219.696,0.308008
240.0000,-5.78396,219.647,0.30734
239.9000,-8.91258,220.507,0.319101
239.8000,-6.56197,220.149,0.314209
239.7000,-7.63715,220.137,0.314039
239.6000,-7.34027,219.806,0.309512
239.5000,-8.63354,221.144,0.327785
239.4000,-9.50885,220.818,0.323337
239.3000,-8.86472,220.993,0.325731
239.2000,-8.78069,221.552,0.333336
239.1000,-9.78529,220.603,0.3204
239.0000,-8.77929,221.605,0.33406
238.9000,-12.4103,221.859,0.33751
238.8000,-10.459,221.511,0.332781
238.7000,-10.8657,221.864,0.337571
238.6000,-10.3334,222.815,0.350478
238.5000,-8.59219,222.41,0.344983
238.4000,-11.4373,222.171,0.34174
238.3000,-12.4215,221.772,0.336324
238.2000,-8.46794,222.299,0.343477
238.1000,-12.0262,222.903,0.351658
238.0000,-10.2603,223.18,0.355413
237.9000,-11.3326,221.798,0.336678
237.8000,-14.1637,222.894,0.351535
237.7000,-12.3378,223.583,0.360846
237.6000,-13.2424,224.094,0.367737
237.5000,-13.0337,224.147,0.368455
237.4000,-11.3365,223.798,0.363751
237.3000,-13.8365,223.606,0.361167
237.2000,-12.9321,224.191,0.36905
237.1000,-15.7215,224.389,0.371719
237.0000,-15.2182,225.088,0.381116
236.9000,-14.0496,225.24,0.383153
236.8000,-17.131,224.806,0.377327
236.7000,-14.1536,224.959,0.379381
236.6000,-15.0968,224.84,0.377783
236.5000,-18.0417,226.337,0.397838
236.4000,-16.435,226.314,0.397536
236.3000,-16.0456,225.672,0.38894
236.2000,-15.327,226.53,0.400411
236.1000,-18.1917,226.243,0.396582
236.0000,-18.7381,226.403,0.398717
235.9000,-16.882,226.051,0.394021
235.8000,-18.7425,227.351,0.411364
235.7000,-18.1367,226.048,0.393976
235.6000,-17.3032,226.996,0.40664
235.5000,-19.6109,226.238,0.396521
235.4000,-20.3817,226.787,0.403844
235.3000,-19.8259,226.91,0.405491
235.2000,-21.1154,227.31,0.410821
235.1000,-18.9461,228.075,0.42099
235.0000,-19.5336,228.809,0.430727
234.9000,-21.757,228.533,0.427064
234.8000,-21.718,229.823,0.444132
234.7000,-19.7001,228.987,0.433082
234.6000,-23.1704,228.891,0.431807
234.5000,-24.7135,229.227,0.436259
234.4000,-22.6973,228.215,0.422841
234.3000,-21.9539,229.201,0.435915
234.2000,-25.356,231.457,0.465627
234.1000,-23.8634,229.743,0.44307
234.0000,-23.9874,229.809,0.443937
233.9000,-24.9788,230.45,0.45239
233.8000,-25.3483,229.902,0.445163
233.7000,-26.2098,230.755,0.456401
233.6000,-28.313,230.838,0.457488
233.5000,-25.0073,231.411,0.465018
233.4000,-27.1855,231.208,0.462356
233.3000,-28.6163,231.245,0.462847
233.2000,-29.8665,232.279,0.476388
233.1000,-27.1524,231.969,0.472339
233.0000,-28.5501,232.512,0.479439
232.9000,-28.0469,233.118,0.487353
232.8000,-29.9549,233.748,0.495559
232.7000,-30.6548,233.77,0.495839
232.6000,-29.0185,233.427,0.49137
232.5000,-28.4185,232.962,0.485313
232.4000,-31.9498,233.303,0.48976
232.3000,-33.0068,233.459,0.491797
232.2000,-32.7928,234.968,0.511388
232.1000,-33.7501,236.255,0.528027
232.0000,-32.6788,234.494,0.505247
231.9000,-33.0567,234.202,0.501451
231.8000,-32.5331,235.931,0.523845
231.7000,-36.4491,235.535,0.518735
231.6000,-34.0508,236.096,0.52598
231.5000,-36.3122,235.142,0.513648
231.4000,-34.1768,235.956,0.524167
231.3000,-34.1578,236.172,0.52696
231.2000,-35.5633,236.144,0.526594
231.1000,-39.1738,236.521,0.531459
231.0000,-38.6099,236.669,0.533371
230.9000,-36.4522,237.051,0.538285
230.8000,-35.8522,236.714,0.53394
230.7000,-35.6579,237.45,0.543412
230.6000,-35.8491,236.659,0.53324
230.5000,-40.2902,236.617,0.5327
230.4000,-39.0456,237.357,0.542218
230.3000,-40.9818,238.736,0.559892
230.2000,-40.4438,238.456,0.556312
230.1000,-41.1797,237.685,0.546423
230.0000,-37.4898,238.872,0.56163
229.9000,-41.2769,238.676,0.559124
229.8000,-42.062,238.719,0.559675
229.7000,-42.2634,239.146,0.565133
229.6000,-41.0764,238.849,0.561341
229.5000,-44.1905,238.891,0.561876
229.4000,-44.9011,239.868,0.574337
229.3000,-40.5703,240.393,0.581013
229.2000,-43.1784,239.408,0.568473
229.1000,-45.5424,239.823,0.57376
229.0000,-44.9624,240.142,0.577828
228.9000,-46.606,240.438,0.581589
228.8000,-43.0121,241.348,0.593137
228.7000,-45.7074,241.878,0.59985
228.6000,-45.5542,242.175,0.603603
228.5000,-48.0625,242.456,0.607152
228.4000,-46.9278,242.371,0.606079
228.3000,-48.9705,242.778,0.611212
228.2000,-48.0161,242.543,0.608253
228.1000,-49.3094,243.196,0.616481
228.0000,-49.0772,242.986,0.61384
227.9000,-50.5,243.621,0.621827
227.8000,-50.2352,244.079,0.627579
227.7000,-49.2972,244.566,0.63369
227.6000,-49.2783,243.876,0.625031
227.5000,-52.7158,243.495,0.620245
227.4000,-48.7849,244.731,0.635763
227.3000,-50.9538,245.315,0.643066
227.2000,-50.0659,244.585,0.633932
227.1000,-51.6786,245.197,0.641592
227.0000,-51.2811,246.397,0.656569
226.9000,-54.0634,245.041,0.639636
226.8000,-49.8387,247.3,0.667801
226.7000,-50.814,246.929,0.663197
226.6000,-54.445,247.291,0.667689
226.5000,-50.9495,247.204,0.666605
226.4000,-54.6484,247.502,0.670305
226.3000,-55.8435,246.712,0.660491
226.2000,-52.8666,248.324,0.6805
226.1000,-56.2485,249.022,0.689129
226.0000,-55.5043,248.618,0.684131
225.9000,-55.9779,247.792,0.673903
225.8000,-57.0346,249.009,0.688961
225.7000,-53.728,249.033,0.689268
225.6000,-57.8047,248.733,0.685559
225.5000,-56.269,248.867,0.687211
225.4000,-55.7376,249.888,0.699802
225.3000,-57.1718,249.878,0.699677
225.2000,-58.1158,250.377,0.705824
225.1000,-60.5997,249.426,0.694106
225.0000,-60.7568,250.534,0.707746
224.9000,-58.2863,250.935,0.712671
224.8000,-56.7834,251.541,0.720101
224.7000,-57.8228,251.728,0.72239
224.6000,-59.5245,252.069,0.726561
224.5000,-59.1111,251.601,0.720836
224.4000,-57.9481,253.073,0.738812
224.3000,-58.6563,253.286,0.741407
224.2000,-60.5991,251.902,0.724524
224.1000,-61.8223,252.14,0.727434
224.0000,-59.767,252.952,0.737335
223.9000,-62.3599,253.706,0.746522
223.8000,-59.6564,253.763,0.74721
223.7000,-58.731,252.869,0.736327
223.6000,-61.7741,254.528,0.756496
223.5000,-59.339,253.537,0.744468
223.4000,-59.224,254.358,0.754435
223.3000,-63.2257,253.797,0.747624
223.2000,-64.4767,256.077,0.775231
223.1000,-61.792,256.296,0.777882
223.0000,-58.0013,255.216,0.764827
222.9000,-61.9344,256.529,0.780682
222.8000,-59.2261,256.013,0.774466
222.7000,-60.1194,256.539,0.780805
222.6000,-59.8608,256.81,0.784066
222.5000,-62.8733,257.172,0.788428
222.4000,-61.0251,257.074,0.787242
222.3000,-62.7675,257.575,0.793261
222.2000,-63.3301,257.397,0.791124
222.1000,-62.5878,258.036,0.798794
222.0000,-62.2228,258.338,0.802419
221.9000,-60.7659,259.236,0.813152
221.8000,-61.0412,258.432,0.803545
221.7000,-60.617,259.488,0.816169
221.6000,-61.4347,259.414,0.815276
221.5000,-62.7991,259.675,0.818399
221.4000,-63.1281,260.013,0.822424
221.3000,-59.9636,260.445,0.827564
221.2000,-61.6785,261.137,0.835791
221.1000,-62.3282,260.303,0.825878
221.0000,-61.972,260.913,0.833127
220.9000,-62.8774,260.548,0.82879
220.8000,-62.0039,260.572,0.829073
220.7000,-59.4435,262.358,0.850263
220.6000,-61.725,262.286,0.849406
220.5000,-63.5841,261.856,0.844323
220.4000,-62.6709,262.392,0.850665
220.3000,-59.9572,262.912,0.856809
220.2000,-61.7594,262.148,0.84777
220.1000,-60.1764,264.055,0.870268
220.0000,-60.1582,264.929,0.880542
219.9000,-59.89,265.06,0.88207
219.8000,-61.2956,264.017,0.869828
219.7000,-62.1235,263.907,0.868535
219.6000,-62.5984,264.919,0.880423
219.5000,-61.2897,265.214,0.883877
219.4000,-59.789,263.553,0.864359
219.3000,-63.471,265.462,0.886784
219.2000,-59.6369,265.981,0.892856
219.1000,-64.7119,264.885,0.880024
219.0000,-62.7096,266.632,0.900466
218.9000,-58.0064,266.501,0.898932
218.8000,-63.3432,265.531,0.887593
218.7000,-59.1371,266.398,0.897728
218.6000,-59.7261,266.713,0.901404
218.5000,-63.3121,266.892,0.903492
218.4000,-59.5643,267.761,0.91361
218.3000,-57.9461,268.025,0.916678
218.2000,-63.5219,267.927,0.915546
218.1000,-61.0172,269.537,0.93421
218.0000,-63.2925,269.85,0.937825
217.9000,-60.3155,269.204,0.930356
217.8000,-61.3947,270.522,0.945579
217.7000,-59.3576,270.37,0.943828
217.6000,-62.0066,269.855,0.937877
217.5000,-63.5575,271.278,0.954281
217.4000,-62.8509,270.234,0.94226
217.3000,-63.6635,272.147,0.964264
217.2000,-61.3829,272.027,0.962886
217.1000,-64.7818,271.974,0.962275
217.0000,-59.2043,271.924,0.961702
216.9000,-62.888,272.64,0.969913
216.8000,-61.8087,273.835,0.98358
216.7000,-58.9963,272.982,0.973831
216.6000,-59.2343,273.266,0.977084
216.5000,-56.4006,274.589,0.99217
216.4000,-60.9484,274.342,0.989356
216.3000,-63.6179,274.254,0.988362
216.2000,-59.726,274.722,0.993692
216.1000,-59.1371,274.984,0.99667
216.0000,-58.5239,275.608,1.00376
215.9000,-65.9293,276.244,1.01097
215.8000,-60.7664,277.626,1.0266
215.7000,-61.6441,276.821,1.0175
215.6000,-60.2171,276.263,1.01119
215.5000,-59.5895,276.777,1.017
215.4000,-56.8533,277.114,1.02082
215.3000,-57.6766,276.788,1.01713
215.2000,-55.0638,276.742,1.0166
215.1000,-58.8719,277.951,1.03026
215.0000,-62.1975,279.434,1.04694
214.9000,-63.9111,279.358,1.04608
214.8000,-65.6717,279.128,1.0435
214.7000,-58.8479,280.291,1.05655
214.6000,-58.2213,279.703,1.04996
214.5000,-57.0985,281.146,1.0661
214.4000,-58.6446,281.258,1.06735
214.3000,-62.8474,281.438,1.06936
214.2000,-60.5212,282.018,1.07583
214.1000,-59.9533,281.868,1.07415
214.0000,-60.8063,282.543,1.08167
213.9000,-59.4461,283.21,1.08908
213.8000,-59.9019,282.869,1.08529
213.7000,-58.4582,284.521,1.1036
213.6000,-61.4583,282.905,1.0857
213.5000,-63.2645,284.188,1.09992
213.4000,-58.1188,284.573,1.10418
213.3000,-60.7508,285.157,1.11062
213.2000,-61.6139,285.437,1.11371
213.1000,-64.1651,286.646,1.12701
213.0000,-64.2876,285.987,1.11977
212.9000,-64.8372,287.024,1.13117
212.8000,-62.3917,285.419,1.11351
212.7000,-60.9682,287.258,1.13373
212.6000,-62.7853,287.707,1.13866
212.5000,-65.2509,286.428,1.12462
212.4000,-59.9732,288.285,1.14498
212.3000,-61.0467,290.398,1.16802
212.2000,-62.4646,289.608,1.15942
212.1000,-57.6988,290.219,1.16608
212.0000,-66.2657,289.535,1.15863
211.9000,-57.8244,290.766,1.17201
211.8000,-60.3071,291.741,1.18259
211.7000,-61.248,291.087,1.1755
211.6000,-65.3292,291.531,1.18032
211.5000,-63.7268,292.368,1.18936
211.4000,-63.061,293.969,1.20663
211.3000,-62.6942,292.25,1.18809
211.2000,-64.3166,293.553,1.20215
211.1000,-63.3308,295.929,1.22766
211.0000,-68.9148,294.28,1.20998
210.9000,-67.0896,297.198,1.24121
210.8000,-64.6628,296.5,1.23376
210.7000,-64.1072,296.962,1.2387
210.6000,-64.3756,297.29,1.24219
210.5000,-63.9301,298.408,1.25409
210.4000,-68.0973,297.619,1.2457
210.3000,-58.8796,298.434,1.25437
210.2000,-64.9415,300.555,1.27684
210.1000,-57.1267,300.147,1.27253
210.0000,-66.2985,300.579,1.27709
209.9000,-63.5831,299.918,1.2701
209.8000,-65.5526,301.776,1.2897
209.7000,-70.3488,302.556,1.29791
209.6000,-60.9987,302.529,1.29763
209.5000,-69.4955,304.02,1.31326
209.4000,-66.958,304.897,1.32242
209.3000,-61.6535,305.613,1.32989
209.2000,-66.0012,305.387,1.32752
209.1000,-63.6034,306.662,1.3408
209.0000,-66.7296,305.783,1.33166
208.9000,-64.9388,308.427,1.35908
208.8000,-65.9317,308.385,1.35864
208.7000,-67.3738,309.234,1.36742
208.6000,-65.6395,310.257,1.37795
208.5000,-64.3168,308.931,1.36429
208.4000,-62.5074,311.557,1.3913
208.3000,-65.5271,311.067,1.38627
208.2000,-65.8277,313.549,1.41166
208.1000,-59.2316,312.75,1.40351
208.0000,-70.8802,314.298,1.41929
207.9000,-64.9369,314.312,1.41943
207.8000,-66.7629,317.225,1.44896
207.7000,-62.3354,317.215,1.44885
207.6000,-65.4292,318.689,1.46371
207.5000,-66.2091,318.089,1.45767
207.4000,-63.2467,319.773,1.4746
207.3000,-61.8902,320.224,1.47912
207.2000,-62.0331,320.036,1.47723
207.1000,-58.0135,321.137,1.48826
207.0000,-56.8501,321.859,1.49546
206.9000,-56.1525,320.891,1.4858
206.8000,-63.6708,324.275,1.51948
206.7000,-60.9624,326.434,1.54083
206.6000,-60.8391,325.954,1.53609
206.5000,-53.9898,328.234,1.55853
206.4000,-58.1455,327.374,1.55008
206.3000,-62.2623,329.753,1.57341
206.2000,-57.4008,329.873,1.57459
206.1000,-50.9555,331.113,1.58668
206.0000,-51.9838,331.607,1.59149
205.9000,-57.3607,334.033,1.61502
205.8000,-49.2975,336.197,1.63589
205.7000,-54.4481,335.474,1.62893
205.6000,-51.5262,336.472,1.63854
205.5000,-44.4946,337.301,1.64649
205.4000,-41.2774,339.125,1.66395
205.3000,-45.7659,340.031,1.6726
205.2000,-49.4907,341.415,1.68576
205.1000,-48.4393,342.9,1.69983
205.0000,-42.2975,342.772,1.69862
204.9000,-40.2045,345.425,1.72364
204.8000,-47.9198,345.56,1.72491
204.7000,-43.0906,346.519,1.73392
204.6000,-35.5498,347.329,1.74151
204.5000,-39.3888,349.122,1.75825
204.4000,-34.6061,350.698,1.77291
204.3000,-41.0539,352.77,1.79211
204.2000,-38.8974,353.041,1.79461
204.1000,-41.2747,354.315,1.80635
204.0000,-42.8175,354.85,1.81127
203.9000,-34.1929,358.515,1.84482
203.8000,-18.196,360.193,1.86008
203.7000,-21.1196,361.437,1.87136
203.6000,-29.5183,362.736,1.8831
203.5000,-23.6737,363.295,1.88815
203.4000,-33.3078,365.463,1.90764
203.3000,-29.7231,365.557,1.90848
203.2000,-25.332,367.649,1.92719
203.1000,-22.5109,369.372,1.94254
203.0000,-23.3301,370.692,1.95426
202.9000,-17.6738,372.403,1.96939
202.8000,-25.8719,374.975,1.99203
202.7000,-12.4497,375.514,1.99676
202.6000,-4.48119,376.525,2.00561
202.5000,-11.8718,379.135,2.02837
202.4000,-9.75871,381.38,2.04785
202.3000,-4.29879,382.255,2.05542
202.2000,-13.1461,382.902,2.061
202.1000,-19.5516,385.176,2.08056
202.0000,-7.64411,387.057,2.09667
201.9000,-4.18008,390.251,2.12388
201.8000,2.5478,391.669,2.13589
201.7000,1.43032,392.623,2.14396
201.6000,4.19479,394.084,2.15628
201.5000,-7.00909,395.953,2.17198
201.4000,4.9484,397.96,2.18878
201.3000,7.03979,400.23,2.20768
201.2000,11.8944,401.985,2.22224
201.1000,-0.0431696,404.033,2.23916
201.0000,-6.0477,405.918,2.25467
200.9000,0.399488,407.054,2.26399
200.8000,11.3389,408.336,2.27448
200.7000,6.70933,411.935,2.30377
200.6000,3.18369,413.434,2.31591
200.5000,20.8573,415.175,2.32997
200.4000,16.3169,417.633,2.34972
200.3000,10.9645,420.164,2.36996
200.2000,14.5097,421.483,2.38047
200.1000,35.9848,424.862,2.40726
200.0000,32.0853,426.895,2.42329
199.9000,17.0257,428.092,2.43271
199.8000,27.9481,431.649,2.46054
199.7000,25.2589,433.389,2.47408
199.6000,29.3833,435.223,2.4883
199.5000,31.7232,438.037,2.51004
199.4000,35.2032,438.359,2.51252
199.3000,26.3154,440.596,2.5297
199.2000,19.9575,443.631,2.55289
199.1000,43.7547,445.516,2.56723
199.0000,23.0696,447.685,2.58366
198.9000,14.5036,449.611,2.5982
198.8000,19.9797,453.094,2.62436
198.7000,37.3519,454.681,2.63621
198.6000,15.9714,457.536,2.65747
198.5000,22.6457,460.858,2.68205
198.4000,32.3504,463.944,2.70475
198.3000,33.0126,464.507,2.70888
198.2000,25.6234,467.45,2.7304
198.1000,34.1232,469.65,2.7464
198.0000,44.7009,472.844,2.76953
197.9000,33.8898,474.802,2.78364
197.8000,30.2702,475.953,2.79192
197.7000,39.9254,481.038,2.82827
197.6000,34.2061,481.763,2.83342
197.5000,31.6098,484.387,2.85203
197.4000,29.1577,485.981,2.86329
197.3000,25.6578,489.344,2.88694
197.2000,17.6809,492.271,2.90742
197.1000,31.8277,495.946,2.93299
197.0000,35.9354,497.523,2.94391
196.9000,37.2141,498.777,2.95257
196.8000,33.8171,503.818,2.98722
196.7000,30.2631,505.405,2.99806
196.6000,37.3923,508.539,3.01939
196.5000,40.5954,512.471,3.04599
196.4000,41.5539,513.027,3.04975
196.3000,39.015,516.503,3.0731
196.2000,33.7116,519.382,3.09235
196.1000,44.4456,522.414,3.11252
196.0000,35.9187,524.002,3.12304
195.9000,42.419,527.188,3.14407
195.8000,29.6924,529.874,3.16173
195.7000,31.951,534.378,3.19115
195.6000,20.6367,534.67,3.19305
195.5000,51.3644,536.484,3.20483
195.4000,32.1299,541.309,3.23602
195.3000,29.6382,543.685,3.2513
195.2000,43.8368,544.806,3.25848
195.1000,36.7319,546.867,3.27166
195.0000,24.5517,549.123,3.28603
194.9000,42.8917,550.435,3.29437
194.8000,30.7518,554.284,3.31873
194.7000,31.4376,554.198,3.31819
194.6000,24.8854,556.726,3.33411
194.5000,22.9061,560.462,3.35753
194.4000,26.576,563.113,3.37408
194.3000,40.9862,563.44,3.37612
194.2000,39.1677,567.17,3.39926
194.1000,34.4926,571.089,3.42344
194.0000,28.2053,571.23,3.42431
193.9000,27.7252,574.717,3.44571
193.8000,30.5825,578.519,3.46891
193.7000,20.7278,580.074,3.47836
193.6000,21.144,583.168,3.49711
193.5000,30.527,584.777,3.50682
193.4000,29.1345,587.044,3.52047
193.3000,33.8453,587.381,3.52249
193.2000,36.1161,589.305,3.53404
193.1000,27.8982,591.985,3.55006
193.0000,29.2147,594.397,3.56443
192.9000,27.3769,595.375,3.57024
192.8000,27.658,597.676,3.58388
192.7000,36.7992,601.73,3.60781
192.6000,33.4531,603.181,3.61634
192.5000,31.3794,605.483,3.62984
192.4000,16.6675,607.352,3.64077
192.3000,46.0383,611.407,3.66438
192.2000,24.7441,613.655,3.67741
192.1000,22.4782,613.701,3.67768
192.0000,34.9324,617.34,3.69869
191.9000,24.4862,617.844,3.70158
191.8000,26.4873,621.439,3.72222
191.7000,20.2263,623.12,3.73184
191.6000,14.6102,625.333,3.74446
191.5000,11.4338,627.478,3.75666
191.4000,28.9782,630.798,3.77547
191.3000,16.8788,631.451,3.77916
191.2000,22.6326,636.414,3.80711
191.1000,19.8297,638.928,3.82119
191.0000,19.1076,642.092,3.83885
190.9000,35.8358,643.16,3.84479
190.8000,23.0606,647.298,3.86774
190.7000,21.2618,651.08,3.8886
190.6000,9.4309,654.652,3.90822
190.5000,27.2343,657.352,3.92298
190.4000,23.4054,658.71,3.93039
190.3000,19.6516,662.508,3.95103
190.2000,16.1849,664.571,3.96221
190.1000,25.7961,666.245,3.97125
190.0000,14.3435,669.544,3.98901

##### Extended Information
[Comments]
Sample name,SL + BM control
Comment,Control 
User,Stacie Lally and Beth Mlinek
Division
Company,Saint Mary's College

[Detailed Information]
Creation date,9/29/2022 1:20 PM

Data array type,Linear data array * 3
Horizontal axis,Wavelength [nm]
Vertical axis(1),CD [mdeg]
Vertical axis(2),HT [V]
Vertical axis(3),Abs
Start,320 nm
End,190 nm
Data interval,0.1 nm
Data points,1301    

[Measurement Information]
Instrument name,J-1500
Model name,J-1500
Serial No.,B051061638

Detector,PM-539
Detector S/N,B051061638
  Lock-in amp.,X mode
  HT volt,Auto

Accessory,PTC-517
Accessory S/N,B026561646
  Temperature,22.52 C
  Control sensor,Holder
  Monitor sensor,Holder

Measurement date,9/29/2022 1:19 PM

CD Overload detect,969
Photometric mode,CD, HT, Abs
Measure range,320 - 190 nm
Data pitch,0.1 nm
CD scale,20 mdeg/0.05 dOD
FL scale,20 mdeg/0.05 dOD
D.I.T.,8 msec
Bandwidth,2.00 nm
Start mode,Immediately
Scanning mode,Continuous
Scanning speed,200 nm/min
Baseline correction,None
Shutter control,Auto
No. of cycle,1/1
N2 Flowmeter,Manual

Solvent,NaPO4 buffer

