TITLE,SL + BM control
DATA TYPE,
ORIGIN,JASCO
OWNER,
DATE,22/09/29
TIME,14:21:09
SPECTROMETER/DATA SYSTEM,
LOCALE,1033
RESOLUTION,
DELTAX,-0.1
XUNITS,NANOMETERS
YUNITS,CD [mdeg]
Y2UNITS,HT [V]
Y3UNITS,ABSORBANCE
FIRSTX,  320.0000
LASTX,  190.0000
NPOINTS,    1301
FIRSTY,     1.49438
MAXY,    59.83715
MINY,   -69.68285
XYDATA
320.0000,1.49438,208.167,0.1466
319.9000,1.12102,208.431,0.150377
319.8000,1.32011,208.223,0.147394
319.7000,1.6276,208.363,0.149405
319.6000,1.86742,208.392,0.14981
319.5000,2.22303,208.884,0.156853
319.4000,1.21581,208.918,0.157338
319.3000,1.72561,208.207,0.147167
319.2000,1.29612,208.895,0.156998
319.1000,1.26888,208.905,0.157144
319.0000,0.615958,208.926,0.157451
318.9000,1.4251,208.861,0.156513
318.8000,2.22349,208.049,0.144912
318.7000,1.97484,208.459,0.150782
318.6000,1.67777,208.7,0.154215
318.5000,2.27685,208.234,0.147557
318.4000,0.529104,208.779,0.155348
318.3000,2.1317,208.629,0.153212
318.2000,1.85036,208.246,0.147735
318.1000,1.82883,208.347,0.149178
318.0000,0.502618,207.826,0.141714
317.9000,1.02768,208.214,0.147265
317.8000,2.01221,208.47,0.150928
317.7000,1.49993,208.337,0.149032
317.6000,1.87238,209.02,0.158794
317.5000,-0.341482,208.84,0.156222
317.4000,0.549655,208.954,0.15784
317.3000,1.91292,207.901,0.142786
317.2000,1.27617,208.833,0.156125
317.1000,1.44929,208.302,0.148529
317.0000,2.55833,209.142,0.160523
316.9000,2.82591,208.557,0.152175
316.8000,0.684829,207.323,0.134495
316.7000,2.83719,208.572,0.152386
316.6000,0.984076,208.787,0.155462
316.5000,1.67814,208.503,0.151398
316.4000,2.42775,208.628,0.153195
316.3000,3.47116,208.609,0.15292
316.2000,2.26774,208.648,0.153471
316.1000,1.10097,208.304,0.148562
316.0000,1.56527,208.716,0.154442
315.9000,0.402467,207.826,0.141714
315.8000,0.729997,208.143,0.146259
315.7000,2.17453,208.601,0.152807
315.6000,2.31999,208.437,0.150458
315.5000,0.130337,208.367,0.149453
315.4000,2.55248,209.086,0.159731
315.3000,2.47832,209.082,0.159666
315.2000,1.2114,208.76,0.155073
315.1000,1.89899,208.818,0.155899
315.0000,1.68574,208.182,0.146811
314.9000,1.08988,208.026,0.144571
314.8000,-0.258652,207.517,0.137277
314.7000,1.18849,208.081,0.145367
314.6000,1.98552,208.277,0.148173
314.5000,1.96416,207.597,0.138431
314.4000,1.29861,208.509,0.151495
314.3000,2.42505,208.393,0.149826
314.2000,0.62472,208.482,0.151106
314.1000,2.43344,208.854,0.156416
314.0000,1.7153,208.096,0.145577
313.9000,0.853242,208.31,0.148643
313.8000,1.71387,208.197,0.147021
313.7000,3.38625,208.558,0.152192
313.6000,1.16318,208.484,0.151139
313.5000,1.55835,207.839,0.141893
313.4000,0.880863,208.104,0.145691
313.3000,1.28849,208.465,0.150863
313.2000,2.65165,207.297,0.13412
313.1000,1.44835,207.449,0.136301
313.0000,1.01132,208.011,0.14436
312.9000,2.28617,208.347,0.149178
312.8000,0.176769,207.749,0.140609
312.7000,2.34096,208.144,0.146275
312.6000,0.979244,208.146,0.146291
312.5000,2.74074,207.849,0.142039
312.4000,0.191794,207.673,0.13952
312.3000,0.706413,208.279,0.148205
312.2000,1.13154,208.038,0.14475
312.1000,1.79505,207.867,0.142299
312.0000,1.42397,208.151,0.146372
311.9000,0.294656,208.05,0.144928
311.8000,1.88223,208.088,0.145464
311.7000,2.48344,207.856,0.142136
311.6000,2.72739,207.963,0.143679
311.5000,0.129768,208.211,0.147232
311.4000,0.773373,207.69,0.139764
311.3000,-0.383204,207.993,0.144101
311.2000,2.62098,208.44,0.150507
311.1000,0.374853,207.868,0.142315
311.0000,1.04006,208.429,0.150345
310.9000,2.42187,207.839,0.141893
310.8000,0.856697,208.68,0.15394
310.7000,3.0238,207.683,0.139667
310.6000,1.15656,208.389,0.149778
310.5000,1.79678,208.132,0.146097
310.4000,0.614146,207.811,0.141503
310.3000,3.32958,207.798,0.141308
310.2000,1.01302,208.277,0.148173
310.1000,1.86443,208.364,0.149421
310.0000,1.69539,207.597,0.138431
309.9000,3.63274,208.677,0.153892
309.8000,0.0816058,207.339,0.134723
309.7000,1.00918,207.364,0.135081
309.6000,1.29887,208.397,0.149891
309.5000,-0.376781,207.263,0.133632
309.4000,0.477705,208.352,0.149243
309.3000,-0.359165,208.116,0.14587
309.2000,2.22166,207.667,0.139439
309.1000,0.857989,207.835,0.141844
309.0000,-0.22827,208.108,0.145756
308.9000,1.79158,207.721,0.140203
308.8000,2.91933,207.425,0.135959
308.7000,1.36216,208.149,0.14634
308.6000,3.25929,208.515,0.151576
308.5000,2.10279,208.228,0.147476
308.4000,2.70039,208.239,0.147622
308.3000,1.82039,207.406,0.135683
308.2000,0.847978,208.771,0.155235
308.1000,1.40454,207.629,0.138886
308.0000,-0.150833,207.227,0.133111
307.9000,0.459913,207.858,0.142168
307.8000,1.08713,208.189,0.146908
307.7000,2.32839,207.811,0.141503
307.6000,0.243315,208.285,0.148286
307.5000,1.3619,207.573,0.13809
307.4000,1.30314,207.922,0.143094
307.3000,2.81787,208.174,0.146697
307.2000,0.715052,206.809,0.127098
307.1000,0.159595,207.896,0.142721
307.0000,1.48228,209.505,0.165706
306.9000,2.06348,207.419,0.135878
306.8000,2.90077,208.161,0.146519
306.7000,-0.721993,207.581,0.138204
306.6000,1.37551,207.637,0.139
306.5000,0.804181,208.409,0.150053
306.4000,0.921986,207.346,0.13482
306.3000,0.699726,208.107,0.14574
306.2000,-0.253541,207.621,0.138773
306.1000,1.38478,208.755,0.155009
306.0000,3.14161,207.913,0.142964
305.9000,1.98384,208.018,0.144458
305.8000,1.53737,207.69,0.139764
305.7000,0.818995,207.893,0.142672
305.6000,2.53206,208.489,0.151204
305.5000,0.555264,208.2,0.14707
305.4000,1.02018,207.502,0.137066
305.3000,1.11526,208.245,0.147719
305.2000,0.940858,207.85,0.142055
305.1000,2.51045,208.056,0.14501
305.0000,1.74578,208.287,0.148319
304.9000,0.645037,207.405,0.135666
304.8000,1.06472,207.811,0.141503
304.7000,3.1746,207.596,0.138415
304.6000,1.76435,207.883,0.142526
304.5000,1.33986,208.169,0.146632
304.4000,0.118452,208.623,0.153114
304.3000,2.66125,208.703,0.154264
304.2000,2.96818,208.33,0.148935
304.1000,0.313546,207.841,0.141925
304.0000,1.74003,207.905,0.142851
303.9000,0.349499,207.192,0.132606
303.8000,1.40728,208.313,0.148692
303.7000,0.671556,208.082,0.145383
303.6000,0.925254,208.177,0.146746
303.5000,1.85107,207.369,0.135162
303.4000,-0.251567,207.119,0.131564
303.3000,1.56877,207.815,0.141551
303.2000,-0.49055,207.678,0.139586
303.1000,0.761751,207.662,0.139358
303.0000,1.29331,207.692,0.139797
302.9000,1.62211,207.862,0.142234
302.8000,2.37593,208.024,0.144555
302.7000,1.11354,207.914,0.14298
302.6000,-0.476992,208.736,0.154733
302.5000,1.35699,208.702,0.154248
302.4000,0.572905,207.76,0.140772
302.3000,1.57387,206.73,0.125973
302.2000,1.39672,207.588,0.138301
302.1000,1.40757,208.584,0.152564
302.0000,-0.489887,207.46,0.136464
301.9000,2.90587,208.132,0.146097
301.8000,0.70275,208.089,0.14548
301.7000,2.72457,207.662,0.139358
301.6000,1.34332,207.774,0.140967
301.5000,1.25658,207.831,0.141779
301.4000,2.07516,208.033,0.144685
301.3000,1.17484,207.902,0.142802
301.2000,1.21745,207.075,0.130929
301.1000,1.1834,207.449,0.136301
301.0000,1.83317,207.308,0.134283
300.9000,0.721916,206.996,0.129788
300.8000,1.49838,207.103,0.131336
300.7000,2.42436,206.915,0.128631
300.6000,2.88701,208.096,0.145577
300.5000,0.615075,205.813,0.112735
300.4000,0.758196,207.714,0.140105
300.3000,0.969488,206.913,0.128599
300.2000,1.52284,207.544,0.137667
300.1000,1.20824,206.718,0.125793
300.0000,1.39084,207.537,0.13757
299.9000,0.421131,208.373,0.149551
299.8000,2.40332,206.781,0.126707
299.7000,-0.38594,207.558,0.137862
299.6000,0.3086,206.675,0.125174
299.5000,0.687275,207.082,0.131026
299.4000,0.176606,208.696,0.154167
299.3000,-0.257426,206.834,0.127457
299.2000,-0.990176,208.266,0.14801
299.1000,-0.511473,207.95,0.143484
299.0000,2.13164,207.064,0.130766
298.9000,1.32561,208.88,0.156788
298.8000,1.86427,207.025,0.130212
298.7000,0.971957,207.837,0.141876
298.6000,-1.13857,207.364,0.135081
298.5000,3.87956,206.865,0.127914
298.4000,1.31346,207.154,0.132069
298.3000,3.06982,207.077,0.130962
298.2000,0.38012,207.848,0.142023
298.1000,0.805672,207.783,0.141097
298.0000,2.19649,207.45,0.136317
297.9000,0.978324,207.922,0.143094
297.8000,0.988432,208.514,0.15156
297.7000,1.28486,207.264,0.133649
297.6000,1.21165,206.426,0.121582
297.5000,1.37248,207.43,0.136024
297.4000,2.10508,207.306,0.134251
297.3000,1.1998,207.271,0.133746
297.2000,0.27168,207.936,0.143289
297.1000,-0.238649,207.913,0.142964
297.0000,2.83351,207.536,0.137553
296.9000,2.3544,207.658,0.139309
296.8000,-0.69415,207.628,0.13887
296.7000,0.26569,207.938,0.143322
296.6000,1.6556,208.126,0.146016
296.5000,2.2032,207.558,0.137862
296.4000,0.393693,206.98,0.12956
296.3000,0.235561,207.553,0.137797
296.2000,1.98067,207.053,0.130619
296.1000,3.12946,207.295,0.134088
296.0000,-0.962368,207.863,0.14225
295.9000,3.64375,207.196,0.132672
295.8000,2.08581,206.897,0.12837
295.7000,1.48944,207.544,0.137667
295.6000,0.882364,207.667,0.139439
295.5000,1.40258,207.367,0.13513
295.4000,1.82431,207.03,0.130277
295.3000,0.87984,207.917,0.143013
295.2000,2.028,207.104,0.131352
295.1000,2.56686,207.239,0.13329
295.0000,1.07292,206.594,0.124015
294.9000,1.57067,207.084,0.131059
294.8000,1.06395,207.017,0.130098
294.7000,0.755577,207.57,0.138041
294.6000,2.04937,207.11,0.131434
294.5000,-0.356051,207.508,0.137147
294.4000,1.05964,208.109,0.145772
294.3000,0.0991507,207.258,0.133567
294.2000,0.574147,206.037,0.115975
294.1000,1.11329,206.716,0.125761
294.0000,0.669184,207.122,0.131613
293.9000,0.232366,207.153,0.132053
293.8000,1.02969,206.732,0.125989
293.7000,1.88159,206.668,0.125075
293.6000,1.09736,206.971,0.12943
293.5000,0.564924,207.243,0.133339
293.4000,3.17531,207.782,0.14108
293.3000,-0.521532,207.519,0.137309
293.2000,-0.198356,207.935,0.143273
293.1000,1.78957,208.098,0.14561
293.0000,1.77987,206.843,0.127587
292.9000,1.35791,206.676,0.12519
292.8000,1.09012,208.278,0.148189
292.7000,0.600766,206.542,0.123264
292.6000,1.2709,207.108,0.131401
292.5000,1.63884,207.363,0.135064
292.4000,0.888394,206.919,0.12868
292.3000,1.98862,207.409,0.135731
292.2000,0.393703,207.156,0.132102
292.1000,1.03106,207.014,0.130049
292.0000,0.650539,207.071,0.13088
291.9000,2.37649,206.681,0.125255
291.8000,-0.00613495,207.757,0.140723
291.7000,2.23887,207.158,0.132118
291.6000,0.325001,206.815,0.127196
291.5000,0.825579,206.666,0.125043
291.4000,1.26606,207.294,0.134072
291.3000,-0.68005,207.147,0.131971
291.2000,-0.270171,207.028,0.130261
291.1000,0.900775,206.638,0.124635
291.0000,1.48259,206.942,0.129022
290.9000,2.82803,206.985,0.129641
290.8000,-0.333914,207.266,0.133681
290.7000,1.44211,206.625,0.124455
290.6000,1.55417,207.111,0.13145
290.5000,1.25495,207.925,0.143127
290.4000,0.647728,207.132,0.131743
290.3000,1.94373,206.532,0.123117
290.2000,0.793853,207.774,0.140967
290.1000,0.534673,207.274,0.133795
290.0000,0.359137,206.997,0.129804
289.9000,0.242382,206.601,0.124113
289.8000,0.789235,207.385,0.13539
289.7000,0.646267,207.938,0.143322
289.6000,1.56871,207.397,0.135553
289.5000,2.00614,207.553,0.137797
289.4000,0.216887,207.039,0.130408
289.3000,1.16609,206.897,0.12837
289.2000,0.940475,207.309,0.1343
289.1000,1.85507,207.846,0.142006
289.0000,0.415453,207.579,0.138171
288.9000,1.41432,207.592,0.13835
288.8000,1.03385,207.008,0.129967
288.7000,0.536153,207.612,0.138643
288.6000,1.64658,207.647,0.139147
288.5000,0.283892,207.827,0.14173
288.4000,2.05185,208.161,0.146519
288.3000,0.0333286,207.694,0.139813
288.2000,-0.30606,207.875,0.142412
288.1000,-0.812438,206.788,0.126805
288.0000,1.54012,207.454,0.136382
287.9000,1.6951,208.309,0.148627
287.8000,-0.0199985,206.923,0.128745
287.7000,0.0751573,207.356,0.134967
287.6000,2.41679,207.733,0.140382
287.5000,1.6977,207.491,0.136903
287.4000,0.587683,207.513,0.137228
287.3000,1.07102,207.842,0.141941
287.2000,0.257945,207.772,0.140934
287.1000,2.03219,207.399,0.135585
287.0000,-0.700185,207.203,0.132769
286.9000,-0.86274,207.62,0.138756
286.8000,1.80297,208.012,0.144377
286.7000,-0.0883957,207.073,0.130896
286.6000,-0.101343,207.696,0.139846
286.5000,1.44163,208.666,0.15373
286.4000,1.54231,207.313,0.134348
286.3000,2.26547,208.177,0.146746
286.2000,1.29964,207.703,0.139943
286.1000,0.915022,207.609,0.138594
286.0000,-1.3334,208.42,0.150215
285.9000,0.469539,207.91,0.142916
285.8000,0.382506,207.056,0.130652
285.7000,0.436958,207.525,0.137391
285.6000,1.73034,207.96,0.14363
285.5000,1.7156,207.437,0.136138
285.4000,-1.07666,207.269,0.133713
285.3000,0.222054,207.334,0.134658
285.2000,-0.389024,207.935,0.143273
285.1000,0.457292,207.836,0.14186
285.0000,1.89477,208.208,0.147183
284.9000,2.21151,207.477,0.136708
284.8000,0.229952,207.873,0.14238
284.7000,-0.188736,208.079,0.145334
284.6000,1.25244,207.424,0.135943
284.5000,1.88219,207.465,0.136529
284.4000,1.77278,207.673,0.13952
284.3000,1.26425,208.327,0.148886
284.2000,0.6109,207.978,0.14389
284.1000,0.913671,207.662,0.139358
284.0000,1.16497,207.836,0.14186
283.9000,1.79422,207.825,0.141698
283.8000,1.16169,207.798,0.141308
283.7000,2.3759,208.057,0.145026
283.6000,0.809029,208.353,0.149259
283.5000,1.8849,208.082,0.145383
283.4000,0.931372,207.58,0.138187
283.3000,1.92648,208.337,0.149032
283.2000,0.348615,208.717,0.154458
283.1000,0.887669,208.133,0.146113
283.0000,0.465053,207.834,0.141827
282.9000,0.842145,207.013,0.130033
282.8000,0.961466,208.263,0.147978
282.7000,-0.475219,207.141,0.131874
282.6000,1.6445,208.473,0.150977
282.5000,2.70779,208.164,0.146551
282.4000,1.11204,207.948,0.143468
282.3000,0.939798,207.886,0.142574
282.2000,1.59151,208.18,0.146778
282.1000,0.322274,207.982,0.143955
282.0000,0.760583,209.077,0.159602
281.9000,1.13859,207.863,0.14225
281.8000,2.54192,207.381,0.135325
281.7000,-0.384593,208.49,0.15122
281.6000,1.69543,207.87,0.142347
281.5000,1.56309,208.106,0.145724
281.4000,0.933985,207.44,0.136171
281.3000,-0.945646,208.689,0.15407
281.2000,0.509111,208.339,0.149064
281.1000,1.25454,208.08,0.145351
281.0000,1.20001,207.419,0.135878
280.9000,0.43449,207.856,0.142136
280.8000,0.993314,207.691,0.13978
280.7000,1.96284,207.329,0.134576
280.6000,1.38101,207.961,0.143646
280.5000,1.80885,208.371,0.149518
280.4000,1.44546,207.979,0.143906
280.3000,1.17856,208.18,0.146778
280.2000,-1.27484,208.518,0.151625
280.1000,0.93901,207.53,0.137472
280.0000,-0.431291,207.935,0.143273
279.9000,1.93367,208.18,0.146778
279.8000,1.24306,208.115,0.145853
279.7000,0.786076,207.955,0.143565
279.6000,2.03594,208.069,0.145188
279.5000,0.0310906,208.722,0.154539
279.4000,0.179322,207.384,0.135374
279.3000,-0.177118,208.421,0.150231
279.2000,0.285774,207.802,0.141373
279.1000,1.27064,208.313,0.148692
279.0000,0.401349,208.057,0.145026
278.9000,1.51268,207.354,0.134934
278.8000,0.97242,208.567,0.152321
278.7000,0.629988,208.35,0.14921
278.6000,2.59254,208.212,0.147248
278.5000,1.27245,207.717,0.140154
278.4000,1.4864,209.04,0.159068
278.3000,1.11824,208.367,0.149453
278.2000,1.94468,207.944,0.143403
278.1000,1.04479,208.767,0.15517
278.0000,2.93111,207.467,0.136561
277.9000,-0.622554,208.304,0.148562
277.8000,-1.76382,208.799,0.15564
277.7000,0.680287,208.833,0.156125
277.6000,-0.227962,208.387,0.149745
277.5000,1.80931,208.488,0.151187
277.4000,1.16724,207.541,0.137618
277.3000,0.494636,208.336,0.149016
277.2000,1.52582,208.05,0.144928
277.1000,1.1899,209.488,0.165464
277.0000,0.428264,208.791,0.155526
276.9000,0.801745,208.729,0.154636
276.8000,0.94087,208.043,0.144815
276.7000,-0.0359037,208.185,0.146859
276.6000,1.42931,208.513,0.151544
276.5000,0.29555,208.346,0.149162
276.4000,1.53994,208.75,0.154928
276.3000,-0.16404,207.833,0.141811
276.2000,0.193995,208.083,0.145399
276.1000,0.634275,207.724,0.140252
276.0000,1.10564,207.797,0.141292
275.9000,0.997463,207.999,0.144198
275.8000,1.36425,209.186,0.161153
275.7000,-0.325624,208.245,0.147719
275.6000,0.665739,208.345,0.149145
275.5000,0.00152164,209.014,0.158696
275.4000,1.93414,207.201,0.132737
275.3000,1.37357,208.35,0.14921
275.2000,1.24522,208.811,0.155802
275.1000,0.503358,207.598,0.138448
275.0000,1.7122,208.743,0.154831
274.9000,1.07332,208.666,0.15373
274.8000,1.14218,209.268,0.162332
274.7000,0.20721,208.028,0.144604
274.6000,2.05355,208.299,0.148481
274.5000,1.36054,208.205,0.147135
274.4000,1.60546,208.55,0.152078
274.3000,2.30654,208.569,0.152354
274.2000,-0.258917,207.683,0.139667
274.1000,-0.24526,207.926,0.143143
274.0000,-0.695697,208.497,0.151317
273.9000,1.1583,207.839,0.141893
273.8000,-0.801865,207.686,0.139699
273.7000,1.89275,208.917,0.157322
273.6000,1.8843,208.449,0.150636
273.5000,0.270025,207.924,0.14311
273.4000,2.18213,208.47,0.150928
273.3000,0.480251,208.18,0.146778
273.2000,1.07987,208.29,0.148351
273.1000,-1.17189,208.513,0.151544
273.0000,1.38244,208.265,0.147994
272.9000,1.08109,207.88,0.142493
272.8000,0.407991,208.455,0.150717
272.7000,0.664424,208.784,0.155413
272.6000,-0.835362,208.453,0.150685
272.5000,0.953788,208.33,0.148935
272.4000,-0.045659,208.488,0.151187
272.3000,1.51518,208.726,0.154588
272.2000,0.428562,207.921,0.143078
272.1000,0.102883,208.491,0.151236
272.0000,0.885019,208.105,0.145707
271.9000,0.177185,209.304,0.162833
271.8000,0.605132,208.998,0.15847
271.7000,-0.48437,208.062,0.145091
271.6000,-0.388466,208.026,0.144571
271.5000,0.851366,208.642,0.15339
271.4000,0.495764,208.517,0.151609
271.3000,2.02545,208.469,0.150912
271.2000,0.00902065,208.055,0.144993
271.1000,-0.300563,208.146,0.146291
271.0000,1.1724,208.26,0.147929
270.9000,0.70076,208.258,0.147897
270.8000,0.399309,208.591,0.152661
270.7000,1.61192,208.533,0.151835
270.6000,1.93802,208.32,0.148789
270.5000,1.14744,208.518,0.151625
270.4000,-0.752735,208.384,0.149696
270.3000,-0.0405877,208.699,0.154199
270.2000,0.886779,208.649,0.153487
270.1000,0.129445,208.854,0.156416
270.0000,-0.808924,208.742,0.154814
269.9000,0.551958,208.958,0.157904
269.8000,-0.854767,208.981,0.158228
269.7000,0.787295,208.589,0.152629
269.6000,-0.607448,208.82,0.155931
269.5000,0.2471,208.59,0.152645
269.4000,-0.250056,208.958,0.157904
269.3000,1.07818,208.622,0.153098
269.2000,-0.852391,209.095,0.15986
269.1000,0.034734,208.467,0.150896
269.0000,-0.454099,208.723,0.154555
268.9000,0.914491,208.591,0.152661
268.8000,0.460901,208.821,0.155947
268.7000,0.485662,208.892,0.156966
268.6000,0.92972,208.81,0.155785
268.5000,1.27119,208.952,0.157824
268.4000,0.149963,208.563,0.152256
268.3000,0.818481,209.334,0.163269
268.2000,0.343181,209.324,0.163123
268.1000,-0.0989406,208.563,0.152256
268.0000,-0.0339821,208.939,0.157629
267.9000,-0.328721,208.974,0.15813
267.8000,1.04753,209.802,0.169931
267.7000,0.120494,208.903,0.157112
267.6000,0.0723939,208.336,0.149016
267.5000,-0.737567,209.289,0.162623
267.4000,1.4247,210.021,0.17304
267.3000,1.95663,209.042,0.159101
267.2000,0.228505,208.38,0.149648
267.1000,-0.392032,208.914,0.157274
267.0000,-0.416917,209.128,0.160329
266.9000,0.979691,209.646,0.167706
266.8000,-0.558499,208.852,0.156384
266.7000,-0.0701864,208.631,0.153228
266.6000,-0.112066,208.761,0.15509
266.5000,0.343003,209.016,0.158729
266.4000,1.14085,209.241,0.161945
266.3000,2.02199,209.846,0.17056
266.2000,1.53794,208.696,0.154167
266.1000,0.448352,209.315,0.162994
266.0000,0.467176,209.088,0.159763
265.9000,1.60463,209.858,0.170721
265.8000,0.0675784,209.339,0.163333
265.7000,1.58862,209.043,0.159117
265.6000,0.69119,209.646,0.167706
265.5000,2.10848,208.944,0.15771
265.4000,0.307367,209.962,0.172203
265.3000,0.348947,209.559,0.166465
265.2000,0.723516,210.042,0.173346
265.1000,1.54634,210.232,0.176034
265.0000,-1.09188,209.358,0.163608
264.9000,0.976263,209.953,0.172074
264.8000,1.64638,209.857,0.170705
264.7000,0.134236,209.756,0.16927
264.6000,1.38675,209.637,0.167577
264.5000,0.677589,209.542,0.166223
264.4000,0.827797,210.286,0.176807
264.3000,1.79421,210.01,0.172879
264.2000,1.4275,209.692,0.168367
264.1000,-0.82482,208.965,0.158001
264.0000,1.57401,210.049,0.173443
263.9000,-0.466296,209.827,0.170286
263.8000,-0.57711,209.245,0.161993
263.7000,-0.757675,209.69,0.168335
263.6000,-0.300225,209.488,0.165464
263.5000,0.319556,210.553,0.180601
263.4000,0.903492,209.641,0.167642
263.3000,-2.15916,210.528,0.180248
263.2000,1.01354,210.45,0.179138
263.1000,-0.365131,209.548,0.166319
263.0000,2.41775,209.877,0.170995
262.9000,2.22395,210.485,0.179637
262.8000,-0.587292,209.395,0.164141
262.7000,0.0593765,210.532,0.180296
262.6000,0.134762,210.204,0.175648
262.5000,0.870925,209.587,0.166868
262.4000,1.63178,210.144,0.174795
262.3000,0.455024,210.227,0.17597
262.2000,0.113355,211.182,0.189509
262.1000,-0.533316,210.321,0.177305
262.0000,0.806088,210.456,0.179219
261.9000,-0.643864,210.234,0.176067
261.8000,1.7101,210.251,0.176308
261.7000,1.20506,209.721,0.168771
261.6000,-0.0980704,209.97,0.172316
261.5000,1.33068,209.848,0.170576
261.4000,0.467117,209.834,0.170382
261.3000,0.13039,210.522,0.180151
261.2000,1.38273,210.577,0.180938
261.1000,-0.124926,210.832,0.184552
261.0000,-1.04198,210.812,0.184263
260.9000,0.499426,211.155,0.189124
260.8000,1.38639,210.738,0.183219
260.7000,-0.398305,210.294,0.176919
260.6000,1.19004,210.535,0.180344
260.5000,-0.207304,210.097,0.174119
260.4000,-0.437398,210.874,0.185146
260.3000,0.813051,210.091,0.174039
260.2000,0.49153,210.523,0.180167
260.1000,-0.509403,210.447,0.17909
260.0000,0.563731,210.605,0.18134
259.9000,1.03289,210.488,0.179669
259.8000,-1.32504,210.592,0.181147
259.7000,1.91132,210.88,0.185226
259.6000,0.71192,210.441,0.17901
259.5000,0.672886,209.821,0.170205
259.4000,1.33387,211.293,0.191079
259.3000,1.56545,210.996,0.186879
259.2000,0.45714,210.887,0.185322
259.1000,2.12156,211.618,0.195675
259.0000,1.74102,210.909,0.185643
258.9000,0.630863,210.498,0.179813
258.8000,0.981344,211.243,0.190374
258.7000,-0.0113482,211.175,0.189412
258.6000,0.65161,211.393,0.192489
258.5000,-0.174307,210.998,0.186895
258.4000,-0.730894,211.178,0.189444
258.3000,0.431892,211.236,0.190262
258.2000,0.295123,211.197,0.189717
258.1000,0.541408,211.879,0.199354
258.0000,2.26661,211.921,0.199945
257.9000,-1.31859,211.536,0.194507
257.8000,1.38714,211.393,0.192489
257.7000,-0.054061,211.388,0.192425
257.6000,2.64825,211.469,0.193562
257.5000,-1.57253,210.749,0.18338
257.4000,0.218113,211.53,0.194427
257.3000,0.0585108,211.503,0.194042
257.2000,0.0233931,211.997,0.201016
257.1000,1.8652,211.078,0.188034
257.0000,0.909213,211.485,0.193786
256.9000,-0.831282,211.229,0.190166
256.8000,2.30619,211.316,0.1914
256.7000,-1.44685,211.497,0.193962
256.6000,0.170192,211.674,0.196459
256.5000,0.729282,211.747,0.197483
256.4000,-1.24346,211.99,0.20092
256.3000,0.297633,211.941,0.200233
256.2000,2.29192,211.931,0.200089
256.1000,-0.609028,211.896,0.199594
256.0000,-0.938457,211.899,0.199642
255.9000,-0.787981,212.224,0.204211
255.8000,1.12775,211.89,0.199514
255.7000,0.788753,211.798,0.198203
255.6000,-0.829499,212.17,0.20346
255.5000,1.28196,212.483,0.207865
255.4000,-0.627243,212.536,0.208614
255.3000,0.208777,211.96,0.200489
255.2000,0.967518,211.864,0.199146
255.1000,0.442365,211.88,0.19937
255.0000,1.05144,211.795,0.198171
254.9000,0.192931,212.656,0.210304
254.8000,0.443763,212.202,0.203907
254.7000,1.18942,211.971,0.200648
254.6000,-1.99894,211.93,0.200073
254.5000,0.540668,212.455,0.207466
254.4000,1.08635,211.939,0.200201
254.3000,-1.07027,212.703,0.210958
254.2000,0.60658,212.535,0.208598
254.1000,-0.412724,212.533,0.208567
254.0000,0.751082,212.52,0.208391
253.9000,-0.916076,212.534,0.208583
253.8000,-0.0243194,212.448,0.20737
253.7000,0.783037,212.136,0.202981
253.6000,0.360708,213.403,0.220793
253.5000,-0.00590693,213.063,0.216022
253.4000,-0.416447,212.608,0.209619
253.3000,1.40517,213.144,0.217151
253.2000,-0.986416,212.371,0.206286
253.1000,0.104487,212.852,0.213061
253.0000,1.45375,212.85,0.213029
252.9000,-0.142346,212.618,0.209762
252.8000,-0.922919,212.899,0.213713
252.7000,0.226941,213.23,0.21836
252.6000,-0.11015,212.78,0.212041
252.5000,1.16785,212.531,0.208535
252.4000,0.46571,213.71,0.225097
252.3000,0.872736,212.397,0.206653
252.2000,0.794598,213.429,0.221158
252.1000,0.220966,213.191,0.21782
252.0000,1.6062,213.482,0.221905
251.9000,0.408688,213.431,0.22119
251.8000,0.338712,213.465,0.221667
251.7000,2.02166,213.013,0.215321
251.6000,-1.11541,213.186,0.21774
251.5000,-0.848923,213.414,0.220952
251.4000,-0.0597213,213.392,0.220634
251.3000,0.943154,213.282,0.219092
251.2000,-0.257732,213.379,0.220459
251.1000,0.00510618,213.544,0.222763
251.0000,0.504365,213.328,0.219744
250.9000,0.238737,213.914,0.227953
250.8000,0.125813,213.219,0.218217
250.7000,0.0165607,213.483,0.221921
250.6000,1.34098,213.6,0.223557
250.5000,-1.98599,213.937,0.22827
250.4000,-0.455542,214.225,0.232297
250.3000,-0.361976,214.004,0.229206
250.2000,0.832221,214.205,0.232027
250.1000,-0.22498,214.407,0.234846
250.0000,0.10311,213.939,0.228302
249.9000,1.41673,214.685,0.238723
249.8000,2.36745,214.086,0.230363
249.7000,1.66766,213.98,0.228873
249.6000,-0.884607,214.108,0.230665
249.5000,0.834277,214.081,0.230284
249.4000,-1.02212,213.972,0.228762
249.3000,1.2895,213.775,0.226002
249.2000,0.438131,213.767,0.225891
249.1000,0.246463,213.444,0.221365
249.0000,1.81635,214.118,0.230807
248.9000,1.23846,214.672,0.238549
248.8000,-1.90873,213.8,0.226351
248.7000,-0.62813,214.191,0.231821
248.6000,-0.621539,213.963,0.228635
248.5000,-0.588655,214.303,0.23339
248.4000,1.51125,214.575,0.237189
248.3000,1.21877,213.831,0.226795
248.2000,-0.71798,213.962,0.228619
248.1000,-1.88871,214.802,0.240367
248.0000,-2.05565,214.238,0.232487
247.9000,-2.52692,214.242,0.232534
247.8000,-0.0620166,213.276,0.219012
247.7000,-0.955144,214.145,0.231187
247.6000,-0.309324,214.419,0.235021
247.5000,-0.540976,215.843,0.25485
247.4000,0.0247068,214.372,0.234356
247.3000,0.564804,214.828,0.240731
247.2000,-1.29799,214.679,0.238644
247.1000,-2.87947,214.084,0.230332
247.0000,-1.12585,215.036,0.243622
246.9000,-1.78866,214.912,0.241901
246.8000,0.194212,214.85,0.241031
246.7000,-1.77467,214.075,0.230205
246.6000,-1.21967,215.155,0.24528
246.5000,0.383893,214.979,0.242832
246.4000,-0.870842,214.405,0.234815
246.3000,-2.15042,215.048,0.243796
246.2000,-1.3256,215.26,0.246748
246.1000,-1.41377,215.151,0.245233
246.0000,-0.843777,215.117,0.244759
245.9000,0.343693,215.136,0.245012
245.8000,-0.755922,216.652,0.266074
245.7000,-1.37862,215.479,0.249792
245.6000,-1.35089,215.696,0.252818
245.5000,-2.67944,216.633,0.265823
245.4000,-2.1286,216.001,0.257053
245.3000,-1.9215,215.94,0.256204
245.2000,-1.09884,216.36,0.262038
245.1000,-2.82865,215.515,0.250297
245.0000,-1.41169,216.351,0.261912
244.9000,-1.85656,215.882,0.255401
244.8000,-1.94639,215.508,0.250202
244.7000,-1.79491,216.479,0.263687
244.6000,-2.97329,216.72,0.267016
244.5000,-0.28544,215.53,0.250502
244.4000,-1.30962,216.633,0.265823
244.3000,-2.33198,216.453,0.263326
244.2000,-2.9907,216.959,0.270325
244.1000,-2.09184,216.471,0.263578
244.0000,-0.699558,215.614,0.251668
243.9000,-0.742945,216.768,0.26769
243.8000,-2.04481,216.626,0.265713
243.7000,-2.87265,216.125,0.258768
243.6000,-2.19189,216.933,0.269965
243.5000,-4.04423,217.335,0.275527
243.4000,-4.30344,216.626,0.265713
243.3000,-3.76257,217.219,0.27393
243.2000,-4.63748,217.201,0.273679
243.1000,-3.8376,216.102,0.258454
243.0000,-2.9098,217.21,0.273804
242.9000,-3.96931,217.701,0.28058
242.8000,-3.00381,216.935,0.269996
242.7000,-3.85905,217.055,0.271658
242.6000,-3.24993,216.82,0.268412
242.5000,-2.49171,217.371,0.276028
242.4000,-2.60538,217.088,0.272112
242.3000,-4.05462,217.599,0.279173
242.2000,-4.76942,217.991,0.28458
242.1000,-5.42589,217.915,0.283534
242.0000,-4.62128,218.01,0.284845
241.9000,-6.26196,218.266,0.288373
241.8000,-4.67488,217.981,0.284439
241.7000,-4.64526,217.968,0.284268
241.6000,-5.82547,217.762,0.281424
241.5000,-5.13011,218.467,0.291133
241.4000,-5.0604,218.306,0.288919
241.3000,-5.0814,218.385,0.290011
241.2000,-5.03375,218.656,0.293735
241.1000,-6.27179,218.522,0.291897
241.0000,-6.07003,218.604,0.293019
240.9000,-8.94324,219.23,0.301625
240.8000,-6.6994,219.642,0.307263
240.7000,-6.5325,220.044,0.312768
240.6000,-5.66431,219.76,0.308876
240.5000,-6.57356,220.16,0.314349
240.4000,-8.56621,219.394,0.303863
240.3000,-6.94395,219.038,0.298981
240.2000,-7.24465,219.999,0.312148
240.1000,-7.23252,219.885,0.310598
240.0000,-6.9712,219.969,0.311745
239.9000,-7.4516,219.872,0.310412
239.8000,-8.01816,221.05,0.326503
239.7000,-9.24488,220.547,0.319642
239.6000,-9.52194,220.064,0.313047
239.5000,-7.35328,220.153,0.314256
239.4000,-8.80174,221.358,0.3307
239.3000,-7.35613,221.189,0.328402
239.2000,-6.51876,221.637,0.334492
239.1000,-8.34665,221.308,0.330022
239.0000,-10.5471,221.056,0.32658
238.9000,-9.12462,221.637,0.334492
238.8000,-10.4697,222.071,0.340387
238.7000,-10.3261,221.604,0.334045
238.6000,-11.0983,222.116,0.341002
238.5000,-12.3232,222.151,0.341479
238.4000,-11.1881,222.926,0.35198
238.3000,-9.80331,221.834,0.337171
238.2000,-9.77435,223.056,0.353728
238.1000,-11.9895,223.388,0.358215
238.0000,-15.3045,223.35,0.35771
237.9000,-12.6885,222.939,0.352149
237.8000,-12.1741,223.504,0.359791
237.7000,-12.8979,223.03,0.353375
237.6000,-12.5923,222.964,0.352486
237.5000,-12.9525,224.222,0.369462
237.4000,-14.0299,223.946,0.365752
237.3000,-12.9565,224.019,0.36673
237.2000,-15.8514,224.581,0.374295
237.1000,-14.3288,224.641,0.375103
237.0000,-12.3332,225.13,0.381678
236.9000,-13.8654,225.426,0.385645
236.8000,-15.3544,225.269,0.383533
236.7000,-13.6024,224.55,0.373884
236.6000,-13.9879,224.712,0.376063
236.5000,-18.1149,226.193,0.395915
236.4000,-15.4953,225.111,0.38142
236.3000,-17.1511,226.591,0.401228
236.2000,-17.4776,224.386,0.371674
236.1000,-18.4795,225.164,0.382135
236.0000,-16.5952,226.035,0.393794
235.9000,-16.9265,226.888,0.405189
235.8000,-17.6064,226.573,0.400986
235.7000,-18.1218,226.088,0.394506
235.6000,-20.6646,226.686,0.402499
235.5000,-20.1986,226.798,0.403995
235.4000,-19.4379,227.339,0.411198
235.3000,-20.2452,227.148,0.408663
235.2000,-21.0654,227.943,0.41923
235.1000,-21.9376,227.894,0.418582
235.0000,-22.4897,227.17,0.40895
234.9000,-21.994,228.51,0.426763
234.8000,-22.9478,228.242,0.423201
234.7000,-19.8908,228.983,0.433022
234.6000,-22.3555,228.583,0.427725
234.5000,-22.7392,228.509,0.426748
234.4000,-23.884,229.137,0.43506
234.3000,-24.318,229.533,0.440302
234.2000,-22.965,229.99,0.446329
234.1000,-25.3361,229.962,0.445955
234.0000,-22.437,230.268,0.449988
233.9000,-24.0849,230.219,0.449346
233.8000,-27.666,230.542,0.453598
233.7000,-25.2709,230.711,0.455819
233.6000,-24.4123,230.422,0.452017
233.5000,-27.0634,231.225,0.462579
233.4000,-26.6407,230.907,0.458397
233.3000,-28.7736,231.851,0.470781
233.2000,-29.8005,232.49,0.479143
233.1000,-28.6839,231.368,0.464453
233.0000,-27.4809,232.145,0.474638
232.9000,-30.04,232.622,0.480875
232.8000,-28.642,232.405,0.478032
232.7000,-29.7796,232.694,0.481808
232.6000,-31.3285,233.424,0.49134
232.5000,-29.3027,233.056,0.48654
232.4000,-31.25,233.79,0.496104
232.3000,-31.9042,233.411,0.491163
232.2000,-31.6737,234.393,0.503938
232.1000,-31.2388,233.98,0.498565
232.0000,-33.5701,234.265,0.502276
231.9000,-34.3138,235.528,0.518647
231.8000,-33.9099,235.046,0.512401
231.7000,-34.3541,235.868,0.52304
231.6000,-33.1626,235.558,0.519028
231.5000,-34.4446,236.429,0.530276
231.4000,-35.3493,236.634,0.532919
231.3000,-37.7912,236.296,0.528553
231.2000,-40.1609,236.57,0.532087
231.1000,-38.4477,236.238,0.527807
231.0000,-37.0467,236.226,0.527661
230.9000,-37.3653,237.316,0.541694
230.8000,-37.939,237.254,0.540893
230.7000,-38.3004,237.126,0.539247
230.6000,-36.4146,236.682,0.533532
230.5000,-39.9456,237.486,0.543877
230.4000,-42.5169,237.812,0.548051
230.3000,-41.6174,237.672,0.546263
230.2000,-39.1214,238.386,0.555413
230.1000,-40.6078,238.002,0.550492
230.0000,-39.3739,238.133,0.552176
229.9000,-42.7856,237.921,0.549461
229.8000,-43.2144,238.811,0.560848
229.7000,-41.5417,238.004,0.550521
229.6000,-41.4882,238.902,0.562007
229.5000,-43.7326,239.946,0.575333
229.4000,-44.4165,239.537,0.570121
229.3000,-46.7087,240.252,0.579226
229.2000,-43.0005,240.832,0.586598
229.1000,-46.4667,240.409,0.581214
229.0000,-42.8838,241.124,0.590292
228.9000,-44.649,241.878,0.59985
228.8000,-46.5509,241.145,0.590566
228.7000,-47.208,241.151,0.590637
228.6000,-47.0545,241.16,0.590752
228.5000,-47.571,242.428,0.606794
228.4000,-46.2857,242.413,0.606609
228.3000,-50.1989,242.2,0.603918
228.2000,-46.3083,242.631,0.609354
228.1000,-48.2432,243.091,0.615153
228.0000,-49.0766,243.953,0.625999
227.9000,-47.4246,243.193,0.616438
227.8000,-50.6624,244.696,0.635323
227.7000,-49.329,243.96,0.626085
227.6000,-50.5081,244.855,0.63731
227.5000,-50.2016,244.932,0.638274
227.4000,-47.5296,244.646,0.634699
227.3000,-54.0151,245.554,0.646053
227.2000,-51.9443,245.524,0.645685
227.1000,-50.9594,246.064,0.652417
227.0000,-52.5278,246.103,0.652912
226.9000,-52.263,246.14,0.653364
226.8000,-52.9892,246.9,0.662831
226.7000,-54.5772,246.463,0.657388
226.6000,-55.7138,246.694,0.660265
226.5000,-56.6094,247.117,0.665535
226.4000,-54.4736,247.528,0.670629
226.3000,-54.8154,247.565,0.671093
226.2000,-53.4773,247.764,0.673566
226.1000,-54.0256,247.658,0.672245
226.0000,-54.79,248.654,0.684579
225.9000,-55.1504,248.698,0.685125
225.8000,-54.0818,248.575,0.683598
225.7000,-56.0828,249.052,0.689493
225.6000,-58.8789,249.086,0.689912
225.5000,-52.657,249.628,0.696606
225.4000,-57.3722,249.89,0.69983
225.3000,-58.874,249.54,0.695517
225.2000,-55.9947,250.365,0.705671
225.1000,-56.691,250.365,0.705671
225.0000,-59.0905,250.574,0.708247
224.9000,-54.7922,250.338,0.705337
224.8000,-57.1624,251.039,0.713949
224.7000,-61.6317,251.515,0.719782
224.6000,-60.4324,251.785,0.723083
224.5000,-59.8954,251.693,0.72196
224.4000,-60.7384,252.688,0.734116
224.3000,-58.2431,252.33,0.729745
224.2000,-59.4579,252.632,0.733439
224.1000,-57.0482,253.177,0.740082
224.0000,-59.6676,252.656,0.733729
223.9000,-60.1472,252.922,0.736976
223.8000,-62.9004,253.508,0.74411
223.7000,-59.6259,254.173,0.752193
223.6000,-59.254,254.351,0.754352
223.5000,-61.6638,254.198,0.752496
223.4000,-59.2885,255.463,0.767814
223.3000,-60.2308,255.043,0.762743
223.2000,-61.6908,255.374,0.766746
223.1000,-64.1397,255.098,0.763401
223.0000,-61.0276,256.082,0.7753
222.9000,-61.9028,256.58,0.781296
222.8000,-61.4867,256.333,0.77832
222.7000,-63.4728,256.854,0.784598
222.6000,-62.4569,257.366,0.790756
222.5000,-61.4669,256.766,0.783534
222.4000,-61.2993,257.09,0.787433
222.3000,-58.8131,257.379,0.790906
222.2000,-61.5431,258.367,0.802758
222.1000,-60.3099,258.56,0.805078
222.0000,-63.6383,257.925,0.797462
221.9000,-63.2435,258.627,0.805878
221.8000,-64.0483,258.675,0.806448
221.7000,-57.9073,258.833,0.808345
221.6000,-61.7947,259.097,0.811501
221.5000,-61.9281,259.46,0.815831
221.4000,-63.3341,260.019,0.822492
221.3000,-64.7215,259.63,0.817859
221.2000,-60.0593,260.364,0.826606
221.1000,-60.6919,260.301,0.825851
221.0000,-61.6783,260.941,0.833463
220.9000,-60.6316,261.286,0.837566
220.8000,-60.7513,260.532,0.828602
220.7000,-58.6902,261.553,0.840724
220.6000,-62.9589,261.987,0.845866
220.5000,-61.5077,262.1,0.847207
220.4000,-62.4363,262.948,0.857224
220.3000,-62.2118,263.676,0.865814
220.2000,-57.4156,263.297,0.861341
220.1000,-62.2313,263.466,0.863344
220.0000,-64.6152,263.861,0.867988
219.9000,-59.2488,264.595,0.876619
219.8000,-62.5234,264.012,0.869761
219.7000,-61.4484,264.801,0.87904
219.6000,-59.9463,264.959,0.880888
219.5000,-60.1995,264.535,0.875914
219.4000,-63.2696,265.581,0.888177
219.3000,-62.8453,265.804,0.890789
219.2000,-63.0801,265.56,0.887938
219.1000,-64.3689,266.005,0.893134
219.0000,-62.2097,266.114,0.894419
218.9000,-59.1226,267.279,0.908007
218.8000,-64.1037,267.412,0.90955
218.7000,-61.0861,267.37,0.909062
218.6000,-61.6868,267.71,0.913017
218.5000,-60.9405,267.472,0.910249
218.4000,-63.0202,267.472,0.910249
218.3000,-60.0737,267.947,0.91577
218.2000,-57.8129,268.587,0.923202
218.1000,-61.5413,268.77,0.92533
218.0000,-62.1405,269.024,0.92827
217.9000,-61.5667,269.801,0.937262
217.8000,-61.9977,269.962,0.939121
217.7000,-66.2515,270.962,0.950644
217.6000,-61.5887,270.32,0.943253
217.5000,-61.3973,271.422,0.955936
217.4000,-60.8318,271.617,0.958176
217.3000,-60.8218,272.124,0.964004
217.2000,-60.9871,271.835,0.960688
217.1000,-59.5886,272.65,0.97003
217.0000,-62.1535,272.83,0.972093
216.9000,-65.7123,274.019,0.985675
216.8000,-60.1955,273.249,0.976889
216.7000,-57.3229,273.747,0.982572
216.6000,-56.0199,274.041,0.985933
216.5000,-58.4058,273.951,0.984899
216.4000,-59.4951,274.498,0.991137
216.3000,-57.5318,274.737,0.993859
216.2000,-63.1778,274.897,0.995677
216.1000,-58.1652,274.696,0.993395
216.0000,-64.6128,275.638,1.0041
215.9000,-61.7534,276.301,1.01161
215.8000,-61.2566,276.326,1.0119
215.7000,-60.7641,276.331,1.01196
215.6000,-61.662,276.975,1.01924
215.5000,-58.3162,277.348,1.02345
215.4000,-59.6547,276.926,1.01869
215.3000,-60.1482,277.563,1.02588
215.2000,-61.0536,278.571,1.03725
215.1000,-59.8724,278.416,1.0355
215.0000,-59.9742,278.15,1.0325
214.9000,-61.7867,278.823,1.04008
214.8000,-61.1523,279.816,1.05122
214.7000,-61.9022,280.107,1.05448
214.6000,-59.0825,280.907,1.06343
214.5000,-63.2678,280.358,1.0573
214.4000,-64.3781,281.071,1.06527
214.3000,-59.3834,281.16,1.06626
214.2000,-59.109,281.076,1.06532
214.1000,-60.287,281.916,1.07469
214.0000,-59.0543,281.906,1.07458
213.9000,-60.3502,282.581,1.0821
213.8000,-60.8646,282.806,1.08459
213.7000,-58.0602,283.503,1.09232
213.6000,-60.8421,284.147,1.09946
213.5000,-58.6371,283.924,1.09699
213.4000,-63.5132,284.203,1.10008
213.3000,-59.9123,285.127,1.1103
213.2000,-62.5358,285.598,1.11548
213.1000,-59.3706,285.395,1.11325
213.0000,-61.4275,286.317,1.1234
212.9000,-58.86,286.001,1.11992
212.8000,-59.7492,286.371,1.124
212.7000,-59.2919,286.783,1.12852
212.6000,-62.7724,287.583,1.1373
212.5000,-59.2091,287.846,1.14017
212.4000,-63.4327,288.05,1.14241
212.3000,-60.4809,288.529,1.14765
212.2000,-58.6795,289.72,1.16064
212.1000,-58.6997,289.617,1.15951
212.0000,-63.5308,289.788,1.16138
211.9000,-65.871,290.964,1.17416
211.8000,-60.3712,291.003,1.17459
211.7000,-63.5486,291.232,1.17707
211.6000,-62.1377,292.278,1.1884
211.5000,-60.1761,292.405,1.18977
211.4000,-58.6905,293.41,1.20061
211.3000,-61.242,293.588,1.20253
211.2000,-62.2721,293.573,1.20237
211.1000,-63.5922,294.613,1.21356
211.0000,-62.8964,295.369,1.22166
210.9000,-67.81,295.888,1.22722
210.8000,-62.0359,296.816,1.23714
210.7000,-66.471,296.405,1.23275
210.6000,-65.6412,297.447,1.24387
210.5000,-57.1999,298.073,1.25053
210.4000,-66.834,298.328,1.25324
210.3000,-64.984,298.803,1.25829
210.2000,-65.9619,299.799,1.26885
210.1000,-65.4824,299.805,1.26891
210.0000,-58.9783,300.208,1.27317
209.9000,-64.3831,301.611,1.28797
209.8000,-65.7857,302.254,1.29473
209.7000,-68.5303,302.321,1.29543
209.6000,-68.6104,302.547,1.29782
209.5000,-65.2268,304.075,1.31383
209.4000,-67.633,304.188,1.31501
209.3000,-62.8942,305.514,1.32885
209.2000,-63.3115,306.066,1.3346
209.1000,-61.3546,307.104,1.34539
209.0000,-57.825,307.449,1.34896
208.9000,-64.9962,308.177,1.3565
208.8000,-66.4398,308.495,1.35978
208.7000,-65.0712,308.946,1.36444
208.6000,-64.0284,309.016,1.36516
208.5000,-64.3432,310.593,1.3814
208.4000,-64.0911,311.115,1.38677
208.3000,-62.2943,310.679,1.38229
208.2000,-63.3312,311.742,1.39319
208.1000,-66.9994,313.193,1.40803
208.0000,-60.8334,316.07,1.43728
207.9000,-62.7473,314.67,1.42307
207.8000,-64.0173,316.84,1.44506
207.7000,-69.6829,317.396,1.45068
207.6000,-62.3559,318.504,1.46185
207.5000,-61.0819,318.551,1.46232
207.4000,-62.4494,318.952,1.46635
207.3000,-65.8524,319.991,1.47678
207.2000,-59.8596,320.614,1.48302
207.1000,-61.303,321.938,1.49625
207.0000,-64.5647,321.906,1.49593
206.9000,-61.254,323.636,1.51314
206.8000,-55.1756,324.358,1.5203
206.7000,-62.9048,325.54,1.53201
206.6000,-57.753,325.767,1.53425
206.5000,-52.3695,327.744,1.55372
206.4000,-52.288,328.319,1.55936
206.3000,-56.624,329.136,1.56737
206.2000,-52.1498,329.982,1.57565
206.1000,-51.362,330.853,1.58415
206.0000,-50.9856,332.402,1.59922
205.9000,-56.5087,333.175,1.60672
205.8000,-48.3572,334.505,1.61959
205.7000,-51.2059,335.23,1.62658
205.6000,-46.6759,336.245,1.63635
205.5000,-53.0754,337.562,1.649
205.4000,-45.6622,339.133,1.66403
205.3000,-46.3517,340.007,1.67237
205.2000,-39.8883,341.094,1.68271
205.1000,-50.6144,342.274,1.6939
205.0000,-47.4834,343.811,1.70844
204.9000,-40.3122,344.626,1.71613
204.8000,-49.5763,346.273,1.73162
204.7000,-40.0639,346.884,1.73734
204.6000,-35.2693,347.99,1.74769
204.5000,-28.2888,348.796,1.75521
204.4000,-35.2001,351.119,1.77682
204.3000,-40.1129,353.131,1.79543
204.2000,-46.7741,353.979,1.80326
204.1000,-35.3757,354.93,1.81201
204.0000,-32.7017,355.856,1.82051
203.9000,-33.8305,358.648,1.84603
203.8000,-26.8263,360.168,1.85986
203.7000,-33.2978,360.489,1.86277
203.6000,-30.2686,362.566,1.88156
203.5000,-28.2816,363.932,1.89388
203.4000,-28.1805,364.217,1.89644
203.3000,-23.1285,366.161,1.91389
203.2000,-25.7832,367.725,1.92787
203.1000,-11.3184,369.379,1.9426
203.0000,-21.7168,371.134,1.95817
202.9000,-10.9004,372.431,1.96964
202.8000,-26.5117,373.234,1.97672
202.7000,-18.2463,375.033,1.99254
202.6000,-6.63318,377.126,2.01086
202.5000,-16.7374,377.557,2.01463
202.4000,-11.627,379.24,2.02929
202.3000,-13.0665,381.408,2.04809
202.2000,-15.3981,383.585,2.06689
202.1000,-7.39518,385.645,2.08459
202.0000,-10.9633,387.196,2.09786
201.9000,-5.1375,389.309,2.11588
201.8000,-5.47801,390.918,2.12954
201.7000,-0.950463,393.065,2.14769
201.6000,2.9019,394.76,2.16196
201.5000,4.85807,396.279,2.17472
201.4000,-3.12763,398.742,2.1953
201.3000,-4.03888,400.645,2.21113
201.2000,1.3582,402.149,2.2236
201.1000,-4.7483,404.305,2.2414
201.0000,10.6586,405.562,2.25175
200.9000,8.40228,407.511,2.26773
200.8000,19.4026,408.556,2.27627
200.7000,10.7866,410.752,2.29416
200.6000,3.67276,413.214,2.31413
200.5000,4.05513,416.049,2.337
200.4000,6.58324,418.152,2.35388
200.3000,18.9876,420.109,2.36952
200.2000,16.8436,422.351,2.38737
200.1000,19.8958,424.539,2.40471
200.0000,19.8596,426.899,2.42333
199.9000,26.5635,429.154,2.44103
199.8000,13.0019,431.045,2.45582
199.7000,27.7982,433.577,2.47554
199.6000,27.5877,435.261,2.4886
199.5000,13.4924,437.415,2.50525
199.4000,17.6651,439.52,2.52145
199.3000,24.3959,441.104,2.53359
199.2000,25.5011,443.049,2.54845
199.1000,21.7359,445.521,2.56727
199.0000,28.26,447.733,2.58402
198.9000,32.4661,449.067,2.5941
198.8000,33.4956,453.507,2.62744
198.7000,39.4678,454.981,2.63845
198.6000,30.9404,457.322,2.65588
198.5000,28.2699,459.854,2.67464
198.4000,26.3997,462.614,2.69499
198.3000,32.6118,464.964,2.71224
198.2000,32.4309,467.906,2.73372
198.1000,41.7604,469.948,2.74857
198.0000,26.1329,472.37,2.76611
197.9000,25.6235,474.812,2.78372
197.8000,29.1185,477.256,2.80126
197.7000,18.5121,480.439,2.824
197.6000,21.3886,481.9,2.8344
197.5000,35.3339,484.246,2.85103
197.4000,35.9915,487.039,2.87074
197.3000,43.8948,489.87,2.89063
197.2000,23.3048,492.462,2.90875
197.1000,38.4889,493.989,2.91939
197.0000,40.7576,497.93,2.94672
196.9000,23.3445,499.562,2.95798
196.8000,46.0425,501.522,2.97147
196.7000,29.0903,504.964,2.99505
196.6000,46.185,507.779,3.01422
196.5000,33.2001,511.206,3.03746
196.4000,41.1276,513.18,3.05078
196.3000,43.1179,516.584,3.07364
196.2000,46.7015,518.343,3.08541
196.1000,35.0093,522.371,3.11223
196.0000,30.8449,524.961,3.12939
195.9000,33.2503,526.983,3.14272
195.8000,41.1565,529.709,3.16064
195.7000,29.5985,532.907,3.18156
195.6000,30.8864,534.622,3.19274
195.5000,33.8849,537.133,3.20904
195.4000,23.436,538.957,3.22085
195.3000,59.8371,541.828,3.23937
195.2000,34.2039,543.308,3.24887
195.1000,27.4395,545.797,3.26482
195.0000,30.5899,549.209,3.28658
194.9000,26.9962,550.95,3.29763
194.8000,38.1791,552.296,3.30616
194.7000,31.884,555.035,3.32347
194.6000,36.2641,557.464,3.33875
194.5000,36.9146,559.187,3.34956
194.4000,33.102,561.412,3.36347
194.3000,32.6678,563.647,3.3774
194.2000,29.64,566.074,3.39247
194.1000,43.0791,569.74,3.41514
194.0000,44.8616,571.628,3.42676
193.9000,40.8538,574.133,3.44213
193.8000,22.4391,577.31,3.46155
193.7000,42.4007,580.214,3.47921
193.6000,27.821,581.992,3.48999
193.5000,36.4442,584.129,3.50291
193.4000,35.2137,586.041,3.51443
193.3000,34.7203,586.313,3.51607
193.2000,36.0605,588.792,3.53096
193.1000,29.2571,591.738,3.54858
193.0000,33.7113,594.356,3.56419
192.9000,42.6122,595.796,3.57274
192.8000,22.066,598.341,3.58782
192.7000,32.3444,600.156,3.59854
192.6000,20.756,603.442,3.61788
192.5000,20.2129,605.328,3.62893
192.4000,31.5068,608.282,3.64619
192.3000,11.0122,609.987,3.65613
192.2000,32.0497,612.953,3.67335
192.1000,32.3521,614.704,3.68348
192.0000,23.3061,616.409,3.69332
191.9000,24.345,618.461,3.70514
191.8000,30.3944,621.392,3.72196
191.7000,21.1028,622.835,3.73021
191.6000,23.3503,625.309,3.74433
191.5000,9.10557,627.868,3.75888
191.4000,36.7796,630.337,3.77287
191.3000,22.1359,632.567,3.78546
191.2000,29.8664,634.753,3.79778
191.1000,30.4982,638.589,3.81929
191.0000,14.3946,641.7,3.83667
190.9000,11.1187,643.381,3.84602
190.8000,33.0844,647.268,3.86758
190.7000,26.5293,650.808,3.88711
190.6000,20.7759,653.931,3.90426
190.5000,4.65816,655.422,3.91243
190.4000,12.5409,658.372,3.92855
190.3000,20.9875,662.103,3.94884
190.2000,44.6664,663.455,3.95617
190.1000,26.6445,666.174,3.97087
190.0000,5.99842,669.037,3.98628

##### Extended Information
[Comments]
Sample name,SL + BM control
Comment,Control 
User,Stacie Lally and Beth Mlinek
Division
Company,Saint Mary's College

[Detailed Information]
Creation date,9/29/2022 1:21 PM

Data array type,Linear data array * 3
Horizontal axis,Wavelength [nm]
Vertical axis(1),CD [mdeg]
Vertical axis(2),HT [V]
Vertical axis(3),Abs
Start,320 nm
End,190 nm
Data interval,0.1 nm
Data points,1301    

[Measurement Information]
Instrument name,J-1500
Model name,J-1500
Serial No.,B051061638

Detector,PM-539
Detector S/N,B051061638
  Lock-in amp.,X mode
  HT volt,Auto

Accessory,PTC-517
Accessory S/N,B026561646
  Temperature,22.40 C
  Control sensor,Holder
  Monitor sensor,Holder

Measurement date,9/29/2022 1:20 PM

CD Overload detect,996
Photometric mode,CD, HT, Abs
Measure range,320 - 190 nm
Data pitch,0.1 nm
CD scale,20 mdeg/0.05 dOD
FL scale,20 mdeg/0.05 dOD
D.I.T.,8 msec
Bandwidth,2.00 nm
Start mode,Immediately
Scanning mode,Continuous
Scanning speed,200 nm/min
Baseline correction,None
Shutter control,Auto
No. of cycle,1/1
N2 Flowmeter,Manual

Solvent,NaPO4 buffer

