TITLE,SL + BM Additive and Protein
DATA TYPE,
ORIGIN,JASCO
OWNER,
DATE,22/09/29
TIME,14:32:43
SPECTROMETER/DATA SYSTEM,
LOCALE,1033
RESOLUTION,
DELTAX,-0.1
XUNITS,NANOMETERS
YUNITS,CD [mdeg]
Y2UNITS,HT [V]
Y3UNITS,ABSORBANCE
FIRSTX,  320.0000
LASTX,  190.0000
NPOINTS,    1301
FIRSTY,     0.06098
MAXY,    57.79573
MINY,   -68.37383
XYDATA
320.0000,0.0609844,208.976,0.158163
319.9000,0.482442,208.999,0.158486
319.8000,2.59619,208.074,0.145269
319.7000,3.44166,208.5,0.151366
319.6000,0.626648,208.958,0.157904
319.5000,2.17533,209.121,0.160232
319.4000,0.809723,208.568,0.152337
319.3000,1.69166,208.829,0.15606
319.2000,-0.358238,208.309,0.148627
319.1000,1.68111,208.745,0.154863
319.0000,0.881728,208.363,0.149405
318.9000,-0.255828,208.786,0.155445
318.8000,3.87096,208.963,0.157969
318.7000,1.35343,208.362,0.149388
318.6000,2.1078,208.24,0.147638
318.5000,3.00918,208.659,0.153633
318.4000,0.664344,208.981,0.158228
318.3000,2.74418,208.109,0.145772
318.2000,2.21404,207.993,0.144101
318.1000,0.103663,208.916,0.157306
318.0000,2.11783,208.072,0.145237
317.9000,2.55797,208.551,0.152094
317.8000,-0.517215,208.571,0.15237
317.7000,1.91387,209.147,0.160604
317.6000,1.85989,208.114,0.145837
317.5000,2.99838,208.609,0.15292
317.4000,1.36558,208.232,0.147524
317.3000,1.69876,208.375,0.149567
317.2000,1.43265,208.828,0.156044
317.1000,2.91395,208.884,0.156853
317.0000,1.01309,208.184,0.146843
316.9000,2.85305,208.802,0.155672
316.8000,1.91213,209.069,0.159489
316.7000,3.04835,208.838,0.15619
316.6000,2.29835,208.333,0.148967
316.5000,1.85365,208.514,0.15156
316.4000,2.2798,208.623,0.153114
316.3000,2.00355,208.87,0.156643
316.2000,3.94077,209.009,0.158632
316.1000,1.3613,209.179,0.161056
316.0000,2.17114,207.89,0.142623
315.9000,0.652874,208.286,0.148302
315.8000,2.43205,208.29,0.148351
315.7000,2.72587,207.899,0.142753
315.6000,3.05143,207.909,0.142899
315.5000,1.83771,208.703,0.154264
315.4000,1.77297,208.632,0.153244
315.3000,1.73634,208.152,0.146389
315.2000,1.85685,208.717,0.154458
315.1000,1.80697,209.006,0.158583
315.0000,1.89133,208.974,0.15813
314.9000,2.06803,207.356,0.134967
314.8000,1.76823,208.257,0.147881
314.7000,1.12897,208.359,0.14934
314.6000,1.41402,208.111,0.145789
314.5000,1.81139,208.029,0.14462
314.4000,1.51659,208.352,0.149243
314.3000,0.138894,206.555,0.123443
314.2000,1.31229,208.142,0.146243
314.1000,2.62715,207.232,0.133193
314.0000,1.80887,208.369,0.149486
313.9000,1.22749,208.671,0.153811
313.8000,2.43937,208.149,0.14634
313.7000,4.04962,208.182,0.146811
313.6000,2.47403,207.859,0.142185
313.5000,1.13787,207.88,0.142493
313.4000,0.616231,208.677,0.153892
313.3000,1.62137,207.859,0.142185
313.2000,1.16443,208.674,0.153843
313.1000,1.13686,207.691,0.13978
313.0000,3.70305,208.035,0.144701
312.9000,2.10576,208.142,0.146243
312.8000,2.34145,208.055,0.144993
312.7000,1.67233,207.229,0.133144
312.6000,0.642727,207.706,0.139992
312.5000,1.3547,207.892,0.142656
312.4000,0.89465,207.545,0.137683
312.3000,0.905356,207.228,0.133127
312.2000,1.93266,207.756,0.140707
312.1000,1.86443,207.88,0.142493
312.0000,1.9424,207.89,0.142623
311.9000,2.82906,208.203,0.147119
311.8000,0.971193,208.479,0.151058
311.7000,2.46198,207.972,0.143809
311.6000,2.65881,206.958,0.129251
311.5000,1.92968,208.184,0.146843
311.4000,2.10705,208.915,0.15729
311.3000,2.76029,208.663,0.153698
311.2000,4.49715,208.439,0.150491
311.1000,0.298254,208.019,0.144474
311.0000,2.29633,207.766,0.140853
310.9000,0.845221,208.013,0.144393
310.8000,0.524525,208.12,0.145918
310.7000,2.24947,207.814,0.141535
310.6000,0.44898,207.981,0.143938
310.5000,0.590959,208.618,0.15305
310.4000,1.46451,207.777,0.141015
310.3000,1.28373,208.382,0.14968
310.2000,0.400268,207.675,0.139553
310.1000,2.31653,207.826,0.141714
310.0000,2.34637,208.265,0.147994
309.9000,2.06906,207.389,0.135439
309.8000,2.32566,207.735,0.140414
309.7000,1.55166,208.091,0.145513
309.6000,1.19241,208.2,0.14707
309.5000,2.92446,209.059,0.159343
309.4000,3.18529,208.066,0.145156
309.3000,2.06714,207.899,0.142753
309.2000,2.75834,207.697,0.139862
309.1000,2.94535,207.275,0.133811
309.0000,1.25164,207.835,0.141844
308.9000,3.0539,207.771,0.140918
308.8000,1.90369,208.168,0.146616
308.7000,1.90808,208.033,0.144685
308.6000,2.89472,207.917,0.143013
308.5000,0.879335,207.866,0.142282
308.4000,0.210116,207.611,0.138626
308.3000,2.58421,208.459,0.150782
308.2000,0.972471,208.033,0.144685
308.1000,1.70597,208.123,0.145967
308.0000,2.52984,208.458,0.150766
307.9000,1.56808,207.748,0.140593
307.8000,2.64532,207.958,0.143598
307.7000,0.609719,208.199,0.147054
307.6000,2.08767,208.382,0.14968
307.5000,0.713377,208.372,0.149534
307.4000,1.85679,208.167,0.1466
307.3000,1.53494,208.126,0.146016
307.2000,1.36414,206.896,0.128354
307.1000,1.75092,207.264,0.133649
307.0000,2.21025,208.246,0.147735
306.9000,1.67703,208.505,0.15143
306.8000,3.05268,208.873,0.156691
306.7000,1.69966,208.021,0.144506
306.6000,1.73419,207.408,0.135715
306.5000,1.41909,208.023,0.144539
306.4000,1.88603,207.724,0.140252
306.3000,1.91126,207.305,0.134234
306.2000,2.13136,208.388,0.149761
306.1000,1.75021,207.95,0.143484
306.0000,1.93968,207.212,0.132899
305.9000,2.4063,208.047,0.14488
305.8000,1.59481,208.152,0.146389
305.7000,2.06206,207.844,0.141974
305.6000,2.05811,208.537,0.151884
305.5000,0.774106,208.183,0.146827
305.4000,1.7586,208.878,0.156756
305.3000,3.13618,208.177,0.146746
305.2000,0.305262,208.496,0.151301
305.1000,1.2391,208.009,0.144328
305.0000,2.77522,207.867,0.142299
304.9000,1.78638,207.82,0.141633
304.8000,1.39995,207.746,0.140561
304.7000,3.3468,207.885,0.142558
304.6000,1.42643,208.535,0.151868
304.5000,1.43988,208.68,0.15394
304.4000,2.10248,207.78,0.141048
304.3000,1.93534,207.606,0.138561
304.2000,1.45216,207.602,0.138496
304.1000,0.878644,208.29,0.148351
304.0000,1.07506,208.156,0.146437
303.9000,0.756073,208.228,0.147476
303.8000,0.929889,207.959,0.143614
303.7000,1.73467,208.273,0.148108
303.6000,1.58983,207.743,0.140528
303.5000,0.110463,207.401,0.135618
303.4000,1.69214,207.835,0.141844
303.3000,2.24212,208.003,0.144247
303.2000,1.22655,208.425,0.150296
303.1000,2.01737,207.569,0.138025
303.0000,1.9665,207.788,0.141162
302.9000,2.33172,208.327,0.148886
302.8000,0.213054,207.265,0.133665
302.7000,-0.397495,206.873,0.128028
302.6000,0.763448,207.451,0.136334
302.5000,2.51785,207.776,0.140999
302.4000,0.502365,208.073,0.145253
302.3000,0.413063,207.824,0.141681
302.2000,0.967791,207.548,0.137732
302.1000,2.22765,208.19,0.146924
302.0000,0.137994,206.916,0.128647
301.9000,2.15509,207.785,0.141129
301.8000,0.774051,207.542,0.137635
301.7000,1.36681,207.254,0.133502
301.6000,2.2839,207.955,0.143565
301.5000,1.98897,208.263,0.147978
301.4000,1.4506,207.239,0.13329
301.3000,2.93991,207.935,0.143273
301.2000,0.565722,206.885,0.128191
301.1000,0.963967,207.453,0.136366
301.0000,2.08647,207.342,0.134771
300.9000,2.00811,207.258,0.133567
300.8000,0.171676,207.9,0.14277
300.7000,2.01667,207.501,0.137049
300.6000,1.25669,207.936,0.143289
300.5000,1.88523,207.507,0.13713
300.4000,2.0226,208.231,0.147508
300.3000,2.69651,207.308,0.134283
300.2000,1.12404,207.25,0.133453
300.1000,0.919765,206.606,0.124178
300.0000,0.32957,207.466,0.136545
299.9000,0.986805,208.186,0.146875
299.8000,0.732235,207.16,0.13215
299.7000,1.55312,207.614,0.138675
299.6000,2.24191,207.28,0.133876
299.5000,1.70678,207.467,0.136561
299.4000,0.532724,207.343,0.134788
299.3000,2.24275,206.585,0.123884
299.2000,2.61532,207.569,0.138025
299.1000,1.77926,206.736,0.126054
299.0000,2.24121,207.465,0.136529
298.9000,2.60856,207.418,0.135862
298.8000,1.94974,206.891,0.128289
298.7000,2.91914,208.106,0.145724
298.6000,1.73305,207.189,0.132574
298.5000,2.27571,207.521,0.137342
298.4000,2.28066,207.902,0.142802
298.3000,1.90039,207.449,0.136301
298.2000,1.02475,206.956,0.129218
298.1000,1.46306,208.092,0.145529
298.0000,0.39263,207.604,0.138529
297.9000,1.29705,207.678,0.139586
297.8000,3.48563,207.571,0.138057
297.7000,1.40306,207.954,0.143549
297.6000,2.70961,207.834,0.141827
297.5000,2.51385,207.728,0.1403
297.4000,0.792815,207.163,0.132199
297.3000,0.174149,207.413,0.13578
297.2000,2.19387,206.572,0.123688
297.1000,1.99227,207.433,0.136073
297.0000,1.22033,207.397,0.135553
296.9000,1.45211,207.592,0.13835
296.8000,1.55788,208.014,0.144409
296.7000,2.4958,207.322,0.134479
296.6000,1.94939,207.825,0.141698
296.5000,0.3426,207.172,0.132329
296.4000,1.07292,207.785,0.141129
296.3000,0.828891,207.265,0.133665
296.2000,0.720176,207.394,0.13552
296.1000,2.7361,207.692,0.139797
296.0000,1.7612,207.335,0.134674
295.9000,1.53046,207.419,0.135878
295.8000,0.971598,207.706,0.139992
295.7000,2.3503,207.538,0.137586
295.6000,2.23655,207.317,0.134413
295.5000,1.33582,207.559,0.137879
295.4000,1.58082,206.631,0.124537
295.3000,0.98879,207.536,0.137553
295.2000,1.53618,207.077,0.130962
295.1000,1.94877,207.228,0.133127
295.0000,-0.0785297,206.621,0.12439
294.9000,0.99296,207.287,0.133974
294.8000,1.17902,207.299,0.134153
294.7000,2.71075,207.267,0.133697
294.6000,2.31414,207.547,0.137716
294.5000,1.04845,207.04,0.130424
294.4000,3.18032,207.29,0.134023
294.3000,2.37827,207.877,0.142445
294.2000,0.825587,207.931,0.143224
294.1000,0.544041,207.315,0.134381
294.0000,0.936589,207.35,0.134885
293.9000,0.283962,206.721,0.125842
293.8000,2.70251,207.343,0.134788
293.7000,2.08323,207.53,0.137472
293.6000,1.73508,207.492,0.136919
293.5000,2.67792,207.113,0.131483
293.4000,1.48267,207.209,0.132851
293.3000,1.29794,207.241,0.133323
293.2000,0.816434,207.067,0.130815
293.1000,0.486619,207.458,0.136431
293.0000,1.73122,206.92,0.128696
292.9000,1.82938,207.419,0.135878
292.8000,0.587103,207.075,0.130929
292.7000,0.761984,207.462,0.136496
292.6000,1.561,207.516,0.137261
292.5000,1.56938,207.153,0.132053
292.4000,2.24235,206.78,0.126691
292.3000,2.02593,207.558,0.137862
292.2000,2.38977,206.258,0.119164
292.1000,2.3594,207.369,0.135162
292.0000,1.4608,207.044,0.130489
291.9000,1.90496,206.199,0.118314
291.8000,1.50263,207.726,0.140284
291.7000,2.0107,206.868,0.127946
291.6000,1.39019,205.855,0.11334
291.5000,1.61436,207.316,0.134397
291.4000,0.835159,206.69,0.125385
291.3000,2.70712,206.973,0.129462
291.2000,1.76477,207.042,0.130456
291.1000,2.73162,207.313,0.134348
291.0000,0.238809,206.888,0.12824
290.9000,0.379187,207.287,0.133974
290.8000,1.64362,206.866,0.12793
290.7000,0.868305,207.322,0.134479
290.6000,1.71662,207.155,0.132085
290.5000,1.42603,207.52,0.137326
290.4000,2.99023,207.331,0.134609
290.3000,0.912719,206.945,0.129055
290.2000,0.857968,207.119,0.131564
290.1000,1.78786,207.244,0.133355
290.0000,0.878491,207.585,0.138252
289.9000,1.16535,207.172,0.132329
289.8000,1.76239,207.155,0.132085
289.7000,0.81731,207.186,0.132525
289.6000,0.952393,207.139,0.131857
289.5000,1.01305,207.125,0.131646
289.4000,2.03677,207.36,0.135032
289.3000,0.767317,207.11,0.131434
289.2000,1.54641,206.875,0.12806
289.1000,2.06976,207.62,0.138756
289.0000,0.107631,207.869,0.142331
288.9000,1.35204,207.528,0.137439
288.8000,1.86763,207.558,0.137862
288.7000,3.14122,207.078,0.130978
288.6000,0.586244,207.798,0.141308
288.5000,1.43597,207.122,0.131613
288.4000,1.48251,207.249,0.133437
288.3000,1.79832,208.053,0.144961
288.2000,0.340818,207.235,0.133225
288.1000,1.48684,207.527,0.137423
288.0000,0.561978,207.036,0.130375
287.9000,1.50262,207.411,0.135764
287.8000,-0.539284,207.723,0.140236
287.7000,1.02605,207.424,0.135943
287.6000,2.37796,208.089,0.14548
287.5000,2.95355,207.919,0.143045
287.4000,2.70325,207.701,0.139927
287.3000,2.0472,207.696,0.139846
287.2000,-0.0444609,207.717,0.140154
287.1000,0.762954,207.859,0.142185
287.0000,1.11326,207.835,0.141844
286.9000,2.36767,207.65,0.139195
286.8000,2.32662,207.104,0.131352
286.7000,2.85696,208.821,0.155947
286.6000,0.51605,207.474,0.136659
286.5000,1.92726,208.404,0.149988
286.4000,1.19028,207.865,0.142266
286.3000,0.459722,208.071,0.145221
286.2000,1.22708,207.479,0.13674
286.1000,1.29069,208.104,0.145691
286.0000,3.50112,206.814,0.12718
285.9000,1.01556,207.818,0.1416
285.8000,0.552279,207.783,0.141097
285.7000,0.825937,208.167,0.1466
285.6000,1.75644,207.984,0.143971
285.5000,2.50841,207.713,0.140089
285.4000,1.99366,207.304,0.134218
285.3000,0.0600779,208.033,0.144685
285.2000,1.59738,208.087,0.145448
285.1000,-0.237605,207.839,0.141893
285.0000,1.04024,206.902,0.128436
284.9000,2.58524,207.592,0.13835
284.8000,2.12285,207.913,0.142964
284.7000,0.627122,207.257,0.133551
284.6000,-0.233145,207.816,0.141568
284.5000,1.43417,207.803,0.141389
284.4000,1.2986,207.877,0.142445
284.3000,1.99184,208.077,0.145302
284.2000,0.437279,207.631,0.138919
284.1000,2.79745,206.895,0.128337
284.0000,1.54874,208.106,0.145724
283.9000,3.81422,207.908,0.142883
283.8000,0.861029,208.107,0.14574
283.7000,0.917915,208.03,0.144636
283.6000,0.600355,208.214,0.147265
283.5000,0.644875,208.969,0.158066
283.4000,0.647349,208.633,0.15326
283.3000,1.92863,207.796,0.141275
283.2000,0.944945,207.282,0.133909
283.1000,1.37709,208.134,0.146129
283.0000,0.804263,207.87,0.142347
282.9000,1.96815,207.925,0.143127
282.8000,1.2337,207.861,0.142217
282.7000,2.47732,207.941,0.143354
282.6000,1.81369,207.694,0.139813
282.5000,0.226648,208.397,0.149891
282.4000,1.15353,207.763,0.140804
282.3000,1.53069,208.129,0.146048
282.2000,1.62515,208.026,0.144571
282.1000,-0.112197,208.459,0.150782
282.0000,2.40541,207.854,0.14212
281.9000,1.11879,208.201,0.147086
281.8000,1.78795,208.06,0.145058
281.7000,0.451736,207.916,0.142997
281.6000,-0.333466,208.448,0.15062
281.5000,1.3252,208.54,0.151932
281.4000,1.23884,207.556,0.137846
281.3000,1.73285,207.81,0.141486
281.2000,-0.13002,208.568,0.152337
281.1000,1.1138,207.973,0.143825
281.0000,-1.56217,208.014,0.144409
280.9000,0.657638,207.798,0.141308
280.8000,0.385708,208.003,0.144247
280.7000,1.74334,207.695,0.139829
280.6000,2.45145,207.223,0.133062
280.5000,2.43689,207.726,0.140284
280.4000,1.95071,208.13,0.146064
280.3000,0.54243,208.019,0.144474
280.2000,-0.269946,207.84,0.141909
280.1000,1.36635,208.482,0.151106
280.0000,0.827764,207.822,0.141649
279.9000,1.42829,207.935,0.143273
279.8000,0.276131,208.311,0.148659
279.7000,-1.14514,207.833,0.141811
279.6000,2.325,207.663,0.139374
279.5000,0.562903,208.652,0.153536
279.4000,1.5807,208.139,0.146194
279.3000,0.218954,207.997,0.144166
279.2000,0.717861,208.122,0.145951
279.1000,1.59581,208.148,0.146324
279.0000,1.16267,207.965,0.143711
278.9000,0.548478,208.482,0.151106
278.8000,0.686723,208.063,0.145107
278.7000,0.654488,207.623,0.138805
278.6000,0.833734,208.893,0.156982
278.5000,0.6375,208.764,0.155138
278.4000,2.27125,208.369,0.149486
278.3000,0.738674,208.083,0.145399
278.2000,0.935867,208.178,0.146762
278.1000,0.523341,207.849,0.142039
278.0000,0.468655,207.948,0.143468
277.9000,1.9456,207.902,0.142802
277.8000,3.89847,207.53,0.137472
277.7000,-0.163841,208.101,0.145659
277.6000,0.924958,208.314,0.148708
277.5000,0.548931,207.972,0.143809
277.4000,0.874965,207.511,0.137195
277.3000,1.24959,208.249,0.147767
277.2000,2.26941,208.626,0.153163
277.1000,2.56852,208.347,0.149178
277.0000,1.76923,208.202,0.147102
276.9000,2.18027,208.487,0.151171
276.8000,0.76513,207.975,0.143841
276.7000,-1.75773,207.662,0.139358
276.6000,2.10764,208.517,0.151609
276.5000,2.76719,208.403,0.149972
276.4000,1.13997,207.7,0.139911
276.3000,-0.140781,207.587,0.138285
276.2000,1.30649,208.365,0.149437
276.1000,1.58699,208.277,0.148173
276.0000,1.01661,207.356,0.134967
275.9000,1.85396,207.782,0.14108
275.8000,2.67068,207.587,0.138285
275.7000,1.1802,208.287,0.148319
275.6000,0.746541,208.47,0.150928
275.5000,2.62954,208.969,0.158066
275.4000,1.80564,208.662,0.153681
275.3000,1.95767,207.28,0.133876
275.2000,1.52692,208.229,0.147492
275.1000,0.168031,209.146,0.160588
275.0000,-0.877185,207.483,0.136789
274.9000,1.68238,208.595,0.152726
274.8000,-0.614281,208.847,0.156319
274.7000,1.17039,207.699,0.139894
274.6000,2.3095,207.99,0.144068
274.5000,1.23013,208.271,0.148092
274.4000,0.889182,207.427,0.135992
274.3000,0.584003,208.054,0.144977
274.2000,0.613004,207.657,0.139293
274.1000,1.32691,208.031,0.144653
274.0000,0.279526,208.841,0.156238
273.9000,1.42276,208.583,0.152548
273.8000,1.43081,207.563,0.137943
273.7000,0.640606,208.552,0.152111
273.6000,0.973947,208.282,0.148238
273.5000,0.798998,208.463,0.150831
273.4000,-0.21431,207.49,0.136886
273.3000,-0.164191,206.863,0.127881
273.2000,1.07585,207.903,0.142818
273.1000,1.29007,208.618,0.15305
273.0000,2.19889,208.228,0.147476
272.9000,0.886701,208.014,0.144409
272.8000,0.110733,208.301,0.148513
272.7000,2.80852,208.583,0.152548
272.6000,1.49296,207.89,0.142623
272.5000,2.41214,207.789,0.141178
272.4000,-0.839031,208.141,0.146226
272.3000,0.394915,207.92,0.143062
272.2000,0.811988,208.326,0.14887
272.1000,0.544789,208.265,0.147994
272.0000,2.90517,207.955,0.143565
271.9000,0.248961,208.768,0.155187
271.8000,1.2239,207.782,0.14108
271.7000,1.4031,208.081,0.145367
271.6000,0.503506,208.249,0.147767
271.5000,-0.173879,207.501,0.137049
271.4000,1.35646,208.776,0.1553
271.3000,0.857759,208.072,0.145237
271.2000,0.268042,207.808,0.141454
271.1000,1.19429,208.139,0.146194
271.0000,0.407721,207.764,0.14082
270.9000,1.26203,208.38,0.149648
270.8000,0.437358,208.173,0.146681
270.7000,0.450788,208.811,0.155802
270.6000,0.296065,208.19,0.146924
270.5000,1.33772,207.972,0.143809
270.4000,1.75857,208.099,0.145626
270.3000,1.26197,208.012,0.144377
270.2000,0.758443,209.061,0.159376
270.1000,-1.62719,207.918,0.143029
270.0000,-0.133102,208.862,0.15653
269.9000,1.77418,207.945,0.143419
269.8000,-0.74061,208.539,0.151916
269.7000,-0.174738,208.556,0.152159
269.6000,-0.181474,209.287,0.162591
269.5000,1.16666,208.295,0.148432
269.4000,0.9501,208.373,0.149551
269.3000,1.14769,208.303,0.148546
269.2000,0.0193846,209.231,0.161799
269.1000,0.69561,208.625,0.153147
269.0000,1.72497,207.809,0.14147
268.9000,0.419427,208.593,0.152694
268.8000,0.924657,208.473,0.150977
268.7000,1.28893,208.097,0.145594
268.6000,-0.714202,208.534,0.151851
268.5000,1.07964,208.903,0.157112
268.4000,0.629782,207.567,0.137992
268.3000,1.43199,208.645,0.153438
268.2000,-0.0912898,209.036,0.15902
268.1000,1.43137,209.278,0.162461
268.0000,2.16504,208.927,0.157468
267.9000,0.277108,208.62,0.153082
267.8000,1.4227,208.728,0.15462
267.7000,-0.370902,208.897,0.157031
267.6000,1.21664,209.207,0.16146
267.5000,1.64513,208.975,0.158147
267.4000,-0.668189,209.433,0.164673
267.3000,0.548488,209.02,0.158794
267.2000,0.571337,208.94,0.157645
267.1000,0.484567,208.747,0.154895
267.0000,0.314307,208.699,0.154199
266.9000,0.439676,207.948,0.143468
266.8000,2.03529,209.488,0.165464
266.7000,-0.288822,209.429,0.164625
266.6000,2.16971,208.569,0.152354
266.5000,0.0922036,209.44,0.16477
266.4000,0.304234,209.581,0.166787
266.3000,2.11497,209.489,0.16548
266.2000,-0.986273,209.326,0.163156
266.1000,-0.0863158,208.938,0.157613
266.0000,1.16261,209.368,0.163753
265.9000,0.53348,209.018,0.158761
265.8000,0.784353,209.489,0.16548
265.7000,-0.454812,208.969,0.158066
265.6000,1.23839,209.668,0.168029
265.5000,0.119387,209.008,0.158616
265.4000,0.00899398,208.833,0.156125
265.3000,0.795631,209.351,0.163511
265.2000,1.28189,208.696,0.154167
265.1000,-0.991363,209.317,0.163027
265.0000,1.60017,208.812,0.155818
264.9000,1.39225,209.433,0.164673
264.8000,1.31728,209.607,0.167158
264.7000,-0.343128,209.513,0.165819
264.6000,0.475843,209.431,0.164641
264.5000,2.45479,208.777,0.155316
264.4000,0.143745,209.376,0.163866
264.3000,-0.469937,209.257,0.162171
264.2000,2.06744,209.224,0.161702
264.1000,0.470407,209.721,0.168771
264.0000,-1.59207,211.096,0.18829
263.9000,2.27582,209.349,0.163479
263.8000,-0.530755,209.061,0.159376
263.7000,1.13187,209.863,0.170801
263.6000,0.915045,209.034,0.158987
263.5000,0.926192,210.31,0.177144
263.4000,0.912789,210.45,0.179138
263.3000,0.226561,209.373,0.163818
263.2000,0.860075,209.392,0.164092
263.1000,1.71225,209.985,0.172525
263.0000,0.274463,209.588,0.166884
262.9000,0.923134,209.348,0.163462
262.8000,0.986625,210.431,0.178865
262.7000,1.6348,209.855,0.170689
262.6000,1.47144,210.182,0.175326
262.5000,0.97772,210.428,0.178817
262.4000,-0.783603,209.872,0.17093
262.3000,0.122731,210.57,0.180842
262.2000,0.537525,209.348,0.163462
262.1000,-0.00228463,210.643,0.18187
262.0000,-0.367345,210.799,0.184087
261.9000,-0.387424,210.335,0.177498
261.8000,0.741957,209.832,0.17035
261.7000,1.86871,210.572,0.180858
261.6000,-0.593934,210.245,0.176228
261.5000,1.8551,209.878,0.171011
261.4000,1.43752,210.117,0.174409
261.3000,0.978201,209.922,0.171639
261.2000,-0.286376,210.602,0.181292
261.1000,2.00773,210.027,0.173121
261.0000,0.276996,210.22,0.175873
260.9000,-0.00257853,210.109,0.174296
260.8000,0.810024,211.262,0.190631
260.7000,0.714767,210.121,0.174457
260.6000,0.0745022,211.276,0.190839
260.5000,1.48455,210.883,0.185274
260.4000,1.29264,210.661,0.182127
260.3000,1.06996,210.579,0.180971
260.2000,1.38104,211.021,0.187232
260.1000,1.22368,210.321,0.177305
260.0000,3.48696,210.83,0.18452
259.9000,1.68844,210.624,0.181597
259.8000,0.558508,210.591,0.181131
259.7000,-0.461129,210.94,0.186076
259.6000,-0.122271,210.95,0.186221
259.5000,-0.196383,210.612,0.181437
259.4000,1.68924,210.397,0.178383
259.3000,0.297129,210.892,0.185403
259.2000,0.774618,211.505,0.194074
259.1000,0.44534,210.628,0.181661
259.0000,-0.400281,211.973,0.200681
258.9000,2.22472,210.927,0.1859
258.8000,-0.0740191,210.865,0.185017
258.7000,1.73744,211.13,0.188771
258.6000,1.37288,211.283,0.190935
258.5000,2.03854,211.715,0.197035
258.4000,0.158967,210.511,0.180006
258.3000,2.26552,210.68,0.1824
258.2000,-0.133265,211.018,0.187183
258.1000,0.383548,211.369,0.192153
258.0000,-0.341369,211.332,0.191624
257.9000,2.20693,210.511,0.180006
257.8000,-1.01198,211.367,0.192121
257.7000,1.40796,211.378,0.192281
257.6000,0.0714799,210.841,0.18468
257.5000,-0.000155582,211.926,0.200009
257.4000,0.67973,211.161,0.189204
257.3000,1.1556,211.655,0.196187
257.2000,1.33285,211.353,0.191928
257.1000,1.28606,211.314,0.191368
257.0000,2.17359,211.793,0.198139
256.9000,1.10373,211.232,0.190214
256.8000,1.15499,211.487,0.193818
256.7000,-0.577003,212.296,0.205232
256.6000,1.86419,211.52,0.194283
256.5000,2.09494,212.226,0.204242
256.4000,0.862137,211.16,0.189188
256.3000,1.90937,211.838,0.198778
256.2000,3.33772,211.385,0.192377
256.1000,0.628849,211.677,0.196507
256.0000,0.726001,211.76,0.197675
255.9000,1.23912,212.027,0.201447
255.8000,1.24625,212.873,0.213347
255.7000,1.87736,212.122,0.202773
255.6000,0.722976,212.197,0.203843
255.5000,1.27945,212.842,0.212917
255.4000,1.88746,212.867,0.213268
255.3000,0.900783,212.168,0.203428
255.2000,1.25672,212.139,0.203013
255.1000,1.40374,212.336,0.205791
255.0000,2.85263,212.218,0.204131
254.9000,0.406365,211.893,0.199546
254.8000,0.521885,212.04,0.201623
254.7000,2.07069,212.486,0.207913
254.6000,1.81646,212.425,0.207051
254.5000,-0.377719,212.769,0.211882
254.4000,0.982125,212.63,0.209938
254.3000,0.320786,212.58,0.209236
254.2000,-1.598,213.062,0.216006
254.1000,3.09755,212.375,0.206349
254.0000,0.231624,212.977,0.214812
253.9000,-0.293217,212.943,0.214335
253.8000,0.81114,212.801,0.212344
253.7000,1.09926,213.272,0.218949
253.6000,0.552697,212.529,0.208519
253.5000,0.323975,212.135,0.202965
253.4000,0.215745,212.822,0.212631
253.3000,-1.0639,212.616,0.20973
253.2000,0.962586,212.917,0.213968
253.1000,1.95941,212.774,0.211961
253.0000,0.306279,213.35,0.220046
252.9000,0.362834,212.775,0.211977
252.8000,2.59377,213.217,0.218185
252.7000,-0.222585,213.561,0.223001
252.6000,-0.00126697,213.317,0.219585
252.5000,0.222621,213.188,0.217772
252.4000,0.48151,213.41,0.220888
252.3000,-1.33438,213.164,0.217438
252.2000,-0.525205,212.426,0.207067
252.1000,1.73458,213.548,0.222826
252.0000,0.995273,213.213,0.218122
251.9000,1.46383,212.67,0.210496
251.8000,0.673403,213.847,0.227017
251.7000,0.267218,212.546,0.208758
251.6000,-0.00429316,212.684,0.210687
251.5000,-1.36392,213.157,0.217342
251.4000,-0.0542625,213.451,0.22146
251.3000,0.21496,212.925,0.21408
251.2000,-0.399668,213.259,0.218774
251.1000,1.26156,213.344,0.219966
251.0000,1.18961,214.188,0.23179
250.9000,0.816602,213.45,0.221444
250.8000,0.706972,214.1,0.230554
250.7000,-0.993857,213.608,0.223668
250.6000,-0.6797,213.426,0.22111
250.5000,0.682074,214.218,0.232202
250.4000,-0.10375,213.589,0.223398
250.3000,2.20659,213.6,0.223557
250.2000,-0.0395733,213.365,0.220252
250.1000,0.0762856,214.101,0.230569
250.0000,0.736717,213.057,0.215942
249.9000,0.186309,213.021,0.215433
249.8000,-1.34698,213.967,0.228699
249.7000,1.65481,214.332,0.233801
249.6000,1.19992,214.032,0.229602
249.5000,0.964696,214.051,0.229872
249.4000,0.0786707,213.669,0.224525
249.3000,-0.0318564,214.286,0.233152
249.2000,-0.394528,213.91,0.22789
249.1000,-0.34133,214.794,0.240257
249.0000,0.0253765,214.043,0.229761
248.9000,-0.924301,214.411,0.23491
248.8000,0.934757,213.019,0.215401
248.7000,-1.02461,214.648,0.238217
248.6000,-0.262427,214.252,0.232677
248.5000,1.02644,214.269,0.232914
248.4000,-0.36589,214.496,0.236097
248.3000,0.138168,214.188,0.23179
248.2000,-0.964737,213.899,0.227747
248.1000,-0.0827057,214.34,0.233912
248.0000,0.277537,214.542,0.23673
247.9000,1.33205,214.816,0.240557
247.8000,-0.631364,214.263,0.232835
247.7000,0.562284,213.859,0.227176
247.6000,0.518876,214.476,0.235812
247.5000,-1.55301,214.187,0.231774
247.4000,-0.125086,214.63,0.237964
247.3000,-1.15965,214.291,0.233231
247.2000,-1.21323,214.038,0.229682
247.1000,-1.59521,214.935,0.242217
247.0000,-0.655597,215.189,0.245754
246.9000,-1.23049,215.703,0.252913
246.8000,-0.490675,215.438,0.249224
246.7000,0.450991,215.656,0.252251
246.6000,0.42978,215.179,0.245612
246.5000,-2.43155,214.487,0.23597
246.4000,-0.61524,214.828,0.240731
246.3000,-1.24075,214.945,0.242358
246.2000,-1.29682,215.696,0.252818
246.1000,0.652243,215.429,0.249098
246.0000,-1.233,215.168,0.24547
245.9000,-0.177194,215.446,0.249335
245.8000,-0.980629,215.285,0.247095
245.7000,0.209162,215.617,0.251715
245.6000,-1.38529,215.824,0.254598
245.5000,-1.27631,215.237,0.246432
245.4000,-0.530692,215.62,0.251763
245.3000,-0.545514,215.582,0.251227
245.2000,-0.298535,216.065,0.257934
245.1000,-0.634567,216.128,0.258815
245.0000,-0.00789097,216.33,0.261614
244.9000,-0.933101,215.937,0.256156
244.8000,-1.83987,215.156,0.245296
244.7000,-0.559834,216.093,0.258328
244.6000,0.322287,215.845,0.254881
244.5000,-2.82287,216.342,0.261787
244.4000,-1.34636,216.597,0.265321
244.3000,-1.20185,216.091,0.258296
244.2000,-2.0019,215.631,0.251904
244.1000,-0.763082,215.759,0.253684
244.0000,-0.735758,216.091,0.258296
243.9000,-2.75252,216.078,0.258123
243.8000,-1.07538,216.069,0.257997
243.7000,-1.63671,215.958,0.256455
243.6000,-3.62782,216.326,0.261566
243.5000,-3.36306,215.601,0.251495
243.4000,-4.89814,216.622,0.265666
243.3000,-2.50266,216.744,0.267361
243.2000,-2.86049,216.577,0.265038
243.1000,-3.37603,216.994,0.270811
243.0000,-3.09462,216.946,0.270153
242.9000,-1.47548,217.175,0.273319
242.8000,-3.00368,217.117,0.27252
242.7000,-2.77512,216.682,0.266498
242.6000,-3.07067,217.069,0.271846
242.5000,-1.81699,217.088,0.272112
242.4000,-4.18196,217.734,0.281033
242.3000,-3.04373,217.566,0.278719
242.2000,-4.79577,217.005,0.270968
242.1000,-4.40322,216.892,0.2694
242.0000,-4.52454,217.984,0.284486
241.9000,-4.19339,218.332,0.289278
241.8000,-4.50791,217.312,0.275213
241.7000,-4.20922,217.967,0.284252
241.6000,-3.17112,218.283,0.288607
241.5000,-6.02341,217.951,0.284033
241.4000,-3.12415,218.278,0.288529
241.3000,-2.63022,217.985,0.284502
241.2000,-5.668,218.683,0.294109
241.1000,-5.36426,218.614,0.293159
241.0000,-4.66037,218.636,0.293455
240.9000,-5.9435,218.711,0.294499
240.8000,-5.55125,218.145,0.286703
240.7000,-6.97834,219.289,0.302433
240.6000,-5.40527,219.734,0.30852
240.5000,-5.32111,218.692,0.294234
240.4000,-4.8068,218.684,0.294125
240.3000,-5.92548,219.709,0.308178
240.2000,-5.56594,219.856,0.310195
240.1000,-6.82849,219.473,0.30495
240.0000,-8.17149,219.768,0.308985
239.9000,-7.65192,219.905,0.310862
239.8000,-8.98182,220.545,0.319611
239.7000,-6.98646,219.781,0.309171
239.6000,-6.61599,220.332,0.316702
239.5000,-5.23742,219.872,0.310412
239.4000,-6.63297,220.779,0.322812
239.3000,-8.52086,220.327,0.31664
239.2000,-8.49765,221.282,0.329667
239.1000,-8.15798,221.577,0.333675
239.0000,-10.1386,221.141,0.327738
238.9000,-7.9443,220.413,0.317817
238.8000,-10.0016,221.221,0.328834
238.7000,-10.4072,221.406,0.331348
238.6000,-9.6308,222.004,0.339479
238.5000,-11.1345,222.14,0.341325
238.4000,-10.1082,221.132,0.327615
238.3000,-10.2689,223.056,0.353728
238.2000,-9.75542,221.745,0.335955
238.1000,-11.5852,222.647,0.348192
238.0000,-10.915,223.189,0.355535
237.9000,-11.2854,222.531,0.346626
237.8000,-12.3424,222.729,0.349312
237.7000,-11.5729,223.632,0.361519
237.6000,-11.6933,223.434,0.358842
237.5000,-12.5154,224.096,0.367768
237.4000,-11.7646,223.17,0.355275
237.3000,-12.3335,223.089,0.354172
237.2000,-12.1651,224.25,0.369843
237.1000,-13.0212,224.003,0.366516
237.0000,-14.9405,223.998,0.366455
236.9000,-12.7365,224.867,0.378149
236.8000,-13.4244,224.398,0.371841
236.7000,-14.8849,224.625,0.37489
236.6000,-14.5303,224.914,0.378773
236.5000,-13.4038,225.139,0.3818
236.4000,-14.8337,225.167,0.382165
236.3000,-16.9157,225.511,0.386784
236.2000,-14.9038,226.271,0.39696
236.1000,-16.5307,225.556,0.387392
236.0000,-16.6938,225.825,0.390989
235.9000,-17.0944,225.491,0.386511
235.8000,-16.5977,226.323,0.397657
235.7000,-18.3359,226.692,0.402574
235.6000,-16.7923,226.975,0.406353
235.5000,-18.3903,226.771,0.403633
235.4000,-19.1874,226.706,0.402771
235.3000,-19.7684,226.927,0.405718
235.2000,-19.0049,226.616,0.401561
235.1000,-17.347,227.332,0.411108
235.0000,-19.0091,227.771,0.416956
234.9000,-21.0759,227.805,0.417408
234.8000,-19.264,228.424,0.425621
234.7000,-21.4505,229.105,0.434641
234.6000,-19.1323,228.267,0.423532
234.5000,-22.2875,228.218,0.422886
234.4000,-23.6283,228.857,0.431357
234.3000,-23.9552,229.193,0.43581
234.2000,-21.1044,229.777,0.443519
234.1000,-22.9214,229.511,0.440003
234.0000,-24.4692,229.643,0.441754
233.9000,-23.9109,230.468,0.452629
233.8000,-25.0517,230.273,0.450062
233.7000,-26.0272,229.575,0.440856
233.6000,-24.5487,229.715,0.442696
233.5000,-24.8255,231.607,0.467589
233.4000,-25.4301,231.466,0.465746
233.3000,-25.7088,231.09,0.460808
233.2000,-24.7227,231.003,0.459662
233.1000,-25.5893,231.653,0.468198
233.0000,-26.6876,231.572,0.467128
232.9000,-27.7621,232.016,0.472948
232.8000,-29.5446,232.818,0.483435
232.7000,-27.8225,232.707,0.481985
232.6000,-29.4545,233.02,0.486067
232.5000,-28.8089,232.573,0.480239
232.4000,-27.6208,233.146,0.487707
232.3000,-29.3812,232.488,0.479128
232.2000,-29.6606,234.223,0.501731
232.1000,-30.1062,234.638,0.507114
232.0000,-30.1241,234.182,0.501201
231.9000,-30.8047,234.565,0.506173
231.8000,-31.0462,234.263,0.502246
231.7000,-33.4696,235.243,0.514953
231.6000,-31.0178,235.087,0.512929
231.5000,-34.6616,234.469,0.504923
231.4000,-34.7942,234.867,0.510081
231.3000,-33.41,235.144,0.513677
231.2000,-34.482,236.23,0.527705
231.1000,-33.5647,235.506,0.518354
231.0000,-35.1933,236.06,0.525512
230.9000,-34.3332,236.306,0.528684
230.8000,-36.7402,236.439,0.530408
230.7000,-36.6987,236.18,0.527062
230.6000,-37.9266,236.334,0.529049
230.5000,-35.3136,236.813,0.535224
230.4000,-37.5833,236.842,0.535588
230.3000,-37.132,237.33,0.541869
230.2000,-39.4347,237.469,0.543659
230.1000,-40.2143,237.919,0.549432
230.0000,-39.7504,237.437,0.543237
229.9000,-38.5783,237.796,0.547848
229.8000,-41.2639,237.852,0.548574
229.7000,-39.3479,238.625,0.558472
229.6000,-40.2116,238.48,0.556616
229.5000,-39.4499,237.986,0.550288
229.4000,-41.8524,239.217,0.56603
229.3000,-39.281,239.075,0.564222
229.2000,-39.2913,238.942,0.562528
229.1000,-44.6311,239.195,0.565755
229.0000,-45.2474,240.443,0.581647
228.9000,-45.7937,239.915,0.574929
228.8000,-43.3873,240.647,0.584238
228.7000,-41.5229,240.03,0.5764
228.6000,-45.4476,240.628,0.584008
228.5000,-44.4779,241.165,0.590824
228.4000,-44.6893,241.529,0.595433
228.3000,-45.5568,241.503,0.595103
228.2000,-49.9075,241.973,0.601054
228.1000,-47.458,242.192,0.603818
228.0000,-46.5488,242.797,0.611455
227.9000,-46.736,242.882,0.612526
227.8000,-47.9482,243.518,0.620531
227.7000,-47.4314,242.889,0.612612
227.6000,-50.1263,244.115,0.628034
227.5000,-48.0421,244.681,0.635139
227.4000,-51.5649,243.142,0.615796
227.3000,-52.0447,245.319,0.643122
227.2000,-49.623,244.781,0.636388
227.1000,-48.7954,244.835,0.637069
227.0000,-51.2624,245.975,0.651315
226.9000,-49.098,245.684,0.647681
226.8000,-51.6944,244.907,0.637963
226.7000,-53.2167,245.017,0.639338
226.6000,-52.1874,246.012,0.651767
226.5000,-51.7095,245.615,0.646818
226.4000,-52.2071,245.983,0.651414
226.3000,-52.2337,246.143,0.653406
226.2000,-53.4967,246.39,0.656485
226.1000,-54.5031,246.507,0.657938
226.0000,-51.3399,247.297,0.667759
225.9000,-54.6396,247.312,0.667956
225.8000,-51.7716,247.796,0.67396
225.7000,-54.7476,248.291,0.680093
225.6000,-54.9785,248.306,0.680276
225.5000,-51.9486,249.21,0.691451
225.4000,-54.3468,248.96,0.688359
225.3000,-56.0187,249.15,0.690709
225.2000,-55.9445,249.232,0.691716
225.1000,-52.4266,249.986,0.701016
225.0000,-54.5507,249.667,0.697081
224.9000,-56.1347,250.502,0.707356
224.8000,-59.009,249.815,0.698909
224.7000,-54.895,249.912,0.700095
224.6000,-56.0751,251.054,0.71413
224.5000,-58.941,251.4,0.71838
224.4000,-56.7524,250.633,0.708971
224.3000,-54.7001,250.918,0.712462
224.2000,-55.9759,251.351,0.717769
224.1000,-56.4544,252.132,0.727336
224.0000,-57.3478,252.665,0.733839
223.9000,-55.6249,251.798,0.723249
223.8000,-60.499,252.901,0.736714
223.7000,-57.422,251.914,0.724663
223.6000,-58.3504,252.991,0.737818
223.5000,-58.7247,252.685,0.734088
223.4000,-59.0004,253.957,0.749565
223.3000,-58.6624,253.709,0.746549
223.2000,-59.0942,253.899,0.748863
223.1000,-57.0984,254.442,0.755452
223.0000,-58.3843,254.664,0.758145
222.9000,-58.3835,255.628,0.769814
222.8000,-57.1815,255.673,0.770361
222.7000,-56.4232,255.171,0.764292
222.6000,-62.1861,256.076,0.775218
222.5000,-56.212,256.146,0.776065
222.4000,-58.3911,256.564,0.781105
222.3000,-62.2648,255.852,0.772524
222.2000,-58.0424,256.709,0.782852
222.1000,-59.5403,257.214,0.788932
222.0000,-57.949,257.355,0.79062
221.9000,-59.7312,257.423,0.791437
221.8000,-60.3855,257.339,0.79043
221.7000,-58.19,257.943,0.79768
221.6000,-58.8751,258.026,0.798672
221.5000,-60.5839,259.152,0.812151
221.4000,-58.2862,258.254,0.801415
221.3000,-62.951,258.992,0.810242
221.2000,-58.6482,259.555,0.816967
221.1000,-59.2941,259.685,0.818521
221.0000,-60.6799,260.244,0.825177
220.9000,-59.9498,260.104,0.823504
220.8000,-59.6606,260.048,0.822843
220.7000,-57.0271,260.008,0.82237
220.6000,-60.3449,261.599,0.841275
220.5000,-58.3058,261.599,0.841275
220.4000,-58.0297,261.728,0.842806
220.3000,-60.7751,261.104,0.835401
220.2000,-64.3499,262.209,0.848494
220.1000,-58.8234,262.014,0.846188
220.0000,-60.009,262.145,0.847743
219.9000,-61.6998,263.44,0.863037
219.8000,-60.0941,262.522,0.852192
219.7000,-62.4713,263.43,0.862917
219.6000,-56.5443,263.712,0.866241
219.5000,-60.3208,264.111,0.870934
219.4000,-59.7403,263.669,0.865734
219.3000,-58.2966,263.974,0.869321
219.2000,-58.8038,265.394,0.885988
219.1000,-55.5848,265.115,0.882721
219.0000,-56.8085,265.19,0.883598
218.9000,-56.4264,265.281,0.88466
218.8000,-57.7234,265.577,0.888137
218.7000,-55.5375,266.476,0.898641
218.6000,-57.6619,266.484,0.898733
218.5000,-61.8079,266.348,0.897146
218.4000,-59.4542,266.63,0.900439
218.3000,-56.9665,266.374,0.89745
218.2000,-59.4566,268.101,0.91756
218.1000,-58.3389,267.361,0.908957
218.0000,-60.3053,268.059,0.917073
217.9000,-57.0921,268.836,0.926091
217.8000,-59.1068,268.415,0.921204
217.7000,-57.5868,269.026,0.928297
217.6000,-60.6936,269.126,0.929451
217.5000,-64.1422,270.556,0.945971
217.4000,-62.6286,270.145,0.941227
217.3000,-55.7471,269.95,0.938976
217.2000,-58.2808,271.033,0.951465
217.1000,-58.7462,270.88,0.949704
217.0000,-54.8926,271.814,0.96044
216.9000,-58.2553,271.503,0.956874
216.8000,-56.9197,271.915,0.961598
216.7000,-57.6305,271.818,0.960492
216.6000,-58.7049,273.153,0.975788
216.5000,-56.7982,273.138,0.975619
216.4000,-57.1556,272.504,0.968356
216.3000,-59.554,272.885,0.972716
216.2000,-62.4958,273.524,0.980023
216.1000,-53.166,272.691,0.970497
216.0000,-52.4439,273.493,0.979673
215.9000,-56.0808,274.546,0.99168
215.8000,-58.6145,274.824,0.994852
215.7000,-55.6045,274.55,0.991731
215.6000,-58.0279,275.39,1.00128
215.5000,-62.8654,275.669,1.00444
215.4000,-59.0616,275.747,1.00533
215.3000,-56.1111,276.632,1.01536
215.2000,-59.1249,276.862,1.01796
215.1000,-54.4334,277.214,1.02194
215.0000,-55.8149,277.371,1.02372
214.9000,-59.4322,277.907,1.02977
214.8000,-59.2871,279.148,1.04373
214.7000,-54.5985,278.43,1.03565
214.6000,-58.2657,278.779,1.03958
214.5000,-58.9671,278.366,1.03494
214.4000,-58.1489,279.363,1.04615
214.3000,-57.8589,279.316,1.04561
214.2000,-53.114,280.119,1.05462
214.1000,-60.3245,280.162,1.0551
214.0000,-53.5059,280.952,1.06394
213.9000,-58.2205,282.065,1.07635
213.8000,-56.1122,281.957,1.07515
213.7000,-58.8213,280.975,1.06419
213.6000,-61.3733,282.287,1.07882
213.5000,-58.2553,282.91,1.08575
213.4000,-58.6275,282.846,1.08504
213.3000,-55.3583,284.613,1.10462
213.2000,-60.34,283.063,1.08745
213.1000,-63.9008,283.899,1.09672
213.0000,-60.6852,283.876,1.09647
212.9000,-57.4894,283.144,1.08835
212.8000,-64.6523,284.364,1.10186
212.7000,-56.968,284.674,1.10529
212.6000,-62.6366,285.428,1.11361
212.5000,-60.6443,285.371,1.11298
212.4000,-60.71,286.311,1.12334
212.3000,-58.5933,286.285,1.12305
212.2000,-57.9964,287.786,1.13952
212.1000,-61.2788,287.648,1.13802
212.0000,-59.3043,288.41,1.14635
211.9000,-57.2004,288.897,1.15167
211.8000,-64.1823,289.123,1.15413
211.7000,-60.753,290.055,1.16429
211.6000,-60.8586,290.233,1.16622
211.5000,-59.6843,291.426,1.17917
211.4000,-60.4952,290.217,1.16605
211.3000,-61.065,292.072,1.18617
211.2000,-57.814,292.055,1.18598
211.1000,-63.2621,292.325,1.1889
211.0000,-60.0922,293.023,1.19644
210.9000,-61.0633,293.064,1.19689
210.8000,-58.1341,295.015,1.21786
210.7000,-62.2674,294.627,1.2137
210.6000,-63.8209,294.677,1.21424
210.5000,-64.4442,295.533,1.22342
210.4000,-60.0303,296.306,1.23169
210.3000,-59.675,296.554,1.23434
210.2000,-62.4658,296.921,1.23826
210.1000,-63.5813,298.074,1.25054
210.0000,-62.5354,297.616,1.24567
209.9000,-63.2953,298.783,1.25807
209.8000,-59.9203,299.932,1.27025
209.7000,-63.3738,299.96,1.27055
209.6000,-62.5757,300.786,1.27928
209.5000,-68.3738,302.212,1.29429
209.4000,-63.2395,302.287,1.29508
209.3000,-59.4169,303.099,1.30361
209.2000,-62.2878,303.467,1.30747
209.1000,-64.1416,303.869,1.31168
209.0000,-63.4921,304.412,1.31736
208.9000,-64.1425,305.591,1.32965
208.8000,-61.9652,306.281,1.33683
208.7000,-63.8636,306.725,1.34145
208.6000,-63.894,306.724,1.34143
208.5000,-63.6563,307.371,1.34815
208.4000,-57.0913,308.012,1.35479
208.3000,-59.6236,309.467,1.36981
208.2000,-63.4974,309.224,1.36731
208.1000,-59.2951,310.775,1.38328
208.0000,-61.2764,311.337,1.38905
207.9000,-61.6845,312.82,1.40422
207.8000,-59.9489,312.839,1.40441
207.7000,-65.7374,314.377,1.4201
207.6000,-54.5933,314.549,1.42184
207.5000,-59.0496,314.868,1.42509
207.4000,-59.3701,316.309,1.4397
207.3000,-58.6113,316.62,1.44284
207.2000,-62.0447,318.156,1.45835
207.1000,-58.4202,318.412,1.46093
207.0000,-62.569,319.916,1.47603
206.9000,-55.4031,320.39,1.48078
206.8000,-56.7255,321.035,1.48724
206.7000,-58.6696,322.028,1.49715
206.6000,-52.7539,323.662,1.5134
206.5000,-55.3181,323.33,1.51011
206.4000,-56.9073,325.044,1.5271
206.3000,-51.6794,325.797,1.53454
206.2000,-53.5484,326.979,1.5462
206.1000,-49.8576,327.762,1.5539
206.0000,-52.0127,328.873,1.5648
205.9000,-40.0036,329.802,1.57389
205.8000,-52.0556,330.371,1.57944
205.7000,-45.1377,331.567,1.5911
205.6000,-45.2698,332.853,1.6036
205.5000,-39.1533,333.789,1.61266
205.4000,-43.1382,335.326,1.6275
205.3000,-50.173,335.881,1.63285
205.2000,-43.2038,337.151,1.64506
205.1000,-37.152,338.234,1.65544
205.0000,-35.663,339.757,1.66998
204.9000,-41.5321,339.631,1.66878
204.8000,-45.4564,342.361,1.69473
204.7000,-35.4811,343.762,1.70798
204.6000,-39.8627,344.169,1.71182
204.5000,-35.0244,345.115,1.72073
204.4000,-39.8628,346.585,1.73454
204.3000,-39.282,347.499,1.7431
204.2000,-18.6263,349.011,1.75722
204.1000,-25.8466,350.344,1.76963
204.0000,-27.2046,352.586,1.7904
203.9000,-27.6973,353.119,1.79533
203.8000,-24.6507,354.473,1.80781
203.7000,-30.1393,356.235,1.82399
203.6000,-29.3586,358.386,1.84364
203.5000,-22.8038,359.161,1.8507
203.4000,-24.1777,360.115,1.85937
203.3000,-23.8774,361.446,1.87144
203.2000,-27.1036,362.699,1.88277
203.1000,-23.2773,363.738,1.89214
203.0000,-17.334,365.755,1.91026
202.9000,-15.565,367.534,1.92617
202.8000,-27.4041,367.904,1.92946
202.7000,-22.7489,369.099,1.94011
202.6000,-20.4716,370.947,1.95651
202.5000,-11.105,372.19,1.96751
202.4000,-12.7988,374.6,1.98874
202.3000,-6.92962,375.196,1.99397
202.2000,-5.08624,376.583,2.00612
202.1000,-1.27172,378.814,2.02558
202.0000,-11.4323,381.284,2.04702
201.9000,-2.14372,383.657,2.0675
201.8000,-7.60797,384.516,2.07489
201.7000,-12.1969,386.707,2.09368
201.6000,6.5975,388.889,2.1123
201.5000,3.16432,389.305,2.11584
201.4000,3.28072,391.967,2.13841
201.3000,3.08801,393.863,2.15442
201.2000,11.9663,395.341,2.16685
201.1000,7.55061,397.316,2.18339
201.0000,-0.897769,399.318,2.2001
200.9000,6.83518,400.764,2.21212
200.8000,16.8664,401.819,2.22086
200.7000,-4.26892,403.646,2.23597
200.6000,17.6712,406.182,2.25684
200.5000,17.2066,407.07,2.26412
200.4000,17.1963,411.115,2.29712
200.3000,19.0649,412.191,2.30585
200.2000,12.3507,414.713,2.32624
200.1000,20.4021,416.667,2.34197
200.0000,28.7179,418.566,2.3572
199.9000,27.8534,420.038,2.36896
199.8000,21.1216,423,2.39252
199.7000,19.8033,423.624,2.39747
199.6000,17.9986,426.685,2.42164
199.5000,38.9244,428.281,2.43419
199.4000,26.7917,429.935,2.44715
199.3000,17.6441,431.618,2.4603
199.2000,37.2091,432.55,2.46755
199.1000,32.224,435.286,2.4888
199.0000,28.6703,438.122,2.51069
198.9000,33.7568,439.798,2.52358
198.8000,29.3955,443.825,2.55437
198.7000,31.2743,445.519,2.56725
198.6000,21.0966,448.287,2.58821
198.5000,28.7387,450.23,2.60286
198.4000,32.648,453.507,2.62744
198.3000,23.5113,454.839,2.6374
198.2000,36.7063,456.69,2.65118
198.1000,26.8834,459.154,2.66946
198.0000,27.6999,460.704,2.68092
197.9000,25.3222,463.545,2.70183
197.8000,52.4637,465.605,2.71692
197.7000,33.9599,468.88,2.74081
197.6000,34.443,470.081,2.74954
197.5000,27.0237,472.639,2.76805
197.4000,57.7957,474.884,2.78424
197.3000,39.5541,477.537,2.80328
197.2000,42.8223,479.297,2.81586
197.1000,49.056,481.53,2.83176
197.0000,50.2325,484.96,2.85608
196.9000,39.8142,486.651,2.86801
196.8000,43.9623,489.312,2.88672
196.7000,41.4139,491.927,2.90502
196.6000,33.1968,495.199,2.9278
196.5000,35.1903,497.324,2.94253
196.4000,43.2392,499.877,2.96015
196.3000,31.2962,502.186,2.97603
196.2000,36.7539,504.164,2.98958
196.1000,23.5332,507.985,3.01563
196.0000,31.3522,510.15,3.03031
195.9000,36.9742,512.122,3.04364
195.8000,31.1761,514.952,3.0627
195.7000,38.3333,517.24,3.07804
195.6000,35.9793,519.889,3.09573
195.5000,30.0832,521.952,3.10945
195.4000,38.1288,524.078,3.12354
195.3000,32.0285,525.884,3.13548
195.2000,41.1371,527.685,3.14735
195.1000,35.286,529.164,3.15707
195.0000,39.1374,531.717,3.17379
194.9000,36.0628,533.473,3.18525
194.8000,29.1564,535.371,3.19761
194.7000,40.3723,537.988,3.21458
194.6000,42.1646,539.491,3.2243
194.5000,37.6413,541.69,3.23848
194.4000,31.5821,544.695,3.25777
194.3000,28.6197,546.221,3.26753
194.2000,20.7361,549.069,3.28569
194.1000,38.2951,551.414,3.30058
194.0000,9.41418,552.531,3.30766
193.9000,24.0337,555.566,3.32681
193.8000,43.855,557.326,3.33789
193.7000,32.157,560.088,3.3552
193.6000,27.7832,563.282,3.37513
193.5000,20.6272,563.872,3.3788
193.4000,32.3503,565.957,3.39175
193.3000,32.4984,566.508,3.39516
193.2000,31.8231,568.362,3.40664
193.1000,31.6452,570.8,3.42166
193.0000,39.2933,573.06,3.43556
192.9000,23.0188,574.701,3.44561
192.8000,32.2045,575.938,3.45317
192.7000,33.0354,578.712,3.47008
192.6000,36.7101,580.179,3.479
192.5000,33.9724,583.404,3.49853
192.4000,16.6391,585.017,3.50827
192.3000,28.8904,587.584,3.52371
192.2000,23.9602,588.632,3.53
192.1000,20.327,590.693,3.54234
192.0000,28.9201,592.913,3.55559
191.9000,29.1554,595.05,3.56831
191.8000,13.872,596.637,3.57773
191.7000,16.3775,598.381,3.58805
191.6000,10.832,601.085,3.60402
191.5000,30.4312,601.872,3.60865
191.4000,24.8101,603.977,3.62102
191.3000,11.5059,606.571,3.6362
191.2000,22.022,608.489,3.6474
191.1000,28.0946,610.081,3.65667
191.0000,31.0729,613.808,3.67829
190.9000,3.5613,616.058,3.6913
190.8000,23.7554,618.347,3.70448
190.7000,13.4304,621.4,3.722
190.6000,34.643,623.729,3.73532
190.5000,15.7106,626.345,3.75022
190.4000,10.543,628.6,3.76303
190.3000,12.6997,629.695,3.76924
190.2000,20.7625,632.78,3.78666
190.1000,22.6755,634.25,3.79495
190.0000,16.2419,636.837,3.80948

##### Extended Information
[Comments]
Sample name,SL + BM Additive and Protein
Comment,Additive and Protein 
User,Stacie Lally and Beth Mlinek
Division
Company,Saint Mary's College

[Detailed Information]
Creation date,9/29/2022 1:32 PM

Data array type,Linear data array * 3
Horizontal axis,Wavelength [nm]
Vertical axis(1),CD [mdeg]
Vertical axis(2),HT [V]
Vertical axis(3),Abs
Start,320 nm
End,190 nm
Data interval,0.1 nm
Data points,1301    

[Measurement Information]
Instrument name,J-1500
Model name,J-1500
Serial No.,B051061638

Detector,PM-539
Detector S/N,B051061638
  Lock-in amp.,X mode
  HT volt,Auto

Accessory,PTC-517
Accessory S/N,B026561646
  Temperature,22.36 C
  Control sensor,Holder
  Monitor sensor,Holder

Measurement date,9/29/2022 1:32 PM

CD Overload detect,995
Photometric mode,CD, HT, Abs
Measure range,320 - 190 nm
Data pitch,0.1 nm
CD scale,20 mdeg/0.05 dOD
FL scale,20 mdeg/0.05 dOD
D.I.T.,8 msec
Bandwidth,2.00 nm
Start mode,Immediately
Scanning mode,Continuous
Scanning speed,200 nm/min
Baseline correction,None
Shutter control,Auto
No. of cycle,1/1
N2 Flowmeter,Manual

Solvent,NaPO4 buffer

