TITLE,SL + BM Additive and Protein
DATA TYPE,
ORIGIN,JASCO
OWNER,
DATE,22/09/29
TIME,14:31:34
SPECTROMETER/DATA SYSTEM,
LOCALE,1033
RESOLUTION,
DELTAX,-0.1
XUNITS,NANOMETERS
YUNITS,CD [mdeg]
Y2UNITS,HT [V]
Y3UNITS,ABSORBANCE
FIRSTX,  320.0000
LASTX,  190.0000
NPOINTS,    1301
FIRSTY,     0.36929
MAXY,    55.12242
MINY,   -70.11112
XYDATA
320.0000,0.369292,208.641,0.153374
319.9000,2.14763,208.448,0.15062
319.8000,1.40875,208.93,0.1575
319.7000,2.24146,207.789,0.141178
319.6000,1.88413,207.994,0.144117
319.5000,1.87734,208.146,0.146291
319.4000,0.489165,208.367,0.149453
319.3000,1.65479,208.603,0.152839
319.2000,2.28861,209.089,0.15978
319.1000,1.61326,207.997,0.144166
319.0000,2.32012,208.27,0.148075
318.9000,0.178414,208.195,0.147005
318.8000,1.39856,208.965,0.158001
318.7000,0.897389,208.228,0.147476
318.6000,0.331775,208.234,0.147557
318.5000,1.97503,208.035,0.144701
318.4000,1.58739,208.347,0.149178
318.3000,0.577811,208.427,0.150312
318.2000,3.95438,208.841,0.156238
318.1000,2.04397,209.196,0.161299
318.0000,2.117,208.88,0.156788
317.9000,2.05136,208.497,0.151317
317.8000,2.25735,208.774,0.155284
317.7000,1.41623,208.072,0.145237
317.6000,0.618319,208.368,0.149469
317.5000,0.916918,208.601,0.152807
317.4000,1.54212,208.361,0.149372
317.3000,0.7788,208.674,0.153843
317.2000,0.555383,208.628,0.153195
317.1000,-0.223247,207.752,0.140658
317.0000,1.03487,208.401,0.14994
316.9000,0.986425,208.488,0.151187
316.8000,1.34747,208.355,0.149291
316.7000,1.76267,208.282,0.148238
316.6000,2.16177,208.379,0.149632
316.5000,1.99735,208.161,0.146519
316.4000,2.03375,208.113,0.145821
316.3000,3.22504,208.108,0.145756
316.2000,2.52029,208.567,0.152321
316.1000,1.7432,208.509,0.151495
316.0000,3.3195,207.725,0.140268
315.9000,0.533334,207.773,0.14095
315.8000,2.44028,208.782,0.155397
315.7000,1.32556,208.598,0.152758
315.6000,2.29249,208.428,0.150329
315.5000,2.48719,208.084,0.145415
315.4000,1.65111,207.824,0.141681
315.3000,2.46301,207.87,0.142347
315.2000,2.23596,208.159,0.146486
315.1000,3.35142,208.787,0.155462
315.0000,0.618141,208.241,0.147654
314.9000,2.21306,208.55,0.152078
314.8000,0.921632,208.108,0.145756
314.7000,2.64445,208.629,0.153212
314.6000,1.45097,208.286,0.148302
314.5000,2.43268,208.302,0.148529
314.4000,2.66398,207.958,0.143598
314.3000,0.919055,207.899,0.142753
314.2000,0.460013,207.921,0.143078
314.1000,2.58588,208.785,0.155429
314.0000,1.06531,208.35,0.14921
313.9000,3.27505,208.492,0.151252
313.8000,1.46794,208.152,0.146389
313.7000,2.55796,207.368,0.135146
313.6000,-0.594558,208.004,0.144263
313.5000,2.64346,208.155,0.146421
313.4000,1.26258,208.879,0.156772
313.3000,2.09745,208.699,0.154199
313.2000,2.34577,208.132,0.146097
313.1000,1.25314,208.924,0.157419
313.0000,2.68586,207.186,0.132525
312.9000,0.425421,208.531,0.151803
312.8000,2.26626,208.169,0.146632
312.7000,1.12057,207.389,0.135439
312.6000,0.919665,207.755,0.14069
312.5000,1.60853,207.9,0.14277
312.4000,2.25241,207.763,0.140804
312.3000,1.9621,208.222,0.147378
312.2000,1.51436,207.764,0.14082
312.1000,1.49122,208.228,0.147476
312.0000,2.97851,207.339,0.134723
311.9000,1.96558,208.178,0.146762
311.8000,2.19832,209.053,0.159262
311.7000,2.61373,207.389,0.135439
311.6000,0.791744,207.499,0.137017
311.5000,1.41146,208.457,0.15075
311.4000,1.77498,208.413,0.150118
311.3000,0.542165,207.874,0.142396
311.2000,2.08411,208.036,0.144718
311.1000,3.72746,207.806,0.141421
311.0000,1.09684,207.968,0.143744
310.9000,1.28035,208.521,0.151657
310.8000,0.627526,207.355,0.134951
310.7000,0.300029,207.892,0.142656
310.6000,1.44698,208.158,0.14647
310.5000,1.00069,208.241,0.147654
310.4000,-0.432594,208.212,0.147248
310.3000,1.39394,207.912,0.142948
310.2000,1.18669,207.908,0.142883
310.1000,0.85548,207.454,0.136382
310.0000,0.853664,207.882,0.14251
309.9000,2.93091,208.788,0.155478
309.8000,0.69254,208.273,0.148108
309.7000,-0.37117,207.8,0.14134
309.6000,0.28275,207.759,0.140755
309.5000,1.75851,208.629,0.153212
309.4000,0.372667,208.299,0.148481
309.3000,2.76452,207.853,0.142104
309.2000,1.69331,209.142,0.160523
309.1000,1.95754,208.379,0.149632
309.0000,1.60802,208.208,0.147183
308.9000,3.02622,208.064,0.145123
308.8000,0.446994,208.7,0.154215
308.7000,1.03642,208.679,0.153924
308.6000,2.31973,207.616,0.138708
308.5000,1.26927,207.681,0.139634
308.4000,-0.087145,208.181,0.146794
308.3000,0.712406,207.538,0.137586
308.2000,1.7978,207.996,0.14415
308.1000,2.83019,207.074,0.130913
308.0000,2.03298,208.183,0.146827
307.9000,2.47221,208.114,0.145837
307.8000,-0.406068,207.124,0.131629
307.7000,1.5498,207.975,0.143841
307.6000,1.18174,207.616,0.138708
307.5000,0.987634,207.954,0.143549
307.4000,1.82667,207.477,0.136708
307.3000,1.78626,207.614,0.138675
307.2000,2.33526,208.558,0.152192
307.1000,1.55133,207.458,0.136431
307.0000,1.306,207.695,0.139829
306.9000,0.963456,207.741,0.140495
306.8000,2.10522,207.286,0.133958
306.7000,1.2146,207.408,0.135715
306.6000,0.544503,208.302,0.148529
306.5000,1.59134,207.817,0.141584
306.4000,1.92076,207.189,0.132574
306.3000,1.11547,207.551,0.137765
306.2000,1.89682,208.441,0.150523
306.1000,-0.250976,208.3,0.148497
306.0000,0.291723,208.098,0.14561
305.9000,2.02422,207.185,0.132509
305.8000,1.44248,207.68,0.139618
305.7000,1.78166,208.248,0.147751
305.6000,0.898115,208.542,0.151965
305.5000,2.10226,207.226,0.133095
305.4000,0.578627,207.316,0.134397
305.3000,2.42666,208.415,0.15015
305.2000,0.5528,207.962,0.143663
305.1000,0.441004,207.485,0.136822
305.0000,-0.391711,207.92,0.143062
304.9000,0.438194,207.411,0.135764
304.8000,2.80616,208.286,0.148302
304.7000,0.534524,207.857,0.142152
304.6000,1.9014,207.722,0.140219
304.5000,0.634122,208.029,0.14462
304.4000,0.198639,207.87,0.142347
304.3000,3.41698,206.805,0.12705
304.2000,0.779445,208.416,0.150167
304.1000,1.94729,207.692,0.139797
304.0000,3.80951,206.525,0.123019
303.9000,1.20143,208.13,0.146064
303.8000,1.58952,207.942,0.14337
303.7000,2.18075,207.632,0.138935
303.6000,1.82788,207.773,0.14095
303.5000,1.07047,208.355,0.149291
303.4000,0.721347,207.663,0.139374
303.3000,0.377786,207.783,0.141097
303.2000,3.11887,207.633,0.138952
303.1000,1.75573,208.675,0.153859
303.0000,1.78661,208.02,0.14449
302.9000,0.189648,207.962,0.143663
302.8000,0.617066,207.723,0.140236
302.7000,1.14164,208.335,0.149
302.6000,0.812526,207.283,0.133925
302.5000,1.27326,207.756,0.140707
302.4000,0.750827,207.726,0.140284
302.3000,3.15696,207.984,0.143971
302.2000,0.526483,208.047,0.14488
302.1000,3.31542,207.098,0.131255
302.0000,3.08502,208.107,0.14574
301.9000,2.29378,207.779,0.141031
301.8000,3.12743,207.888,0.142607
301.7000,0.586065,207.784,0.141113
301.6000,2.07599,207.741,0.140495
301.5000,1.1907,208.608,0.152904
301.4000,1.68864,206.957,0.129234
301.3000,0.717381,208.079,0.145334
301.2000,1.68492,208.699,0.154199
301.1000,2.66496,206.838,0.127522
301.0000,2.03631,207.837,0.141876
300.9000,3.10714,208.109,0.145772
300.8000,3.48644,207.07,0.130864
300.7000,0.00649601,207.192,0.132606
300.6000,2.2691,206.936,0.128925
300.5000,1.44943,208.098,0.14561
300.4000,1.3598,207.454,0.136382
300.3000,0.48228,207.374,0.135227
300.2000,2.21477,208.135,0.146145
300.1000,1.32758,207.36,0.135032
300.0000,0.448392,207.979,0.143906
299.9000,2.74998,207.893,0.142672
299.8000,2.8395,207.68,0.139618
299.7000,1.49277,207.122,0.131613
299.6000,0.461537,207.888,0.142607
299.5000,1.94257,207.18,0.132444
299.4000,1.40508,206.84,0.127555
299.3000,2.65898,207.993,0.144101
299.2000,2.07653,207.403,0.13565
299.1000,1.42803,206.953,0.129169
299.0000,-0.517072,208.064,0.145123
298.9000,3.22407,207.213,0.132916
298.8000,-0.115274,207.295,0.134088
298.7000,2.28822,207.154,0.132069
298.6000,1.35499,207.088,0.131124
298.5000,1.48152,207.094,0.131206
298.4000,2.16539,206.857,0.1278
298.3000,1.38211,206.974,0.129478
298.2000,0.582559,206.795,0.126903
298.1000,0.782155,207.375,0.135243
298.0000,0.774305,207.649,0.139179
297.9000,1.95335,206.898,0.128386
297.8000,2.01669,207.611,0.138626
297.7000,1.94216,206.528,0.123052
297.6000,1.62348,207.048,0.130538
297.5000,0.849014,207.172,0.132329
297.4000,0.591562,207.91,0.142916
297.3000,3.74021,207.05,0.13057
297.2000,0.423012,207.624,0.138821
297.1000,1.27132,206.966,0.129365
297.0000,3.23053,207.333,0.134641
296.9000,1.32567,207.333,0.134641
296.8000,1.708,207.256,0.133534
296.7000,1.60397,206.564,0.123574
296.6000,0.509384,207.007,0.129951
296.5000,0.218316,207.271,0.133746
296.4000,2.0118,206.993,0.129756
296.3000,1.97714,206.939,0.128973
296.2000,3.3198,207.774,0.140967
296.1000,1.59471,207.595,0.138399
296.0000,1.17321,207.501,0.137049
295.9000,1.58262,207.041,0.13044
295.8000,1.96546,206.783,0.126723
295.7000,0.502307,207.296,0.134104
295.6000,1.78009,207.037,0.130391
295.5000,3.4132,206.924,0.128762
295.4000,2.90637,206.895,0.128337
295.3000,0.920251,206.358,0.120602
295.2000,1.4799,206.035,0.115943
295.1000,1.57662,207.423,0.135927
295.0000,2.04027,206.523,0.122986
294.9000,1.04248,207.047,0.130521
294.8000,-0.656752,206.871,0.127995
294.7000,1.63197,207.81,0.141486
294.6000,0.617582,207.084,0.131059
294.5000,2.41295,207.674,0.139537
294.4000,3.23116,207.512,0.137212
294.3000,0.500066,208.211,0.147232
294.2000,0.520312,207.513,0.137228
294.1000,0.25751,207.278,0.133844
294.0000,2.12726,206.827,0.127359
293.9000,1.71632,206.716,0.125761
293.8000,4.03143,206.917,0.128663
293.7000,1.07478,207.299,0.134153
293.6000,1.033,207.552,0.137781
293.5000,-0.645489,208.506,0.151447
293.4000,0.916424,207.791,0.14121
293.3000,0.335437,207.366,0.135113
293.2000,1.10094,207.57,0.138041
293.1000,1.73998,207.666,0.139423
293.0000,0.0577601,207.249,0.133437
292.9000,1.12123,206.92,0.128696
292.8000,2.86579,207.083,0.131043
292.7000,3.25854,207.371,0.135178
292.6000,2.4329,206.638,0.124635
292.5000,0.0847832,207.019,0.13013
292.4000,2.71599,206.871,0.127995
292.3000,0.802964,206.747,0.126217
292.2000,0.559398,206.868,0.127946
292.1000,0.465607,206.701,0.125549
292.0000,1.59939,207.249,0.133437
291.9000,3.38066,207.414,0.135797
291.8000,1.45921,206.531,0.1231
291.7000,1.45553,206.607,0.124194
291.6000,1.04623,206.885,0.128191
291.5000,1.61159,206.251,0.119066
291.4000,1.54055,206.312,0.119948
291.3000,2.62981,206.495,0.122578
291.2000,2.97346,207.52,0.137326
291.1000,0.961344,207.469,0.136594
291.0000,0.819831,207.101,0.131304
290.9000,1.99175,207.524,0.137374
290.8000,3.01064,205.904,0.114061
290.7000,2.07977,206.453,0.121974
290.6000,1.84214,207.163,0.132199
290.5000,3.18746,206.735,0.126038
290.4000,0.741015,206.781,0.126707
290.3000,1.98607,208.365,0.149437
290.2000,1.30938,206.709,0.125663
290.1000,2.13627,207.146,0.131955
290.0000,-0.575108,207.168,0.132265
289.9000,0.869073,207.246,0.133388
289.8000,2.8749,207.3,0.134169
289.7000,3.08628,207.748,0.140593
289.6000,1.3075,207.678,0.139586
289.5000,0.514579,208.263,0.147978
289.4000,0.542907,206.96,0.129283
289.3000,0.991849,207.688,0.139732
289.2000,2.46351,207.362,0.135048
289.1000,1.32242,207.888,0.142607
289.0000,1.8365,207.622,0.138789
288.9000,0.246975,208.009,0.144328
288.8000,0.527904,207.699,0.139894
288.7000,0.20573,207.476,0.136691
288.6000,0.767142,207.554,0.137814
288.5000,0.812618,207.212,0.132899
288.4000,1.38489,207.296,0.134104
288.3000,1.6967,207.74,0.140479
288.2000,1.03707,207.832,0.141795
288.1000,2.06469,208.278,0.148189
288.0000,2.98995,206.967,0.129381
287.9000,1.62569,207.962,0.143663
287.8000,1.56914,207.26,0.133583
287.7000,1.6766,207.085,0.131075
287.6000,1.53416,207.814,0.141535
287.5000,1.8603,207.391,0.135471
287.4000,2.05941,207.965,0.143711
287.3000,0.815462,207.977,0.143873
287.2000,-0.199689,208.38,0.149648
287.1000,2.08461,207.303,0.134202
287.0000,1.37024,207.943,0.143386
286.9000,0.907851,207.79,0.141194
286.8000,0.447076,207.809,0.14147
286.7000,0.993651,207.052,0.130603
286.6000,1.9954,208.423,0.150264
286.5000,2.26151,207.554,0.137814
286.4000,1.01802,207.79,0.141194
286.3000,0.548097,208.084,0.145415
286.2000,2.81204,207.849,0.142039
286.1000,1.83106,207.479,0.13674
286.0000,0.177248,207.63,0.138903
285.9000,1.3723,207.808,0.141454
285.8000,-1.30091,207.694,0.139813
285.7000,0.583614,207.414,0.135797
285.6000,1.76234,208.116,0.14587
285.5000,1.32064,207.502,0.137066
285.4000,2.7559,208.103,0.145675
285.3000,1.61756,208.375,0.149567
285.2000,0.663631,208.395,0.149859
285.1000,1.35964,207.629,0.138886
285.0000,1.79988,207.13,0.131727
284.9000,1.10754,207.942,0.14337
284.8000,0.873548,207.64,0.139049
284.7000,0.831365,208.292,0.148384
284.6000,1.5501,207.975,0.143841
284.5000,2.26863,207.572,0.138074
284.4000,1.3518,207.683,0.139667
284.3000,2.01352,207.769,0.140902
284.2000,0.466486,208.694,0.154135
284.1000,1.1504,207.652,0.139212
284.0000,1.08438,208.345,0.149145
283.9000,-0.145107,207.7,0.139911
283.8000,1.18744,207.756,0.140707
283.7000,2.10127,207.852,0.142087
283.6000,1.11969,207.411,0.135764
283.5000,0.622723,207.92,0.143062
283.4000,2.6598,207.584,0.138236
283.3000,1.45585,207.604,0.138529
283.2000,1.50987,207.399,0.135585
283.1000,0.808145,208.172,0.146665
283.0000,1.30319,207.822,0.141649
282.9000,0.329078,208.321,0.148805
282.8000,0.431318,207.724,0.140252
282.7000,2.42734,208.223,0.147394
282.6000,-0.715709,207.624,0.138821
282.5000,2.12198,208.454,0.150701
282.4000,0.496832,207.874,0.142396
282.3000,0.739802,208.273,0.148108
282.2000,3.38598,207.46,0.136464
282.1000,1.42045,208.808,0.155769
282.0000,0.365263,207.963,0.143679
281.9000,0.262945,207.519,0.137309
281.8000,1.16793,208.261,0.147946
281.7000,0.818156,208.317,0.14874
281.6000,0.636714,208.284,0.14827
281.5000,1.08531,207.763,0.140804
281.4000,1.42815,206.727,0.125924
281.3000,1.38606,208.038,0.14475
281.2000,-0.120844,208.244,0.147703
281.1000,-0.411492,207.711,0.140057
281.0000,1.07612,207.752,0.140658
280.9000,0.856869,207.153,0.132053
280.8000,-0.967016,207.269,0.133713
280.7000,0.310729,208.063,0.145107
280.6000,1.54758,207.444,0.136236
280.5000,-0.583399,207.714,0.140105
280.4000,1.01087,208.258,0.147897
280.3000,-1.49331,208.009,0.144328
280.2000,2.26109,207.856,0.142136
280.1000,1.66369,207.927,0.143159
280.0000,0.606396,208.242,0.14767
279.9000,2.06439,207.798,0.141308
279.8000,0.691475,208.028,0.144604
279.7000,2.42493,207.647,0.139147
279.6000,2.28298,207.854,0.14212
279.5000,1.01205,207.914,0.14298
279.4000,2.52588,208.013,0.144393
279.3000,1.56692,207.796,0.141275
279.2000,-0.0571322,208.226,0.147443
279.1000,-0.967962,207.948,0.143468
279.0000,1.59951,207.577,0.138139
278.9000,-0.519234,207.585,0.138252
278.8000,2.37191,208.345,0.149145
278.7000,1.78177,207.661,0.139342
278.6000,1.55609,208.311,0.148659
278.5000,1.00743,207.386,0.135406
278.4000,-0.442206,207.908,0.142883
278.3000,0.759458,207.714,0.140105
278.2000,2.32021,207.733,0.140382
278.1000,0.13523,208.209,0.1472
278.0000,0.273487,208.239,0.147622
277.9000,0.999574,207.9,0.14277
277.8000,-1.16657,208.348,0.149194
277.7000,-0.19587,208.156,0.146437
277.6000,2.55192,208.3,0.148497
277.5000,3.22531,207.698,0.139878
277.4000,1.10522,207.641,0.139065
277.3000,2.37374,208.377,0.149599
277.2000,1.11406,208.362,0.149388
277.1000,2.70113,207.662,0.139358
277.0000,-0.510395,207.708,0.140024
276.9000,2.79585,208.27,0.148075
276.8000,1.13345,208.113,0.145821
276.7000,1.37793,207.749,0.140609
276.6000,0.623841,208.435,0.150426
276.5000,1.52914,207.897,0.142737
276.4000,1.2374,207.726,0.140284
276.3000,1.24273,207.624,0.138821
276.2000,2.83524,208.378,0.149615
276.1000,-1.37011,207.631,0.138919
276.0000,1.411,208.234,0.147557
275.9000,1.71957,207.879,0.142477
275.8000,0.606372,207.518,0.137293
275.7000,1.40437,207.892,0.142656
275.6000,1.23367,207.333,0.134641
275.5000,2.26564,207.334,0.134658
275.4000,1.60123,208.027,0.144588
275.3000,2.49243,207.628,0.13887
275.2000,0.5754,208.22,0.147362
275.1000,2.45727,207.648,0.139163
275.0000,1.17834,208.097,0.145594
274.9000,0.417937,208.336,0.149016
274.8000,1.19395,207.929,0.143192
274.7000,2.87692,208.225,0.147427
274.6000,1.56296,207.607,0.138578
274.5000,1.23974,208.504,0.151414
274.4000,2.63689,207.825,0.141698
274.3000,2.11632,208.367,0.149453
274.2000,1.28518,208.534,0.151851
274.1000,1.69052,208.293,0.1484
274.0000,1.55809,207.948,0.143468
273.9000,1.3544,208.256,0.147865
273.8000,0.529149,208.499,0.151349
273.7000,2.72027,208.486,0.151155
273.6000,0.39217,207.786,0.141145
273.5000,-0.783524,208.415,0.15015
273.4000,1.27244,207.752,0.140658
273.3000,-0.446485,208.291,0.148367
273.2000,1.94397,208.339,0.149064
273.1000,0.223201,208.241,0.147654
273.0000,0.536276,207.2,0.13272
272.9000,1.65619,208.81,0.155785
272.8000,0.938039,208.58,0.152499
272.7000,0.55908,207.219,0.132997
272.6000,1.02587,208.341,0.149081
272.5000,2.27816,208.56,0.152224
272.4000,-0.0442048,209.014,0.158696
272.3000,0.437474,208.109,0.145772
272.2000,1.10856,207.921,0.143078
272.1000,-0.51461,209.263,0.162251
272.0000,0.446784,208.437,0.150458
271.9000,0.785013,208.521,0.151657
271.8000,2.19361,208.376,0.149583
271.7000,1.55127,208.203,0.147119
271.6000,0.416559,208.423,0.150264
271.5000,0.841464,207.883,0.142526
271.4000,1.91621,208.022,0.144523
271.3000,-0.45173,208.68,0.15394
271.2000,-0.788751,208.274,0.148124
271.1000,1.50429,208.522,0.151673
271.0000,1.26427,208.516,0.151592
270.9000,1.67221,208.303,0.148546
270.8000,2.97812,208.441,0.150523
270.7000,1.82385,208.371,0.149518
270.6000,0.0392687,208.181,0.146794
270.5000,0.0538455,208.588,0.152613
270.4000,2.19236,208.687,0.154037
270.3000,1.49483,208.862,0.15653
270.2000,0.350895,208.719,0.154491
270.1000,4.20094,208.355,0.149291
270.0000,2.01008,208.746,0.154879
269.9000,1.10282,208.524,0.151706
269.8000,1.71646,208.524,0.151706
269.7000,1.19427,208.523,0.15169
269.6000,1.7816,208.487,0.151171
269.5000,-0.169148,208.588,0.152613
269.4000,1.16002,209.074,0.159553
269.3000,3.2642,207.691,0.13978
269.2000,1.21962,207.227,0.133111
269.1000,0.760656,208.728,0.15462
269.0000,-0.727296,209.156,0.160733
268.9000,-0.953719,208.394,0.149842
268.8000,-0.731326,209.077,0.159602
268.7000,0.393204,208.753,0.154976
268.6000,-0.332783,208.491,0.151236
268.5000,0.13485,208.48,0.151074
268.4000,0.00431838,208.823,0.155979
268.3000,1.45386,208.376,0.149583
268.2000,-0.429403,208.65,0.153503
268.1000,2.43015,208.839,0.156206
268.0000,1.97718,208.904,0.157128
267.9000,1.27837,208.973,0.158114
267.8000,1.10695,208.828,0.156044
267.7000,1.44928,208.67,0.153795
267.6000,-0.267355,209.441,0.164786
267.5000,0.897643,209.533,0.166093
267.4000,0.217901,209.184,0.161121
267.3000,1.64312,209.398,0.164173
267.2000,0.473226,208.668,0.153762
267.1000,0.625053,208.904,0.157128
267.0000,-1.20749,208.841,0.156238
266.9000,2.02135,209.138,0.160474
266.8000,0.595081,209.251,0.16209
266.7000,1.13064,208.642,0.15339
266.6000,0.422227,209.902,0.171349
266.5000,0.371025,208.874,0.156707
266.4000,0.32238,209.344,0.163414
266.3000,1.43707,209.16,0.160781
266.2000,1.09472,209.376,0.163866
266.1000,-0.574545,208.592,0.152677
266.0000,1.46593,208.626,0.153163
265.9000,1.34685,209.56,0.166481
265.8000,0.243242,209.018,0.158761
265.7000,1.11191,209.136,0.160442
265.6000,0.590134,208.995,0.158438
265.5000,0.474505,208.746,0.154879
265.4000,-0.250067,209.443,0.164819
265.3000,1.37296,209.096,0.159876
265.2000,1.8642,209.118,0.160184
265.1000,0.314293,209.516,0.165851
265.0000,0.82729,208.857,0.156465
264.9000,0.397094,209.561,0.166497
264.8000,0.403638,209.02,0.158794
264.7000,1.31415,209.611,0.167207
264.6000,1.44573,209.738,0.169012
264.5000,1.52178,209.874,0.170946
264.4000,-0.0635685,209.552,0.166368
264.3000,0.936158,209.716,0.168706
264.2000,0.0285675,209.697,0.168432
264.1000,0.277438,209.387,0.164028
264.0000,3.17449,210.059,0.173588
263.9000,0.0840513,209.52,0.165916
263.8000,0.648596,210.268,0.176549
263.7000,1.86231,209.842,0.170495
263.6000,-0.127754,210.36,0.177852
263.5000,0.972165,209.255,0.162138
263.4000,1.03124,209.244,0.161977
263.3000,1.94643,209.471,0.165222
263.2000,-0.0827569,209.589,0.1669
263.1000,0.784297,209.633,0.167529
263.0000,-0.227458,209.837,0.170431
262.9000,1.51643,209.665,0.16798
262.8000,1.2661,210.583,0.181019
262.7000,0.549488,209.586,0.166851
262.6000,0.537462,210.288,0.176839
262.5000,1.45511,210.218,0.175841
262.4000,-0.400055,209.768,0.169448
262.3000,-1.07737,210.161,0.175037
262.2000,0.554651,210.303,0.177048
262.1000,-0.69598,210.467,0.17938
262.0000,0.702468,209.93,0.171752
261.9000,1.39872,210.653,0.182015
261.8000,-1.01656,209.837,0.170431
261.7000,1.59206,210.338,0.177546
261.6000,2.75529,210.053,0.173491
261.5000,1.54024,210.518,0.180103
261.4000,0.933572,210.385,0.178206
261.3000,0.608452,210.422,0.178736
261.2000,1.78045,210.016,0.172976
261.1000,0.372641,210.551,0.180569
261.0000,0.820591,210.698,0.182657
260.9000,0.750718,210.932,0.185964
260.8000,1.37244,210.462,0.179299
260.7000,1.42474,210.379,0.178125
260.6000,2.07132,210.803,0.184135
260.5000,0.391186,210.837,0.184616
260.4000,1.32141,209.423,0.164528
260.3000,1.78858,211.105,0.188419
260.2000,0.513296,210.769,0.183653
260.1000,0.218119,211.637,0.195931
260.0000,0.517305,211.147,0.189012
259.9000,1.52951,210.283,0.176758
259.8000,0.912728,211.331,0.191608
259.7000,2.63666,210.258,0.176404
259.6000,1.83786,210.613,0.181453
259.5000,-0.737614,210.808,0.184215
259.4000,1.19065,210.956,0.186301
259.3000,0.557712,210.632,0.18171
259.2000,2.45577,210.949,0.186205
259.1000,1.26527,210.038,0.173282
259.0000,-0.0941795,210.576,0.180922
258.9000,0.900185,210.556,0.180633
258.8000,2.44597,210.67,0.182256
258.7000,1.66065,210.051,0.173475
258.6000,1.12945,210.521,0.180135
258.5000,3.36332,211.506,0.19409
258.4000,1.6677,211.103,0.188386
258.3000,0.769686,211.688,0.196651
258.2000,-0.889267,211.831,0.198682
258.1000,-0.122747,211.434,0.193066
258.0000,-0.0171145,210.518,0.180103
257.9000,0.728197,211.148,0.189028
257.8000,0.262795,210.994,0.186847
257.7000,0.700017,211.598,0.195387
257.6000,1.09567,211.256,0.19055
257.5000,0.950665,211.936,0.200153
257.4000,-0.913742,211.935,0.200137
257.3000,-0.467948,211.238,0.190294
257.2000,0.602178,211.214,0.189958
257.1000,2.0351,210.83,0.18452
257.0000,0.460421,211.629,0.195819
256.9000,-0.630581,211.814,0.198443
256.8000,0.519753,212.196,0.203827
256.7000,0.972039,212.142,0.203061
256.6000,1.06327,211.604,0.195467
256.5000,0.625138,211.775,0.197883
256.4000,0.942581,211.601,0.195435
256.3000,-0.278021,211.674,0.196459
256.2000,2.11628,212.122,0.202773
256.1000,-1.652,211.717,0.197067
256.0000,0.275145,211.097,0.188306
255.9000,2.19025,211.783,0.197995
255.8000,0.109863,211.94,0.200217
255.7000,1.53621,211.233,0.19023
255.6000,0.616715,210.718,0.18293
255.5000,2.05631,212.149,0.203157
255.4000,-1.1787,212.347,0.20595
255.3000,0.52092,211.617,0.195659
255.2000,0.996965,211.979,0.20076
255.1000,-0.0806342,211.601,0.195435
255.0000,0.520222,212.034,0.201544
254.9000,2.26122,212.49,0.207961
254.8000,1.98554,211.926,0.200009
254.7000,2.21116,211.631,0.195851
254.6000,0.975042,212.043,0.201671
254.5000,0.884335,212.346,0.205935
254.4000,1.28506,212.478,0.207801
254.3000,1.23294,212.663,0.2104
254.2000,1.75499,212.483,0.207865
254.1000,0.607481,212.219,0.204147
254.0000,1.26484,212.61,0.209651
253.9000,-0.54692,212.262,0.204753
253.8000,1.00767,212.57,0.209093
253.7000,0.00654845,212.393,0.206605
253.6000,2.29716,212.061,0.201927
253.5000,1.74838,212.562,0.208981
253.4000,0.626858,212.211,0.204035
253.3000,2.35497,212.092,0.202358
253.2000,1.60107,212.686,0.210719
253.1000,1.18251,213.297,0.219298
253.0000,0.315127,213.223,0.218265
252.9000,0.703533,213.213,0.218122
252.8000,0.534024,213.106,0.216626
252.7000,-0.488138,212.31,0.205424
252.6000,-0.0206761,212.58,0.209236
252.5000,2.37039,213.438,0.221285
252.4000,-0.125303,212.625,0.209858
252.3000,1.59504,212.653,0.210257
252.2000,1.07728,213.146,0.217183
252.1000,0.182672,212.296,0.205232
252.0000,1.14637,212.528,0.208503
251.9000,-0.711443,212.889,0.21357
251.8000,-0.0994925,213.672,0.224557
251.7000,0.196601,213.644,0.224176
251.6000,0.249923,213.332,0.219791
251.5000,0.270223,213.742,0.225542
251.4000,0.152981,213.206,0.218026
251.3000,-0.346034,212.328,0.205679
251.2000,0.0358342,213.921,0.228049
251.1000,-0.600394,213.079,0.216245
251.0000,-0.333886,213.42,0.221031
250.9000,1.005,213.527,0.222525
250.8000,0.053488,214.304,0.233405
250.7000,1.2379,213.546,0.222794
250.6000,-1.18314,212.919,0.214
250.5000,1.12347,212.883,0.21349
250.4000,1.61077,213.724,0.225288
250.3000,1.54468,214.261,0.232804
250.2000,-0.57769,213.078,0.216229
250.1000,-0.228093,213.512,0.222318
250.0000,0.0142808,214.134,0.231029
249.9000,0.692682,213.72,0.22524
249.8000,2.10256,214.12,0.230839
249.7000,1.3843,213.47,0.22173
249.6000,1.96212,213.542,0.222747
249.5000,1.265,213.466,0.221682
249.4000,1.23097,214.664,0.238438
249.3000,-0.608961,213.701,0.22497
249.2000,0.62336,213.393,0.22065
249.1000,0.114502,214.092,0.230443
249.0000,1.34859,214.081,0.230284
248.9000,1.0662,214.031,0.229587
248.8000,-0.338406,214.052,0.229888
248.7000,-1.20924,214.174,0.231584
248.6000,0.731674,214.354,0.234102
248.5000,-0.251589,214.57,0.237125
248.4000,2.02601,213.775,0.226002
248.3000,0.164119,214.018,0.229412
248.2000,-1.93136,214.184,0.231726
248.1000,1.12454,215.309,0.247427
248.0000,-0.0361058,213.65,0.224256
247.9000,1.05353,214.583,0.237299
247.8000,-0.0028969,214.451,0.235464
247.7000,-1.58438,213.939,0.228302
247.6000,-0.648163,213.869,0.227319
247.5000,-0.686782,214.597,0.237505
247.4000,0.460575,214.473,0.235765
247.3000,-1.12222,214.732,0.239387
247.2000,1.41945,214.031,0.229587
247.1000,0.627189,214.702,0.23896
247.0000,-1.08225,214.442,0.235337
246.9000,0.43971,214.895,0.241664
246.8000,0.070814,215.434,0.249162
246.7000,-0.609477,214.788,0.240162
246.6000,-0.417296,215.711,0.253023
246.5000,-1.14117,214.993,0.243022
246.4000,-0.323381,215.248,0.246574
246.3000,-1.24863,214.759,0.239767
246.2000,-1.6329,215.434,0.249162
246.1000,0.512679,215.679,0.252582
246.0000,-1.62693,215.095,0.244443
245.9000,-2.2459,215.304,0.247363
245.8000,-2.72447,215.15,0.245217
245.7000,-1.387,215.285,0.247095
245.6000,0.354014,215.183,0.245675
245.5000,-0.416618,215.285,0.247095
245.4000,-1.4148,215.518,0.250344
245.3000,-2.58449,215.704,0.252928
245.2000,-2.15371,215.029,0.243527
245.1000,0.178533,215.482,0.249839
245.0000,0.748201,215.73,0.253291
244.9000,1.02226,215.437,0.249209
244.8000,0.124378,216.55,0.264661
244.7000,-1.42586,215.882,0.255401
244.6000,-1.68515,215.426,0.249051
244.5000,-0.929622,215.906,0.255731
244.4000,-2.58467,215.172,0.245517
244.3000,-1.66292,215.538,0.250612
244.2000,-1.25339,215.917,0.255889
244.1000,-1.56401,215.831,0.254692
244.0000,-1.20508,215.781,0.253999
243.9000,-1.86939,216.205,0.259885
243.8000,-0.560511,216.284,0.260985
243.7000,-1.24693,215.573,0.251101
243.6000,-4.14134,216.985,0.270686
243.5000,-2.90613,216.734,0.26722
243.4000,-0.992185,216.764,0.267628
243.3000,-1.88828,215.969,0.256613
243.2000,-3.26882,216.335,0.261692
243.1000,-2.36346,216.471,0.263578
243.0000,-3.6315,217.238,0.274196
242.9000,-3.98785,216.746,0.267377
242.8000,-3.29944,216.831,0.268553
242.7000,-1.77627,216.519,0.264237
242.6000,-2.67955,218.208,0.287577
242.5000,-2.42355,217.219,0.27393
242.4000,-2.1478,217.356,0.275824
242.3000,-1.42744,217.484,0.277593
242.2000,-4.64871,217.342,0.27562
242.1000,-2.4187,217.705,0.280643
242.0000,-4.33546,217.606,0.279266
241.9000,-2.98409,218.272,0.288451
241.8000,-4.29735,217.672,0.280189
241.7000,-4.40391,218.189,0.287312
241.6000,-5.38821,217.709,0.280689
241.5000,-4.96116,218.346,0.289465
241.4000,-3.00038,218.399,0.290198
241.3000,-5.8982,218.366,0.289745
241.2000,-5.10608,219.094,0.299759
241.1000,-3.877,218.233,0.28792
241.0000,-5.39952,218.934,0.29755
240.9000,-4.53536,219.293,0.30248
240.8000,-5.92196,218.885,0.296881
240.7000,-8.25004,219.142,0.300412
240.6000,-5.02937,219.337,0.303086
240.5000,-4.21749,219.088,0.299666
240.4000,-7.14138,219.611,0.306844
240.3000,-6.51738,218.401,0.290229
240.2000,-4.89521,220.771,0.322704
240.1000,-4.142,219.303,0.30262
240.0000,-6.54989,220.374,0.317275
239.9000,-4.83704,219.157,0.300614
239.8000,-5.70596,220.075,0.313187
239.7000,-8.23343,219.858,0.310226
239.6000,-7.90462,220.485,0.318791
239.5000,-8.24323,220.256,0.315665
239.4000,-8.4345,220.63,0.320771
239.3000,-8.06663,220.953,0.325175
239.2000,-8.61015,220.956,0.325222
239.1000,-10.4085,220.774,0.322734
239.0000,-7.75647,221.789,0.336555
238.9000,-8.42189,221.307,0.330006
238.8000,-8.25327,221.372,0.330885
238.7000,-8.70683,221.698,0.335323
238.6000,-10.3067,221.86,0.337525
238.5000,-9.78634,221.83,0.33711
238.4000,-10.3067,222.198,0.342109
238.3000,-10.3188,222.018,0.339664
238.2000,-11.0333,222.265,0.343016
238.1000,-10.1009,223.034,0.353436
238.0000,-11.3648,223.019,0.353237
237.9000,-12.6824,223.178,0.355382
237.8000,-13.5454,222.542,0.346779
237.7000,-10.527,222.956,0.352379
237.6000,-11.2235,223.598,0.36106
237.5000,-14.4947,223.586,0.360892
237.4000,-10.822,223.241,0.35624
237.3000,-11.9723,223.833,0.364225
237.2000,-13.7945,223.422,0.358674
237.1000,-11.7682,224.091,0.367707
237.0000,-14.0661,224.569,0.374143
236.9000,-11.4719,225.075,0.380933
236.8000,-13.6366,225.083,0.38104
236.7000,-14.2365,224.853,0.377951
236.6000,-17.4312,225.002,0.37996
236.5000,-13.0802,225.06,0.380736
236.4000,-16.1036,225.162,0.382104
236.3000,-16.1727,225.31,0.384096
236.2000,-15.3637,225.378,0.385007
236.1000,-16.1676,225.177,0.382302
236.0000,-16.4657,225.814,0.390837
235.9000,-16.3333,226.888,0.405189
235.8000,-15.1675,226.474,0.39967
235.7000,-18.2818,226.011,0.393476
235.6000,-17.5463,226.356,0.398096
235.5000,-16.1228,227.68,0.415736
235.4000,-19.1596,226.735,0.403149
235.3000,-18.3092,227.333,0.411123
235.2000,-20.9659,227.452,0.412706
235.1000,-20.6985,227.355,0.411409
235.0000,-20.0748,227.224,0.409674
234.9000,-18.4798,228.272,0.423607
234.8000,-19.0048,227.929,0.419049
234.7000,-21.2192,228.767,0.430171
234.6000,-18.4879,228.609,0.42807
234.5000,-18.7932,227.988,0.419832
234.4000,-21.2671,228.56,0.427424
234.3000,-24.2966,228.122,0.421607
234.2000,-19.6055,229.831,0.444236
234.1000,-23.3292,229.45,0.439195
234.0000,-23.7722,229.598,0.441155
233.9000,-23.6118,229.702,0.442532
233.8000,-24.1772,230.354,0.451122
233.7000,-24.1337,230.277,0.450107
233.6000,-23.8987,230.311,0.450555
233.5000,-27.1221,230.899,0.458292
233.4000,-24.2108,230.864,0.457831
233.3000,-25.5165,230.883,0.458084
233.2000,-26.0735,231.761,0.469609
233.1000,-26.2138,231.157,0.461686
233.0000,-28.7224,231.804,0.470173
232.9000,-25.9951,231.666,0.468361
232.8000,-29.966,232.757,0.482636
232.7000,-30.0203,232.604,0.480638
232.6000,-29.1624,232.666,0.481452
232.5000,-27.0869,232.75,0.482547
232.4000,-32.438,232.965,0.485357
232.3000,-27.6621,233.667,0.494497
232.2000,-33.2013,234.212,0.501584
232.1000,-33.8807,234.391,0.503909
232.0000,-31.8288,233.942,0.498079
231.9000,-32.0368,234.15,0.500774
231.8000,-32.1759,234.786,0.509039
231.7000,-34.4677,234.633,0.507055
231.6000,-32.6362,234.833,0.509641
231.5000,-36.3865,235.195,0.514338
231.4000,-32.2234,235.226,0.514733
231.3000,-34.0709,235.622,0.519863
231.2000,-32.9197,235.111,0.513252
231.1000,-37.6621,236.332,0.52902
231.0000,-34.3116,235.724,0.521181
230.9000,-36.2482,236.102,0.526053
230.8000,-37.0313,236.134,0.526462
230.7000,-35.352,236.206,0.527398
230.6000,-34.7144,236.327,0.528962
230.5000,-37.1403,236.848,0.535676
230.4000,-36.1163,236.713,0.533926
230.3000,-34.8815,237.898,0.549156
230.2000,-35.4446,237.645,0.545914
230.1000,-39.7941,237.399,0.542757
230.0000,-39.8642,237.966,0.550027
229.9000,-40.979,238.336,0.554774
229.8000,-37.9007,238.214,0.553207
229.7000,-42.0123,238.377,0.555296
229.6000,-39.5087,238.692,0.559327
229.5000,-43.5504,239.976,0.575708
229.4000,-42.4657,238.622,0.558429
229.3000,-41.6147,238.189,0.552888
229.2000,-40.134,239.72,0.572446
229.1000,-40.7783,239.246,0.566406
229.0000,-43.4496,239.496,0.569601
228.9000,-42.6142,240.048,0.576631
228.8000,-44.6712,240.603,0.583691
228.7000,-43.6068,241.367,0.593381
228.6000,-43.0075,241.274,0.592203
228.5000,-43.2489,240.779,0.585922
228.4000,-44.0405,241.466,0.59463
228.3000,-46.3733,241.503,0.595103
228.2000,-45.8944,241.925,0.600438
228.1000,-44.5875,242.235,0.604362
228.0000,-47.8112,242.766,0.611069
227.9000,-49.944,242.719,0.610469
227.8000,-45.6812,242.421,0.606709
227.7000,-47.6516,243.596,0.621514
227.6000,-49.7633,243.455,0.619747
227.5000,-49.3717,244.026,0.626924
227.4000,-49.6214,244.745,0.635933
227.3000,-48.4185,245.586,0.64645
227.2000,-48.5369,244.204,0.629157
227.1000,-50.1583,244.99,0.638998
227.0000,-50.1162,244.752,0.636019
226.9000,-48.73,245.247,0.642216
226.8000,-51.6017,245.94,0.650877
226.7000,-52.7142,245.516,0.645586
226.6000,-52.5778,246.35,0.655991
226.5000,-53.987,245.881,0.650142
226.4000,-52.9728,245.971,0.651259
226.3000,-49.2866,247.158,0.666042
226.2000,-51.3827,247.393,0.668955
226.1000,-53.4712,247.73,0.673145
226.0000,-53.3474,247.148,0.665915
225.9000,-51.2927,248.062,0.677259
225.8000,-52.032,247.533,0.670699
225.7000,-53.7453,248.014,0.676656
225.6000,-54.024,248.775,0.686077
225.5000,-51.7761,248.55,0.68329
225.4000,-56.3556,248.792,0.686287
225.3000,-55.668,248.687,0.684985
225.2000,-55.6678,249.498,0.695
225.1000,-54.802,249.006,0.688933
225.0000,-56.1572,249.433,0.694204
224.9000,-57.1444,249.053,0.689506
224.8000,-56.1817,250.301,0.704891
224.7000,-55.3329,250.484,0.707133
224.6000,-55.8926,250.228,0.703985
224.5000,-55.8945,251.419,0.718602
224.4000,-53.1637,251.032,0.713866
224.3000,-59.075,250.87,0.711878
224.2000,-58.9066,251.79,0.723152
224.1000,-57.4652,252.666,0.733853
224.0000,-56.3626,252.05,0.726326
223.9000,-56.2398,253.201,0.740372
223.8000,-56.9471,252.419,0.730838
223.7000,-55.8822,252.598,0.733024
223.6000,-55.8254,253.565,0.744799
223.5000,-56.0242,253.238,0.740828
223.4000,-53.9913,253.047,0.738495
223.3000,-57.2373,253.569,0.744854
223.2000,-58.8449,254.06,0.750818
223.1000,-59.0334,254.674,0.758268
223.0000,-57.7611,254.222,0.752785
222.9000,-57.3881,254.469,0.755782
222.8000,-56.7521,254.783,0.759586
222.7000,-58.0075,256.046,0.774862
222.6000,-59.7676,255.69,0.770567
222.5000,-56.9823,256.017,0.774507
222.4000,-55.9562,255.937,0.773549
222.3000,-59.4739,256.587,0.781378
222.2000,-59.5746,256.558,0.781037
222.1000,-59.3632,257.085,0.787379
222.0000,-59.9075,256.905,0.785211
221.9000,-58.9376,257.636,0.793995
221.8000,-60.7612,257.67,0.794403
221.7000,-57.5284,257.667,0.794376
221.6000,-62.352,257.871,0.796823
221.5000,-62.1035,258.784,0.807749
221.4000,-62.6246,259.061,0.811068
221.3000,-57.6558,258.986,0.810174
221.2000,-57.2413,259.403,0.815155
221.1000,-60.6939,260.025,0.822573
221.0000,-59.6779,259.525,0.816601
220.9000,-58.662,259.589,0.817372
220.8000,-60.6361,259.75,0.819291
220.7000,-61.3553,260.687,0.830447
220.6000,-56.9263,261.189,0.83641
220.5000,-58.1967,260.915,0.833154
220.4000,-61.9968,261.035,0.83458
220.3000,-59.0207,261.858,0.844336
220.2000,-61.3774,262.621,0.85337
220.1000,-60.6473,262.202,0.848414
220.0000,-55.0507,262.228,0.848722
219.9000,-61.592,263.545,0.864266
219.8000,-59.1695,262.733,0.854696
219.7000,-59.2767,263.477,0.863465
219.6000,-59.2774,263.834,0.867668
219.5000,-61.5059,263.682,0.86588
219.4000,-56.6675,264.025,0.869921
219.3000,-59.1075,264.537,0.875941
219.2000,-58.8908,264.315,0.873332
219.1000,-57.9335,264.455,0.874969
219.0000,-58.8904,264.746,0.878389
218.9000,-57.8973,265.389,0.885934
218.8000,-60.0381,265.799,0.890736
218.7000,-59.1186,265.852,0.891346
218.6000,-61.0576,266.45,0.898337
218.5000,-56.2768,266.666,0.900862
218.4000,-59.5577,266.4,0.897754
218.3000,-62.5404,266.502,0.898945
218.2000,-58.975,267.321,0.908495
218.1000,-59.9296,267.632,0.912108
218.0000,-55.5506,267.609,0.911844
217.9000,-63.2175,268.744,0.925028
217.8000,-57.4949,268.525,0.922479
217.7000,-58.5235,268.696,0.924463
217.6000,-60.1684,269.292,0.931366
217.5000,-59.8334,269.255,0.930947
217.4000,-54.8698,269.951,0.93899
217.3000,-58.6186,269.693,0.936005
217.2000,-58.6491,271.177,0.953121
217.1000,-58.4285,270.484,0.945135
217.0000,-57.6129,271.323,0.954803
216.9000,-57.4519,271.273,0.954229
216.8000,-58.3705,272.016,0.962756
216.7000,-57.5278,272.192,0.964784
216.6000,-58.457,271.737,0.959556
216.5000,-56.2451,272.431,0.967525
216.4000,-58.1765,272.681,0.97038
216.3000,-58.0885,273.167,0.975943
216.2000,-60.5331,274.214,0.987897
216.1000,-58.1105,273.826,0.983477
216.0000,-55.4436,274.075,0.986321
215.9000,-56.2459,275.095,0.997932
215.8000,-62.5433,275.043,0.99734
215.7000,-58.2545,273.831,0.983529
215.6000,-60.9375,275.662,1.00437
215.5000,-59.5844,275.876,1.0068
215.4000,-56.133,275.556,1.00317
215.3000,-57.2931,276.377,1.01247
215.2000,-52.5241,276.169,1.01012
215.1000,-56.6672,277.105,1.02072
215.0000,-56.1897,277.272,1.0226
214.9000,-56.2186,277.2,1.02179
214.8000,-60.363,277.13,1.021
214.7000,-58.4642,278.554,1.03706
214.6000,-58.7613,278.423,1.03558
214.5000,-55.2763,280.039,1.05372
214.4000,-58.2289,278.822,1.04006
214.3000,-59.72,279.266,1.04505
214.2000,-59.7145,280.149,1.05495
214.1000,-59.5073,279.676,1.04966
214.0000,-59.0371,280.962,1.06405
213.9000,-58.9178,280.653,1.06059
213.8000,-57.6034,281.529,1.07037
213.7000,-57.7278,281.525,1.07034
213.6000,-57.7001,281.848,1.07394
213.5000,-60.2351,282.541,1.08164
213.4000,-59.4114,281.64,1.07161
213.3000,-61.2153,282.964,1.08635
213.2000,-57.0139,283.33,1.09041
213.1000,-58.5799,283.815,1.09579
213.0000,-53.3398,283.825,1.0959
212.9000,-57.4007,284.233,1.10042
212.8000,-57.4574,284.121,1.09918
212.7000,-58.4725,285.057,1.10952
212.6000,-63.8642,285.752,1.11718
212.5000,-56.6091,286.408,1.1244
212.4000,-57.38,287.201,1.13311
212.3000,-56.9554,286.408,1.1244
212.2000,-54.1668,286.736,1.12801
212.1000,-64.4154,288.088,1.14283
212.0000,-62.4674,288.695,1.14947
211.9000,-58.7247,288.845,1.1511
211.8000,-57.6183,288.374,1.14595
211.7000,-57.6225,290.256,1.16647
211.6000,-55.8524,290.137,1.16518
211.5000,-59.7547,290.772,1.17208
211.4000,-56.617,290.988,1.17442
211.3000,-62.1301,291.315,1.17797
211.2000,-58.7166,291.96,1.18495
211.1000,-59.555,292.595,1.19182
211.0000,-59.1401,293.471,1.20127
210.9000,-62.7903,293.502,1.2016
210.8000,-59.6271,294.269,1.20986
210.7000,-61.2823,294.311,1.21031
210.6000,-62.6372,295.121,1.219
210.5000,-59.8595,295.401,1.222
210.4000,-60.6769,295.89,1.22725
210.3000,-59.3578,296.544,1.23424
210.2000,-63.5485,297.316,1.24247
210.1000,-60.2257,297.457,1.24398
210.0000,-60.4554,298.664,1.25681
209.9000,-68.0248,298.901,1.25932
209.8000,-61.693,299.422,1.26485
209.7000,-59.7236,299.742,1.26823
209.6000,-68.8926,301.2,1.28364
209.5000,-62.2137,301.123,1.28283
209.4000,-60.6092,302.304,1.29526
209.3000,-70.1111,302.987,1.30243
209.2000,-56.8927,304.173,1.31486
209.1000,-65.5546,304.291,1.31609
209.0000,-62.9329,304.439,1.31764
208.9000,-63.8835,305.613,1.32989
208.8000,-63.3682,306.336,1.33741
208.7000,-61.1336,306.9,1.34327
208.6000,-62.2397,307.216,1.34655
208.5000,-63.0369,307.047,1.34479
208.4000,-64.9845,308.634,1.36122
208.3000,-61.4942,309.113,1.36617
208.2000,-64.6915,310.317,1.37856
208.1000,-57.6743,310.16,1.37695
208.0000,-59.3055,312.6,1.40197
207.9000,-55.8424,312.702,1.40301
207.8000,-61.7108,313.232,1.40843
207.7000,-58.4441,314.145,1.41773
207.6000,-53.3662,315.337,1.42985
207.5000,-55.7953,315.593,1.43245
207.4000,-62.5982,316.205,1.43865
207.3000,-55.3618,317.21,1.44881
207.2000,-60.8219,317.39,1.45063
207.1000,-62.9591,317.872,1.45548
207.0000,-59.1171,319.307,1.46993
206.9000,-57.1299,320.289,1.47977
206.8000,-60.6116,320.935,1.48623
206.7000,-54.0714,322.393,1.50078
206.6000,-58.3373,322.707,1.50391
206.5000,-49.3994,324.138,1.51813
206.4000,-52.3655,324.591,1.52262
206.3000,-55.8457,326.232,1.53883
206.2000,-55.1827,326.53,1.54177
206.1000,-52.7521,327.452,1.55085
206.0000,-45.6192,328.881,1.56487
205.9000,-60.5355,329.43,1.57025
205.8000,-46.4414,330.551,1.5812
205.7000,-51.1163,331.723,1.59261
205.6000,-46.2845,332.684,1.60196
205.5000,-42.7949,333.859,1.61334
205.4000,-46.8073,334.815,1.62257
205.3000,-51.1193,335.627,1.63041
205.2000,-41.1622,337.244,1.64595
205.1000,-41.2567,338.911,1.66191
205.0000,-37.165,339.868,1.67104
204.9000,-41.2856,340.435,1.67644
204.8000,-41.8652,341.624,1.68774
204.7000,-45.8517,343.495,1.70546
204.6000,-40.0136,343.972,1.70996
204.5000,-28.9121,344.784,1.71762
204.4000,-43.6513,346.791,1.73647
204.3000,-31.8459,347.352,1.74172
204.2000,-32.336,348.8,1.75525
204.1000,-33.7067,350.347,1.76965
204.0000,-28.2565,351.465,1.78003
203.9000,-26.5775,353.167,1.79577
203.8000,-26.3266,354.755,1.8104
203.7000,-28.2332,356.367,1.82519
203.6000,-17.9351,357.856,1.8388
203.5000,-28.5269,358.722,1.84671
203.4000,-24.403,360.581,1.8636
203.3000,-26.9644,361.182,1.86905
203.2000,-17.2804,362.616,1.88201
203.1000,-21.0266,365.266,1.90587
203.0000,-18.2178,365.932,1.91184
202.9000,-9.41008,366.619,1.91799
202.8000,-21.4457,367.893,1.92937
202.7000,-14.639,369.922,1.94742
202.6000,-16.4345,371.716,1.96332
202.5000,-8.53473,372.267,1.96819
202.4000,-14.0307,374.171,1.98496
202.3000,-14.943,375.548,1.99706
202.2000,-9.78089,378.089,2.01927
202.1000,-9.04523,379.512,2.03165
202.0000,-3.79197,380.679,2.04178
201.9000,-5.31148,382.942,2.06134
201.8000,-1.28783,384.872,2.07796
201.7000,-2.33357,386.33,2.09045
201.6000,-3.15006,388.529,2.10923
201.5000,-4.01794,389.638,2.11867
201.4000,10.7882,391.468,2.13419
201.3000,4.69102,393.675,2.15284
201.2000,9.37232,395.384,2.16721
201.1000,9.26734,396.106,2.17326
201.0000,-0.44943,398.563,2.19381
200.9000,4.3472,401.482,2.21807
200.8000,5.0954,401.866,2.22126
200.7000,8.24166,403.473,2.23454
200.6000,16.7708,406.661,2.26077
200.5000,25.3034,407.666,2.269
200.4000,8.7742,410.513,2.29222
200.3000,17.3697,412.49,2.30827
200.2000,19.8797,414.586,2.32522
200.1000,25.7081,416.371,2.33959
200.0000,17.4577,418.374,2.35566
199.9000,12.5251,420.375,2.37164
199.8000,23.4929,423.047,2.39289
199.7000,28.5767,424.865,2.40729
199.6000,23.1806,427.134,2.42517
199.5000,22.6065,429.327,2.44239
199.4000,21.2116,429.993,2.44761
199.3000,21.5901,432.428,2.46661
199.2000,22.6978,434.308,2.48122
199.1000,16.8978,436.666,2.49947
199.0000,29.7772,438.692,2.51508
198.9000,32.2334,439.579,2.5219
198.8000,42.314,443,2.54808
198.7000,39.105,445.916,2.57027
198.6000,28.455,448.203,2.58758
198.5000,42.4162,450.322,2.60355
198.4000,29.0322,452.997,2.62363
198.3000,31.2772,454.65,2.63598
198.2000,38.3251,457.531,2.65743
198.1000,33.7344,459.313,2.67063
198.0000,26.306,461.494,2.68674
197.9000,35.6551,464.278,2.70721
197.8000,33.7958,466.264,2.72174
197.7000,42.7952,468.131,2.73536
197.6000,38.6351,470.844,2.75507
197.5000,27.9897,473.136,2.77164
197.4000,43.023,474.769,2.78341
197.3000,25.4291,477.893,2.80582
197.2000,47.3981,480.253,2.82267
197.1000,37.1873,482.216,2.83664
197.0000,27.3763,485.065,2.85682
196.9000,34.1729,486.989,2.87039
196.8000,46.1309,490.569,2.89553
196.7000,23.055,491.97,2.90532
196.6000,26.5744,495.472,2.9297
196.5000,36.6747,497.146,2.9413
196.4000,40.0165,500.066,2.96146
196.3000,41.3408,503.275,2.98349
196.2000,42.9605,505.038,2.99555
196.1000,42.8204,508.77,3.02096
196.0000,36.4973,510.175,3.03048
195.9000,23.9349,513.707,3.05432
195.8000,35.2601,515.339,3.0653
195.7000,36.7763,518.428,3.08598
195.6000,26.7808,520.548,3.10012
195.5000,33.231,522.353,3.11211
195.4000,55.1224,524.001,3.12303
195.3000,36.1555,525.61,3.13367
195.2000,27.7181,527.867,3.14854
195.1000,35.8902,529.003,3.15601
195.0000,45.5247,531.718,3.1738
194.9000,33.3708,533.778,3.18724
194.8000,29.893,536.273,3.20347
194.7000,44.8162,537.804,3.21339
194.6000,25.7066,539.483,3.22425
194.5000,42.7355,542.234,3.24197
194.4000,29.7575,544.046,3.25361
194.3000,28.5782,546.711,3.27066
194.2000,42.9806,547.999,3.27888
194.1000,33.6079,550.962,3.29771
194.0000,35.2315,553.401,3.31316
193.9000,36.1268,555.152,3.32421
193.8000,41.8489,557.836,3.34109
193.7000,37.2954,560.742,3.35928
193.6000,39.2565,562.593,3.37084
193.5000,25.5696,565.086,3.38634
193.4000,21.4869,565.785,3.39068
193.3000,26.4939,567.495,3.40127
193.2000,28.4787,568.99,3.41051
193.1000,34.5355,570.879,3.42215
193.0000,37.3005,573.635,3.43908
192.9000,24.959,574.99,3.44738
192.8000,30.7203,577.755,3.46426
192.7000,21.3857,577.508,3.46275
192.6000,39.5376,581.661,3.48799
192.5000,29.1091,583.099,3.49669
192.4000,24.6634,584.542,3.5054
192.3000,32.8973,587.569,3.52362
192.2000,18.7736,589.777,3.53686
192.1000,16.643,590.924,3.54372
192.0000,36.0942,592.919,3.55563
191.9000,24.0597,594.412,3.56452
191.8000,40.1464,596.715,3.57819
191.7000,14.2488,598.83,3.59071
191.6000,30.1374,599.703,3.59587
191.5000,24.8251,602.835,3.61431
191.4000,8.19205,603.871,3.62039
191.3000,24.3836,607.094,3.63926
191.2000,25.4393,608.87,3.64962
191.1000,24.5997,611.621,3.66562
191.0000,26.7596,614.29,3.68109
190.9000,21.3826,616.679,3.69488
190.8000,34.2637,619.398,3.71052
190.7000,7.0496,622.005,3.72547
190.6000,14.4145,624.769,3.74125
190.5000,23.7934,627.179,3.75496
190.4000,37.6227,628.876,3.7646
190.3000,27.8502,631.17,3.77758
190.2000,11.113,633.073,3.78832
190.1000,15.4227,635.007,3.79921
190.0000,31.5234,637.356,3.81239

##### Extended Information
[Comments]
Sample name,SL + BM Additive and Protein
Comment,Additive and Protein 
User,Stacie Lally and Beth Mlinek
Division
Company,Saint Mary's College

[Detailed Information]
Creation date,9/29/2022 1:31 PM

Data array type,Linear data array * 3
Horizontal axis,Wavelength [nm]
Vertical axis(1),CD [mdeg]
Vertical axis(2),HT [V]
Vertical axis(3),Abs
Start,320 nm
End,190 nm
Data interval,0.1 nm
Data points,1301    

[Measurement Information]
Instrument name,J-1500
Model name,J-1500
Serial No.,B051061638

Detector,PM-539
Detector S/N,B051061638
  Lock-in amp.,X mode
  HT volt,Auto

Accessory,PTC-517
Accessory S/N,B026561646
  Temperature,22.48 C
  Control sensor,Holder
  Monitor sensor,Holder

Measurement date,9/29/2022 1:31 PM

CD Overload detect,971
Photometric mode,CD, HT, Abs
Measure range,320 - 190 nm
Data pitch,0.1 nm
CD scale,20 mdeg/0.05 dOD
FL scale,20 mdeg/0.05 dOD
D.I.T.,8 msec
Bandwidth,2.00 nm
Start mode,Immediately
Scanning mode,Continuous
Scanning speed,200 nm/min
Baseline correction,None
Shutter control,Auto
No. of cycle,1/1
N2 Flowmeter,Manual

Solvent,NaPO4 buffer

