TITLE,SL_IM_PB
DATA TYPE,
ORIGIN,JASCO
OWNER,
DATE,22/09/27
TIME,17:12:56
SPECTROMETER/DATA SYSTEM,
LOCALE,1033
RESOLUTION,
DELTAX,-0.1
XUNITS,NANOMETERS
YUNITS,CD [mdeg]
Y2UNITS,HT [V]
Y3UNITS,ABSORBANCE
FIRSTX,  320.0000
LASTX,  190.0000
NPOINTS,    1301
FIRSTY,     1.79987
MAXY,    50.35947
MINY,   -62.73072
XYDATA
320.0000,1.79987,207.471,0.136626
319.9000,2.12677,206.556,0.12346
319.8000,1.59883,207.365,0.135097
319.7000,1.73288,206.976,0.129511
319.6000,2.20337,207.826,0.141714
319.5000,1.55588,208.24,0.147638
319.4000,-0.248167,208.614,0.152985
319.3000,1.74289,207.712,0.140073
319.2000,0.772858,207.213,0.132916
319.1000,0.61146,207.193,0.132623
319.0000,-1.33658,207.209,0.132851
318.9000,1.54474,207.443,0.13622
318.8000,1.58527,208.535,0.151868
318.7000,2.50872,207.011,0.130016
318.6000,1.86232,207.197,0.132688
318.5000,-1.62536,207.318,0.13443
318.4000,0.933083,208.864,0.156562
318.3000,0.656627,206.489,0.122496
318.2000,0.606104,207.024,0.130196
318.1000,1.35514,207.886,0.142574
318.0000,1.35097,208.235,0.147573
317.9000,1.28193,208.418,0.150183
317.8000,1.3379,206.753,0.126299
317.7000,1.83477,207.185,0.132509
317.6000,0.316518,207.82,0.141633
317.5000,1.59831,206.478,0.122333
317.4000,0.535579,207.516,0.137261
317.3000,2.0945,207.184,0.132492
317.2000,1.52161,207.01,0.13
317.1000,2.85597,207.171,0.132313
317.0000,1.90783,206.846,0.127637
316.9000,0.620518,206.69,0.125385
316.8000,1.27546,206.989,0.12969
316.7000,2.08683,206.853,0.127734
316.6000,0.191291,206.81,0.127115
316.5000,1.01296,206.531,0.1231
316.4000,0.87713,207.304,0.134218
316.3000,2.79775,206.647,0.124766
316.2000,1.06476,207.871,0.142364
316.1000,2.6079,206.971,0.12943
316.0000,2.55827,206.317,0.120013
315.9000,0.428436,207.546,0.1377
315.8000,0.795295,206.621,0.12439
315.7000,1.45486,207.069,0.130847
315.6000,1.94861,206.216,0.118559
315.5000,1.28821,206.143,0.117513
315.4000,1.49778,207.562,0.137927
315.3000,0.80471,206.44,0.121794
315.2000,0.760551,206.214,0.118526
315.1000,0.746009,207.068,0.130831
315.0000,-0.238484,206.906,0.1285
314.9000,1.86773,207.109,0.131417
314.8000,1.43722,206.922,0.128729
314.7000,1.05212,206.574,0.123721
314.6000,0.627745,207.814,0.141535
314.5000,2.22054,207.725,0.140268
314.4000,1.91841,206.469,0.122202
314.3000,1.91825,207.187,0.132541
314.2000,0.739476,206.864,0.127897
314.1000,-0.202831,206.134,0.117382
314.0000,2.04404,206.747,0.126217
313.9000,0.598211,207.51,0.137179
313.8000,1.70805,207.044,0.130489
313.7000,2.61984,207.103,0.131336
313.6000,1.70993,206.773,0.126593
313.5000,1.98106,207.294,0.134072
313.4000,2.89253,209.017,0.158745
313.3000,-0.0791681,206.824,0.127327
313.2000,0.873744,206.256,0.119131
313.1000,2.4918,207.848,0.142023
313.0000,0.876042,205.908,0.11411
312.9000,1.91898,206.882,0.128158
312.8000,2.39763,207.747,0.140577
312.7000,1.17688,205.746,0.111769
312.6000,0.280504,206.789,0.126821
312.5000,3.21394,207.175,0.132362
312.4000,2.63821,208.202,0.147102
312.3000,1.3641,206.055,0.116237
312.2000,0.712888,206.656,0.124896
312.1000,0.894868,206.504,0.122709
312.0000,1.67659,206.319,0.120046
311.9000,1.14754,207.544,0.137667
311.8000,2.71811,207.315,0.134381
311.7000,0.957572,205.712,0.111277
311.6000,1.85505,207.657,0.139293
311.5000,-0.142307,206.694,0.125451
311.4000,-0.0601366,206.933,0.128892
311.3000,0.0767342,207.013,0.130033
311.2000,2.81713,205.862,0.113455
311.1000,2.14253,206.652,0.124847
311.0000,0.995617,206.519,0.122921
310.9000,2.15518,208.223,0.147394
310.8000,0.220433,206.133,0.117365
310.7000,1.61288,206.701,0.125549
310.6000,0.209117,206.412,0.121386
310.5000,2.12301,207.536,0.137553
310.4000,3.19843,206.526,0.123035
310.3000,1.07364,206.592,0.123982
310.2000,1.03152,206.523,0.122986
310.1000,2.42108,207.142,0.13189
310.0000,0.273988,206.307,0.119867
309.9000,0.841425,207.714,0.140105
309.8000,1.59744,206.948,0.129104
309.7000,1.03973,206.475,0.1223
309.6000,0.432438,206.767,0.126495
309.5000,2.60091,205.699,0.111097
309.4000,0.474802,206.015,0.115664
309.3000,1.31889,206.189,0.118167
309.2000,0.577481,207.121,0.131597
309.1000,0.0116236,205.567,0.10918
309.0000,0.662778,206.232,0.118788
308.9000,0.645238,207.747,0.140577
308.8000,0.1855,207.435,0.136106
308.7000,0.288783,205.469,0.10777
308.6000,0.674551,205.376,0.106425
308.5000,0.335287,207.419,0.135878
308.4000,0.372864,207.23,0.13316
308.3000,0.00492687,207.379,0.135292
308.2000,0.655399,207.307,0.134267
308.1000,-0.521785,206.486,0.122447
308.0000,0.455661,206.795,0.126903
307.9000,2.17838,207.224,0.133079
307.8000,-0.483042,205.749,0.111818
307.7000,1.67307,206.538,0.123198
307.6000,0.977918,206.449,0.121925
307.5000,1.86545,205.953,0.114764
307.4000,0.980516,205.727,0.11149
307.3000,1.57793,207.322,0.134479
307.2000,1.69916,205.524,0.108557
307.1000,1.25,207.803,0.141389
307.0000,0.831563,205.191,0.103735
306.9000,1.4287,207.037,0.130391
306.8000,1.02685,206.56,0.123525
306.7000,-0.397201,206.642,0.1247
306.6000,1.42737,207.093,0.131189
306.5000,0.761303,206.954,0.129185
306.4000,0.0128677,207.469,0.136594
306.3000,0.822121,205.725,0.111474
306.2000,0.375867,205.753,0.111867
306.1000,1.01612,205.48,0.107918
306.0000,2.098,207.079,0.130994
305.9000,0.725659,206.811,0.127131
305.8000,1.72711,207.112,0.131466
305.7000,0.814049,206.179,0.118019
305.6000,1.25922,206.116,0.11712
305.5000,-0.0100009,206.385,0.120994
305.4000,2.06213,207.714,0.140105
305.3000,1.73223,206.473,0.122268
305.2000,-0.0617435,206.832,0.127441
305.1000,1.21134,207.136,0.131808
305.0000,-0.270257,206.44,0.121794
304.9000,1.83619,206.747,0.126217
304.8000,0.539708,206.905,0.128484
304.7000,1.77892,206.114,0.117087
304.6000,0.697371,206.973,0.129462
304.5000,-0.197835,206.845,0.12762
304.4000,0.542141,206.261,0.119213
304.3000,1.36609,206.574,0.123721
304.2000,0.309406,206.373,0.12083
304.1000,1.8504,205.946,0.114666
304.0000,0.608122,206.729,0.125956
303.9000,0.775938,206.517,0.122905
303.8000,-0.0281587,207.116,0.131515
303.7000,1.07571,205.655,0.110458
303.6000,1.11496,206.431,0.121664
303.5000,1.53065,206.481,0.122382
303.4000,2.76226,206.409,0.121337
303.3000,0.717624,206,0.115435
303.2000,2.3532,206.988,0.129674
303.1000,2.08074,206.306,0.11985
303.0000,0.932733,207.146,0.131955
302.9000,2.8724,207.068,0.130831
302.8000,1.84789,206.593,0.123998
302.7000,0.862778,207.289,0.134007
302.6000,-0.573399,206.735,0.126038
302.5000,2.35308,206.964,0.129332
302.4000,0.452159,206.553,0.123411
302.3000,0.126864,207.376,0.13526
302.2000,0.43019,206.267,0.119295
302.1000,1.41283,206.148,0.117578
302.0000,1.38807,207.1,0.131287
301.9000,1.87765,207.035,0.130359
301.8000,1.83364,206.529,0.123068
301.7000,0.625014,205.376,0.106425
301.6000,2.21065,205.362,0.106212
301.5000,-0.76514,206.889,0.128256
301.4000,-1.08564,207.386,0.135406
301.3000,0.546381,206.623,0.124423
301.2000,1.20593,206.487,0.122464
301.1000,1.09234,206.406,0.121304
301.0000,1.79127,206.417,0.121451
300.9000,2.15872,205.7,0.111113
300.8000,-0.514622,207.009,0.129984
300.7000,1.39399,205.93,0.114437
300.6000,3.45112,205.784,0.112325
300.5000,1.39293,206.258,0.119164
300.4000,0.059385,206.073,0.116498
300.3000,0.2845,207.036,0.130375
300.2000,1.32292,206.25,0.119049
300.1000,1.02761,207.298,0.134137
300.0000,-0.34888,206.154,0.11766
299.9000,0.0129698,206.519,0.122921
299.8000,1.13656,206.97,0.129414
299.7000,0.842918,205.902,0.114028
299.6000,0.882604,206.121,0.117186
299.5000,0.420595,206.004,0.115501
299.4000,1.25314,206.717,0.125777
299.3000,1.33025,206.602,0.124129
299.2000,0.317232,206.292,0.119654
299.1000,1.04623,206.396,0.121157
299.0000,-0.564837,206.57,0.123656
298.9000,1.39573,207.018,0.130114
298.8000,0.349601,205.882,0.113733
298.7000,0.50759,206.521,0.122953
298.6000,0.0465116,206.753,0.126299
298.5000,2.473,206.239,0.118886
298.4000,1.30649,206.57,0.123656
298.3000,0.797772,205.964,0.114928
298.2000,0.0627929,206.955,0.129202
298.1000,0.646464,205.908,0.11411
298.0000,-0.725115,204.946,0.100187
297.9000,1.4634,205.693,0.110999
297.8000,0.507565,206.003,0.115484
297.7000,0.455352,206.451,0.121941
297.6000,0.59908,206.524,0.123003
297.5000,0.0549532,206.972,0.129446
297.4000,0.923191,205.629,0.110081
297.3000,1.91093,206.034,0.115926
297.2000,1.04662,206.708,0.125646
297.1000,0.123079,205.8,0.112554
297.0000,1.71531,206.173,0.117938
296.9000,0.943413,205.227,0.10426
296.8000,0.810225,206.499,0.122643
296.7000,0.270115,207.318,0.13443
296.6000,2.18303,205.712,0.111277
296.5000,1.55246,205.811,0.112718
296.4000,1.07005,206.227,0.118722
296.3000,0.995318,206.232,0.118788
296.2000,-0.385567,205.886,0.113799
296.1000,-0.852579,205.72,0.111392
296.0000,1.15286,206.307,0.119867
295.9000,0.963269,207.543,0.137651
295.8000,3.46815,205.157,0.103242
295.7000,-0.0368971,205.741,0.111703
295.6000,0.515377,206.452,0.121957
295.5000,0.121238,205.541,0.108803
295.4000,1.03409,206.922,0.128729
295.3000,2.27492,204.864,0.0990041
295.2000,0.718753,207.217,0.132965
295.1000,1.11379,205.918,0.114257
295.0000,2.42507,205.447,0.107442
294.9000,0.624855,205.051,0.101715
294.8000,0.172963,205.362,0.106212
294.7000,1.91592,206.596,0.124031
294.6000,2.53204,206.167,0.117856
294.5000,0.721856,204.975,0.100615
294.4000,0.510681,205.604,0.109721
294.3000,0.216703,206.211,0.118494
294.2000,0.589577,206.479,0.122349
294.1000,0.54958,205.894,0.113913
294.0000,1.28104,205.11,0.102569
293.9000,0.690626,206.69,0.125385
293.8000,1.17026,205.747,0.111785
293.7000,3.23144,205.436,0.107295
293.6000,1.18942,206.536,0.123166
293.5000,-0.42774,206.668,0.125075
293.4000,0.697831,206.726,0.125908
293.3000,1.33125,207.359,0.135015
293.2000,2.98283,205.802,0.112587
293.1000,0.994106,204.524,0.09407
293.0000,3.25482,206.497,0.122611
292.9000,1.13591,204.82,0.098363
292.8000,1.79874,205.646,0.110327
292.7000,1.35072,206.379,0.120912
292.6000,0.93333,204.457,0.0930988
292.5000,0.0232264,206.836,0.12749
292.4000,0.6997,206.027,0.115828
292.3000,0.738901,205.021,0.101272
292.2000,0.58662,204.837,0.0986095
292.1000,2.42412,206.419,0.121484
292.0000,1.63961,205.783,0.112309
291.9000,1.37935,204.706,0.0967024
291.8000,0.923643,205.476,0.107868
291.7000,0.673967,205.512,0.108393
291.6000,1.73778,205.571,0.109246
291.5000,-0.205471,206.115,0.117104
291.4000,1.52131,205.761,0.111981
291.3000,-0.327838,205.328,0.10572
291.2000,-0.730438,205.351,0.106065
291.1000,2.94251,205.047,0.101649
291.0000,0.211034,206.394,0.121124
290.9000,0.894243,205.911,0.114159
290.8000,0.410789,205.881,0.113717
290.7000,1.14452,205.589,0.109508
290.6000,2.71211,205.605,0.109737
290.5000,1.17268,204.879,0.0992179
290.4000,-0.102341,205.439,0.107327
290.3000,-0.228454,205.298,0.105294
290.2000,2.81262,206.427,0.121598
290.1000,1.26466,206.165,0.117823
290.0000,1.24275,206.184,0.118101
289.9000,2.32329,206.313,0.119965
289.8000,-0.119274,206.113,0.117071
289.7000,1.25135,206.306,0.11985
289.6000,0.45162,206.509,0.12279
289.5000,1.02735,205.874,0.113619
289.4000,0.495822,205.593,0.109557
289.3000,2.17645,206.739,0.126103
289.2000,3.1209,205.765,0.112047
289.1000,-0.0467423,206.58,0.123803
289.0000,2.06036,206.173,0.117938
288.9000,0.0874913,207.181,0.13246
288.8000,-0.405781,205.345,0.105966
288.7000,-0.198429,206.678,0.125222
288.6000,0.414719,205.765,0.112047
288.5000,-0.329606,206.556,0.12346
288.4000,-0.502325,206.402,0.121239
288.3000,2.0195,205.698,0.11108
288.2000,0.749438,206.389,0.121059
288.1000,1.30154,206.177,0.118003
288.0000,0.420625,206.034,0.115926
287.9000,1.53005,206.861,0.127848
287.8000,0.365792,204.955,0.100319
287.7000,0.426961,206.261,0.119213
287.6000,1.79824,206.384,0.120977
287.5000,0.437876,205.384,0.10654
287.4000,-0.930287,207.01,0.13
287.3000,0.629403,206.727,0.125924
287.2000,1.70199,207.144,0.131922
287.1000,1.69179,206.956,0.129218
287.0000,0.876231,206.424,0.121565
286.9000,1.78099,207.075,0.130929
286.8000,0.76278,206.608,0.124211
286.7000,1.3308,206.835,0.127473
286.6000,1.68581,204.812,0.098248
286.5000,1.44311,208.513,0.151544
286.4000,-0.213496,206.142,0.117496
286.3000,0.95792,206.333,0.120242
286.2000,1.05041,207.426,0.135976
286.1000,0.664178,206.635,0.124602
286.0000,2.3992,207.062,0.13075
285.9000,1.61757,206.38,0.120929
285.8000,2.39059,205.97,0.11501
285.7000,-0.0296628,208.314,0.148708
285.6000,1.65425,206.741,0.12612
285.5000,1.49459,207.33,0.134592
285.4000,1.97029,206.531,0.1231
285.3000,1.47473,207.213,0.132916
285.2000,0.0742884,208.048,0.144896
285.1000,-0.0287466,207.227,0.133111
285.0000,1.57971,206.077,0.116548
284.9000,1.1904,206.147,0.117561
284.8000,-0.326666,206.01,0.115582
284.7000,0.514922,205.818,0.112816
284.6000,-0.253381,206.512,0.122823
284.5000,1.02927,205.868,0.113537
284.4000,0.950675,207.624,0.138821
284.3000,1.15856,207.074,0.130913
284.2000,1.73593,206.996,0.129788
284.1000,0.739822,207.97,0.143776
284.0000,1.21406,207.253,0.133486
283.9000,0.692645,207.096,0.131238
283.8000,0.021542,207.309,0.1343
283.7000,1.1287,207.32,0.134446
283.6000,0.640708,205.418,0.107032
283.5000,-0.177088,206.985,0.129641
283.4000,0.832332,207.256,0.133534
283.3000,0.378111,206.733,0.126006
283.2000,0.596313,205.581,0.109393
283.1000,2.98765,206.75,0.12625
283.0000,0.0300827,207.009,0.129984
282.9000,0.815445,206.81,0.127115
282.8000,0.711224,207.28,0.133876
282.7000,1.24822,206.549,0.123362
282.6000,0.776904,206.797,0.126935
282.5000,-0.0342109,206.704,0.125598
282.4000,2.38849,206.63,0.124521
282.3000,-1.0631,206.729,0.125956
282.2000,2.27905,206.892,0.128305
282.1000,1.50334,207.649,0.139179
282.0000,-0.237735,206.591,0.123966
281.9000,-0.692852,207.102,0.13132
281.8000,0.0114971,205.618,0.109917
281.7000,1.20648,206.92,0.128696
281.6000,0.239,207.346,0.13482
281.5000,1.5477,207.102,0.13132
281.4000,-0.599653,206.524,0.123003
281.3000,2.56865,205.716,0.111343
281.2000,-1.31307,207.152,0.132037
281.1000,0.670369,206.6,0.124096
281.0000,0.491606,206.428,0.121615
280.9000,0.692448,207.068,0.130831
280.8000,-1.16608,207.232,0.133193
280.7000,1.00122,206.865,0.127914
280.6000,-0.457483,206.485,0.122431
280.5000,-0.443389,206.226,0.118706
280.4000,1.98485,207.532,0.137488
280.3000,-1.29866,207.36,0.135032
280.2000,-0.638588,206.794,0.126886
280.1000,-0.627594,207.939,0.143338
280.0000,-0.586994,206.838,0.127522
279.9000,1.89583,206.187,0.118134
279.8000,1.896,206.446,0.121876
279.7000,1.61313,206.261,0.119213
279.6000,1.26062,206.777,0.126642
279.5000,1.22286,206.772,0.126576
279.4000,1.04042,206.92,0.128696
279.3000,0.150418,207.217,0.132965
279.2000,1.25253,206.437,0.121745
279.1000,1.48431,207.354,0.134934
279.0000,1.89798,206.17,0.117888
278.9000,0.371126,206.534,0.12315
278.8000,1.87688,207.78,0.141048
278.7000,0.0860578,206.941,0.129006
278.6000,2.11237,207.155,0.132085
278.5000,-0.548693,206.448,0.121909
278.4000,0.355315,206.554,0.123427
278.3000,-0.160511,207.166,0.132232
278.2000,0.982098,207.576,0.138123
278.1000,-0.940148,207.27,0.13373
278.0000,0.785,207.228,0.133127
277.9000,0.0225382,207.72,0.140187
277.8000,0.818089,206.644,0.124733
277.7000,1.12364,207.448,0.136285
277.6000,0.0848452,206.832,0.127441
277.5000,-0.507641,207.328,0.13456
277.4000,1.57283,207.375,0.135243
277.3000,1.85342,207.282,0.133909
277.2000,1.51724,207.269,0.133713
277.1000,-0.717239,207.087,0.131108
277.0000,0.643228,206.746,0.126201
276.9000,0.886422,207.101,0.131304
276.8000,0.668755,207.664,0.13939
276.7000,1.06767,206.736,0.126054
276.6000,-0.42378,206.933,0.128892
276.5000,0.439895,207.121,0.131597
276.4000,-0.562055,206.541,0.123247
276.3000,0.7622,206.855,0.127767
276.2000,0.630109,206.658,0.124929
276.1000,1.67926,206.644,0.124733
276.0000,0.631688,207.304,0.134218
275.9000,1.76545,205.729,0.111523
275.8000,-1.15198,207.525,0.137391
275.7000,-0.429723,207.329,0.134576
275.6000,2.27241,207.878,0.142461
275.5000,0.586024,208.956,0.157872
275.4000,0.511856,208.744,0.154847
275.3000,0.666028,207.443,0.13622
275.2000,-0.464958,206.695,0.125467
275.1000,0.687075,207.111,0.13145
275.0000,1.18311,206.631,0.124537
274.9000,0.0274965,207.701,0.139927
274.8000,1.77321,207.025,0.130212
274.7000,0.392443,207.445,0.136252
274.6000,0.637046,207.256,0.133534
274.5000,0.352551,207.503,0.137082
274.4000,0.706221,207.282,0.133909
274.3000,1.66952,209.349,0.163479
274.2000,-0.207805,207.618,0.138724
274.1000,2.14427,205.627,0.110049
274.0000,0.584052,207.24,0.133306
273.9000,-0.896196,207.292,0.134056
273.8000,-0.294949,206.712,0.125712
273.7000,1.67377,207.262,0.133616
273.6000,0.771192,206.395,0.121141
273.5000,0.79267,207.818,0.1416
273.4000,1.25298,206.957,0.129234
273.3000,1.73144,206.647,0.124766
273.2000,0.694068,207.873,0.14238
273.1000,-0.221713,206.111,0.117038
273.0000,-0.942521,207.009,0.129984
272.9000,-0.000774946,207.496,0.136984
272.8000,2.16985,207.914,0.14298
272.7000,0.49787,207.328,0.13456
272.6000,0.376058,207.783,0.141097
272.5000,1.22961,207.551,0.137765
272.4000,-0.00838344,207.97,0.143776
272.3000,0.654158,206.909,0.128549
272.2000,0.182566,206.498,0.122627
272.1000,-0.0395341,208.232,0.147524
272.0000,-0.221473,208.29,0.148351
271.9000,-2.08975,207.308,0.134283
271.8000,1.2122,207.423,0.135927
271.7000,-0.431956,207.057,0.130668
271.6000,1.0359,207.603,0.138512
271.5000,1.81531,206.726,0.125908
271.4000,0.0841611,207.46,0.136464
271.3000,0.963828,207.303,0.134202
271.2000,-0.580201,206.517,0.122905
271.1000,1.06476,207.057,0.130668
271.0000,-0.27924,207.596,0.138415
270.9000,1.50694,207.919,0.143045
270.8000,2.30668,206.872,0.128011
270.7000,0.334017,207.152,0.132037
270.6000,-0.0910479,206.906,0.1285
270.5000,-0.0962129,206.732,0.125989
270.4000,0.62443,207.646,0.13913
270.3000,0.803777,207.428,0.136008
270.2000,0.499856,207.486,0.136838
270.1000,0.375757,207.244,0.133355
270.0000,2.10381,208.212,0.147248
269.9000,-0.682925,207.178,0.132411
269.8000,1.44783,208.186,0.146875
269.7000,1.26715,207.164,0.132216
269.6000,0.314513,208.399,0.149923
269.5000,1.90109,207.857,0.142152
269.4000,1.29102,207.29,0.134023
269.3000,0.762766,207.998,0.144182
269.2000,-0.504392,207.26,0.133583
269.1000,1.41156,207.61,0.13861
269.0000,1.99382,207.729,0.140317
268.9000,0.320058,206.98,0.12956
268.8000,-0.276797,208.342,0.149097
268.7000,-0.832134,206.847,0.127653
268.6000,1.13524,208.112,0.145805
268.5000,-0.518393,208.891,0.15695
268.4000,2.07297,207.79,0.141194
268.3000,1.50353,208.563,0.152256
268.2000,0.240427,207.229,0.133144
268.1000,0.680483,207.616,0.138708
268.0000,0.318917,207.955,0.143565
267.9000,1.09589,207.812,0.141519
267.8000,0.180841,207.019,0.13013
267.7000,0.133045,207.657,0.139293
267.6000,0.532066,207.487,0.136854
267.5000,0.633273,207.482,0.136773
267.4000,1.14943,207.98,0.143922
267.3000,1.01024,208.311,0.148659
267.2000,-0.983208,207.323,0.134495
267.1000,1.03011,208.099,0.145626
267.0000,-0.732288,207.935,0.143273
266.9000,0.716074,208.384,0.149696
266.8000,0.0581122,208.537,0.151884
266.7000,0.638573,207.391,0.135471
266.6000,-0.385144,208.554,0.152127
266.5000,0.0240127,207.819,0.141617
266.4000,0.992677,208.062,0.145091
266.3000,2.79682,208.607,0.152888
266.2000,0.120567,208.105,0.145707
266.1000,0.641783,208.479,0.151058
266.0000,0.376674,207.831,0.141779
265.9000,0.965844,207.927,0.143159
265.8000,0.243892,207.716,0.140138
265.7000,-0.912432,208.586,0.152596
265.6000,-1.36441,208.176,0.14673
265.5000,-0.160083,209.021,0.15881
265.4000,-0.485678,207.951,0.1435
265.3000,0.0698181,209.043,0.159117
265.2000,0.623027,208.016,0.144442
265.1000,-1.91627,208.456,0.150734
265.0000,1.46815,209.08,0.15965
264.9000,-0.298405,208.611,0.152953
264.8000,2.26266,208.203,0.147119
264.7000,-0.228805,208.623,0.153114
264.6000,-1.11905,209.16,0.160781
264.5000,0.90527,208.72,0.154507
264.4000,-0.34499,207.816,0.141568
264.3000,-1.01313,210.088,0.17399
264.2000,1.42439,209.957,0.172139
264.1000,0.695972,209.367,0.163737
264.0000,-0.394573,208.671,0.153811
263.9000,-0.41027,209.117,0.160168
263.8000,-0.802842,208.243,0.147686
263.7000,-1.37673,207.747,0.140577
263.6000,-0.108328,208.571,0.15237
263.5000,1.90701,208.079,0.145334
263.4000,1.12052,208.955,0.157856
263.3000,-0.286505,209.75,0.16919
263.2000,1.07322,209.255,0.162138
263.1000,0.721984,206.919,0.12868
263.0000,0.876076,208.76,0.155073
262.9000,1.48697,208.33,0.148935
262.8000,0.851487,209.547,0.166303
262.7000,0.560319,209.168,0.160895
262.6000,1.63491,209.98,0.172461
262.5000,1.17567,209.063,0.159408
262.4000,0.921014,209.536,0.166142
262.3000,-0.460892,208.566,0.152305
262.2000,-1.40469,208.812,0.155818
262.1000,-0.421779,209.002,0.158535
262.0000,-0.124404,211.163,0.189236
261.9000,0.124399,208.618,0.15305
261.8000,0.0164315,209.661,0.167916
261.7000,-0.435566,209.29,0.162639
261.6000,-1.14111,209.936,0.171832
261.5000,1.86612,209.1,0.159925
261.4000,1.93625,209.926,0.171687
261.3000,0.890923,209.054,0.159279
261.2000,0.500015,209.88,0.171043
261.1000,2.74548,209.302,0.162817
261.0000,-0.464087,210.428,0.178817
260.9000,-0.0372845,209.472,0.165238
260.8000,-0.369264,208.027,0.144588
260.7000,0.161189,209.285,0.162574
260.6000,0.9185,209.152,0.160668
260.5000,0.259474,209.025,0.158858
260.4000,0.898562,209.556,0.166432
260.3000,1.542,209.559,0.166465
260.2000,-0.129298,210.155,0.17494
260.1000,-0.319954,210.003,0.172783
260.0000,0.673984,210.252,0.176324
259.9000,0.471804,208.644,0.153422
259.8000,-0.619409,210.269,0.176565
259.7000,1.0008,209.448,0.164883
259.6000,-0.901348,209.552,0.166368
259.5000,-1.21557,209.147,0.160604
259.4000,0.29186,210.116,0.174393
259.3000,0.0337132,209.347,0.163446
259.2000,1.00021,209.212,0.161524
259.1000,-0.025648,210.394,0.178335
259.0000,0.555814,209.04,0.159068
258.9000,0.819292,210.38,0.178142
258.8000,-0.662434,209.742,0.169077
258.7000,0.162277,209.902,0.171349
258.6000,0.151674,210.267,0.176533
258.5000,1.28961,210.419,0.178688
258.4000,-0.428393,209.959,0.172155
258.3000,0.623784,210.408,0.178544
258.2000,-1.28714,210.11,0.174312
258.1000,0.459855,211.982,0.200808
258.0000,-0.52351,210.549,0.180537
257.9000,0.0311798,211.65,0.196123
257.8000,-0.703215,209.702,0.168513
257.7000,-0.799103,210.117,0.174409
257.6000,0.158718,211.124,0.188691
257.5000,1.65128,210.465,0.179348
257.4000,0.684613,210.388,0.178254
257.3000,-0.318946,210.326,0.17737
257.2000,0.348699,210.942,0.186109
257.1000,0.565505,210.212,0.175761
257.0000,-0.46087,211.123,0.188675
256.9000,1.41717,212.296,0.205232
256.8000,0.528976,210.721,0.182979
256.7000,1.58324,210.905,0.185579
256.6000,-0.255622,210.96,0.186365
256.5000,0.595671,211.02,0.187216
256.4000,0.219093,211.228,0.19015
256.3000,-0.185505,210.752,0.183412
256.2000,-0.0185023,210.131,0.174602
256.1000,0.938692,210.134,0.17465
256.0000,1.37296,211.217,0.190005
255.9000,0.894444,210.3,0.177
255.8000,-0.830997,211.237,0.190278
255.7000,-0.377361,209.649,0.167755
255.6000,0.561279,210.758,0.183508
255.5000,-1.27767,210.745,0.183316
255.4000,2.02917,211.957,0.200457
255.3000,0.679871,211.688,0.196651
255.2000,0.638168,211.447,0.193258
255.1000,-0.317716,211.952,0.200377
255.0000,0.102015,211.283,0.190935
254.9000,0.43945,211.41,0.192729
254.8000,-1.0677,212.196,0.203827
254.7000,0.547467,211.067,0.187873
254.6000,-0.833034,211.892,0.19953
254.5000,2.01712,210.927,0.1859
254.4000,2.79415,212.398,0.206668
254.3000,-1.13759,211.203,0.189797
254.2000,0.715723,211.617,0.195659
254.1000,-0.35884,211.164,0.189252
254.0000,-1.90582,212.563,0.208997
253.9000,1.35856,209.467,0.165157
253.8000,0.589972,211.35,0.19188
253.7000,1.56238,212.277,0.204961
253.6000,-1.49018,211.659,0.196251
253.5000,1.43892,212.728,0.211308
253.4000,2.23226,212.911,0.213889
253.3000,0.0504573,212.667,0.210448
253.2000,0.0988083,211.446,0.193242
253.1000,-0.173404,213.29,0.219203
253.0000,-0.261725,212.614,0.209714
252.9000,-0.10243,211.16,0.189188
252.8000,-0.437927,211.892,0.19953
252.7000,-0.0201942,211.651,0.196139
252.6000,0.459402,212.293,0.205184
252.5000,-0.021538,212.088,0.202294
252.4000,-0.569577,211.737,0.197355
252.3000,-0.0171267,211.878,0.199338
252.2000,0.608745,211.924,0.199993
252.1000,1.21704,212.735,0.211404
252.0000,-0.3257,212.503,0.208152
251.9000,-1.07087,211.907,0.199753
251.8000,0.98406,212.662,0.210384
251.7000,0.285968,212.834,0.212806
251.6000,0.769825,212.635,0.210002
251.5000,1.10295,212.246,0.20453
251.4000,0.912624,212.835,0.212822
251.3000,-0.715224,212.868,0.213284
251.2000,0.172734,213.091,0.216419
251.1000,1.37366,212.556,0.208886
251.0000,0.418118,212.517,0.208343
250.9000,-0.269271,212.531,0.208535
250.8000,1.40275,212.528,0.208503
250.7000,-0.307377,212.261,0.204738
250.6000,0.778871,213.175,0.217597
250.5000,0.292435,212.184,0.203652
250.4000,0.346537,212.364,0.20619
250.3000,1.32782,214.246,0.232598
250.2000,-0.0550614,212.654,0.210272
250.1000,-0.614991,212.821,0.212615
250.0000,0.27531,213.35,0.220046
249.9000,0.276838,213.505,0.222223
249.8000,0.356406,212.542,0.208694
249.7000,-1.93625,213.299,0.21933
249.6000,-1.23089,212.875,0.213379
249.5000,0.471996,213.52,0.222429
249.4000,-0.564884,213.236,0.218456
249.3000,0.500734,213.095,0.216467
249.2000,-0.992062,213.663,0.22443
249.1000,0.713259,213.764,0.225859
249.0000,0.35872,213.536,0.222652
248.9000,0.934492,213.2,0.217947
248.8000,1.0812,213.129,0.216945
248.7000,0.788705,213.619,0.223827
248.6000,-0.491436,213.232,0.218392
248.5000,0.498442,213.533,0.22262
248.4000,0.638161,213.367,0.220284
248.3000,-1.01487,212.957,0.214525
248.2000,1.59805,212.744,0.211531
248.1000,0.467525,213.78,0.226081
248.0000,-0.518228,213.65,0.224256
247.9000,1.04735,214.065,0.230062
247.8000,0.576582,213.573,0.223176
247.7000,-1.17637,213.576,0.223224
247.6000,0.358972,213.281,0.219076
247.5000,-0.598308,213.429,0.221158
247.4000,0.387855,214.594,0.237458
247.3000,-1.64349,213.939,0.228302
247.2000,-0.951916,213.69,0.224811
247.1000,-0.711802,213.694,0.224875
247.0000,1.62093,213.88,0.227477
246.9000,-1.46266,213.77,0.225938
246.8000,-0.142783,213.653,0.224303
246.7000,-0.924849,215.092,0.244412
246.6000,0.155848,214.954,0.242485
246.5000,-0.84263,214.261,0.232804
246.4000,-1.96027,213.95,0.228461
246.3000,-0.409307,214.564,0.237046
246.2000,-1.81691,214.251,0.232661
246.1000,-1.67702,215.657,0.252267
246.0000,-0.958653,214.536,0.236651
245.9000,-2.39058,214.196,0.231901
245.8000,-0.372835,215.394,0.24861
245.7000,-1.01553,214.347,0.234007
245.6000,-0.975641,215.13,0.244933
245.5000,-1.57363,214.779,0.240035
245.4000,-0.779574,215.678,0.252566
245.3000,-2.09369,215.696,0.252818
245.2000,-0.699517,215.303,0.247348
245.1000,-3.32863,214.605,0.237616
245.0000,-1.47858,215.406,0.248783
244.9000,-2.99118,215.598,0.251447
244.8000,-2.53154,215.009,0.243243
244.7000,-1.50066,214.889,0.241568
244.6000,-3.10026,215.126,0.244885
244.5000,-1.17506,215.768,0.253811
244.4000,-2.9132,216.305,0.261268
244.3000,-1.63729,215.299,0.247285
244.2000,-3.78504,215.58,0.251195
244.1000,-3.19636,214.709,0.239071
244.0000,-1.96307,215.797,0.25422
243.9000,-2.79496,215.312,0.247474
243.8000,-0.717457,214.855,0.241094
243.7000,-1.22551,214.322,0.233659
243.6000,-4.26916,217.348,0.275715
243.5000,-2.59427,216.587,0.265179
243.4000,-2.98108,216.197,0.259774
243.3000,-2.58959,215.725,0.253212
243.2000,-2.86719,216.325,0.261551
243.1000,-1.55552,216.305,0.261268
243.0000,-2.88659,216.061,0.257887
242.9000,-2.16939,216.015,0.257242
242.8000,-2.03814,216.437,0.263106
242.7000,-2.8003,216.93,0.269933
242.6000,-2.87019,216.367,0.262132
242.5000,-2.87901,216.869,0.269087
242.4000,-2.7088,216.846,0.268773
242.3000,-4.5826,216.337,0.261708
242.2000,-3.55509,216.463,0.263467
242.1000,-4.87974,217.788,0.281783
242.0000,-5.69795,216.644,0.265964
241.9000,-2.78644,217.727,0.280939
241.8000,-5.9754,217.313,0.275229
241.7000,-4.24496,218.036,0.285205
241.6000,-3.60114,217.454,0.27717
241.5000,-4.92186,217.667,0.280111
241.4000,-5.05912,218.595,0.292894
241.3000,-3.44992,217.645,0.279814
241.2000,-5.26638,217.291,0.274916
241.1000,-6.18716,217.692,0.280455
241.0000,-4.93409,217.712,0.280736
240.9000,-5.1572,218.646,0.293595
240.8000,-6.75405,218.045,0.28533
240.7000,-4.45714,218.464,0.291102
240.6000,-5.73588,219.023,0.298779
240.5000,-6.4228,218.592,0.292863
240.4000,-3.8322,220.148,0.314194
240.3000,-5.76987,218.921,0.297379
240.2000,-7.77663,220.345,0.316888
240.1000,-7.00325,218.704,0.29439
240.0000,-5.86208,220.178,0.314596
239.9000,-5.20919,219.024,0.298795
239.8000,-8.15284,218.273,0.288467
239.7000,-6.31946,219.713,0.30824
239.6000,-5.91251,219.331,0.303008
239.5000,-8.68271,219.638,0.307216
239.4000,-7.76222,219.676,0.307728
239.3000,-7.59041,219.43,0.304359
239.2000,-8.60343,219.322,0.302884
239.1000,-9.49437,220.113,0.313714
239.0000,-9.41931,220.941,0.325021
238.9000,-9.85468,220.26,0.315727
238.8000,-11.1632,220.625,0.320709
238.7000,-8.34554,221.118,0.327429
238.6000,-8.90559,221.128,0.327568
238.5000,-7.17725,221.798,0.336678
238.4000,-8.70887,220.996,0.325762
238.3000,-8.57567,222.199,0.342124
238.2000,-10.6586,221.914,0.338248
238.1000,-10.0368,221.34,0.330453
238.0000,-11.1661,222.695,0.348851
237.9000,-11.9635,222.085,0.340572
237.8000,-12.6883,222.298,0.343461
237.7000,-12.2474,222.107,0.340879
237.6000,-12.5236,223.622,0.361381
237.5000,-12.1347,221.951,0.338756
237.4000,-11.9626,223.252,0.356378
237.3000,-11.9784,222.491,0.346088
237.2000,-11.0537,222.967,0.352532
237.1000,-12.6907,223.247,0.356316
237.0000,-13.4112,222.635,0.348038
236.9000,-12.7508,223.786,0.363598
236.8000,-14.5416,224.376,0.371536
236.7000,-11.1169,223.451,0.359072
236.6000,-15.4056,223.973,0.366119
236.5000,-12.8992,224.414,0.372055
236.4000,-12.7789,224.632,0.374981
236.3000,-13.5084,224.65,0.375225
236.2000,-13.9793,224.54,0.373747
236.1000,-14.4795,224.721,0.376184
236.0000,-16.3877,225.797,0.390609
235.9000,-16.0325,224.899,0.378575
235.8000,-16.8347,225.648,0.388622
235.7000,-15.2867,225.593,0.387878
235.6000,-16.0673,226.114,0.394855
235.5000,-17.4558,226.233,0.396445
235.4000,-14.9541,225.607,0.388075
235.3000,-16.9158,226.354,0.398065
235.2000,-18.0598,226.125,0.395006
235.1000,-17.8967,226.19,0.39587
235.0000,-20.1873,225.318,0.384202
234.9000,-17.4967,227.075,0.407681
234.8000,-16.6186,227.03,0.407093
234.7000,-18.0419,228.392,0.425201
234.6000,-18.506,227.197,0.409312
234.5000,-17.9056,227.92,0.418929
234.4000,-19.989,227.937,0.419155
234.3000,-19.9885,228.917,0.432152
234.2000,-19.1692,229.158,0.435345
234.1000,-20.9896,228.17,0.422254
234.0000,-22.2564,228.987,0.433082
233.9000,-21.1811,227.554,0.414063
233.8000,-21.1481,229.041,0.433786
233.7000,-22.2919,228.952,0.432617
233.6000,-22.5707,230.792,0.456892
233.5000,-23.6279,229.89,0.445014
233.4000,-23.2824,229.706,0.442577
233.3000,-21.7131,229.959,0.445926
233.2000,-25.2383,230.135,0.448241
233.1000,-25.3329,230.555,0.453777
233.0000,-22.4096,230.841,0.457533
232.9000,-25.5304,231.504,0.466237
232.8000,-25.3823,231.276,0.463248
232.7000,-25.819,231.035,0.460079
232.6000,-26.2946,231.171,0.461865
232.5000,-24.767,232.047,0.473348
232.4000,-26.9579,232.789,0.48305
232.3000,-28.2617,230.944,0.458888
232.2000,-26.7104,232.694,0.481808
232.1000,-30.0385,232.505,0.47935
232.0000,-27.8647,232.296,0.47661
231.9000,-27.9255,233.793,0.496134
231.8000,-29.605,233.7,0.494925
231.7000,-28.8713,233.364,0.490558
231.6000,-30.9268,234.543,0.505879
231.5000,-32.2541,233.952,0.498211
231.4000,-29.7996,234.615,0.50682
231.3000,-33.6001,234.517,0.505541
231.2000,-34.4609,234.963,0.511329
231.1000,-33.9777,235.638,0.520068
231.0000,-29.5617,235.301,0.515701
230.9000,-32.4589,235.373,0.51664
230.8000,-33.9648,234.995,0.51174
230.7000,-30.4666,235.404,0.517036
230.6000,-34.0223,235.899,0.523435
230.5000,-33.2127,235.559,0.519043
230.4000,-33.347,235.516,0.518486
230.3000,-38.2671,235.829,0.522528
230.2000,-37.4277,235.902,0.523479
230.1000,-33.1238,236.564,0.532014
230.0000,-34.396,236.245,0.527895
229.9000,-33.7084,236.242,0.527866
229.8000,-33.5765,236.7,0.533765
229.7000,-34.6293,237.166,0.539757
229.6000,-40.0729,237.29,0.541359
229.5000,-36.9094,236.861,0.535837
229.4000,-39.6497,237.807,0.547993
229.3000,-38.5157,236.955,0.537046
229.2000,-37.4135,237.738,0.547106
229.1000,-37.8015,238.627,0.558501
229.0000,-40.0271,238.572,0.557791
228.9000,-40.7902,239.103,0.564583
228.8000,-36.1381,239.091,0.564424
228.7000,-39.55,239.508,0.569745
228.6000,-41.7831,239.262,0.566608
228.5000,-39.7224,240.148,0.5779
228.4000,-40.4101,239.883,0.574525
228.3000,-40.7806,240.281,0.579586
228.2000,-43.6612,240.249,0.579183
228.1000,-41.2068,241.16,0.590752
228.0000,-43.1398,240.95,0.588093
227.9000,-42.4292,241.633,0.596753
227.8000,-43.1835,242.078,0.602372
227.7000,-44.852,241.723,0.597886
227.6000,-43.9839,241.774,0.598531
227.5000,-44.7505,242.449,0.607066
227.4000,-42.9799,242.302,0.605206
227.3000,-44.2562,243.092,0.615168
227.2000,-46.7349,242.645,0.60954
227.1000,-45.2151,243.462,0.619832
227.0000,-45.5106,244.372,0.631261
226.9000,-45.2609,244.268,0.629953
226.8000,-46.1555,244.551,0.633506
226.7000,-47.67,244.483,0.632653
226.6000,-46.6495,244.575,0.633804
226.5000,-47.754,244.745,0.635933
226.4000,-46.4039,244.664,0.634926
226.3000,-48.4681,245.4,0.644128
226.2000,-46.1781,245.132,0.640784
226.1000,-49.1708,244.998,0.639097
226.0000,-50.1979,245.937,0.650835
225.9000,-50.8104,245.314,0.643052
225.8000,-46.6705,245.972,0.651273
225.7000,-48.6242,246.56,0.658601
225.6000,-49.3201,247.012,0.664226
225.5000,-47.6921,246.901,0.662845
225.4000,-51.8725,247.168,0.666169
225.3000,-50.0186,247.315,0.667984
225.2000,-49.9754,246.877,0.662549
225.1000,-51.1109,248.113,0.677891
225.0000,-51.2536,247.825,0.674311
224.9000,-49.0146,248.144,0.67827
224.8000,-49.9258,248.203,0.678999
224.7000,-49.0853,248.689,0.685013
224.6000,-52.2315,248.947,0.688205
224.5000,-49.9987,249.963,0.700723
224.4000,-50.7785,249.069,0.689702
224.3000,-51.2992,249.793,0.69863
224.2000,-51.879,249.588,0.696104
224.1000,-53.4248,249.281,0.692317
224.0000,-52.7404,250.666,0.709374
223.9000,-53.8439,250.483,0.707119
223.8000,-51.5901,250.426,0.706423
223.7000,-51.8947,250.865,0.711809
223.6000,-55.3095,250.697,0.70975
223.5000,-54.0484,251.143,0.715228
223.4000,-49.863,251.453,0.719018
223.3000,-55.8805,251.53,0.719962
223.2000,-52.5597,252.536,0.732263
223.1000,-50.0669,252.117,0.727143
223.0000,-53.8952,251.824,0.723568
222.9000,-53.2732,252.521,0.732083
222.8000,-55.1085,253.251,0.740979
222.7000,-53.8857,253.537,0.744468
222.6000,-54.6386,253.749,0.747045
222.5000,-54.7298,254.2,0.752523
222.4000,-54.866,253.892,0.74878
222.3000,-51.7316,254.472,0.755823
222.2000,-52.8559,254.936,0.761439
222.1000,-50.7923,254.546,0.756716
222.0000,-54.3889,254.805,0.759861
221.9000,-56.7116,255.515,0.768444
221.8000,-53.5329,254.48,0.755919
221.7000,-53.8526,255.712,0.770827
221.6000,-51.9699,255.559,0.768979
221.5000,-50.5721,255.952,0.773727
221.4000,-55.4995,256.6,0.781542
221.3000,-51.3378,256.691,0.782634
221.2000,-52.3559,257.015,0.786534
221.1000,-53.6984,256.656,0.782211
221.0000,-54.1022,257.861,0.796701
220.9000,-53.0672,258.369,0.802785
220.8000,-55.6348,257.603,0.793601
220.7000,-53.0471,258.197,0.800722
220.6000,-53.1224,258.537,0.804793
220.5000,-53.2597,259.037,0.810783
220.4000,-53.5435,258.913,0.809293
220.3000,-50.7917,259.069,0.811163
220.2000,-53.7429,259.913,0.821236
220.1000,-54.0974,260.513,0.828373
220.0000,-53.143,260.225,0.824948
219.9000,-52.2791,261.013,0.834325
219.8000,-54.0069,260.407,0.827119
219.7000,-52.6515,260.551,0.828831
219.6000,-54.8469,261.242,0.837042
219.5000,-56.3729,261.332,0.838104
219.4000,-52.5683,262.442,0.851255
219.3000,-50.8463,261.933,0.845235
219.2000,-53.6018,261.417,0.839112
219.1000,-50.0282,262.444,0.851281
219.0000,-53.2209,262.437,0.851188
218.9000,-53.6086,262.664,0.853879
218.8000,-54.9545,262.367,0.85037
218.7000,-53.498,263.261,0.860927
218.6000,-52.4841,263.077,0.858748
218.5000,-54.5883,263.337,0.861822
218.4000,-53.8713,264.247,0.872533
218.3000,-53.5394,264.23,0.872333
218.2000,-55.3015,264.533,0.875888
218.1000,-55.6924,264.801,0.87904
218.0000,-55.7645,264.297,0.873119
217.9000,-47.7772,265.028,0.881699
217.8000,-54.6231,265.44,0.886532
217.7000,-54.1226,265.734,0.889967
217.6000,-53.1582,266.075,0.893955
217.5000,-53.1773,266.345,0.897106
217.4000,-52.8971,266.614,0.900254
217.3000,-56.299,267.924,0.915507
217.2000,-51.5126,268.146,0.918087
217.1000,-53.3964,267.437,0.90984
217.0000,-54.3912,267.73,0.913254
216.9000,-51.3064,268.149,0.918126
216.8000,-54.7562,269.592,0.934839
216.7000,-50.3349,268.785,0.925501
216.6000,-51.3485,269.851,0.937838
216.5000,-55.3971,270.631,0.946833
216.4000,-54.0654,270.191,0.941763
216.3000,-56.2374,270.239,0.942312
216.2000,-52.4327,270.607,0.946558
216.1000,-50.1613,270.119,0.940926
216.0000,-51.8211,271.599,0.957968
215.9000,-49.8151,271.887,0.961286
215.8000,-52.1188,272.115,0.9639
215.7000,-50.7536,272.419,0.967382
215.6000,-54.2796,272.409,0.967265
215.5000,-52.0559,272.919,0.973105
215.4000,-53.324,273.265,0.977071
215.3000,-51.2745,273.038,0.974466
215.2000,-54.394,273.605,0.980955
215.1000,-51.0582,273.382,0.978404
215.0000,-52.6822,273.715,0.98221
214.9000,-56.0581,274.505,0.991215
214.8000,-54.374,274.496,0.991112
214.7000,-54.5579,275.008,0.99694
214.6000,-53.1124,274.751,0.994014
214.5000,-52.8277,275.858,1.00659
214.4000,-54.8269,275.898,1.00705
214.3000,-49.8983,275.99,1.0081
214.2000,-54.6183,276.59,1.01488
214.1000,-53.474,277.29,1.0228
214.0000,-53.4073,277.515,1.02535
213.9000,-52.744,277.404,1.02409
213.8000,-54.0042,278.094,1.03188
213.7000,-57.6957,278.228,1.03338
213.6000,-52.9329,278.744,1.03918
213.5000,-55.2212,278.985,1.0419
213.4000,-52.5347,278.878,1.0407
213.3000,-51.8388,279.087,1.04304
213.2000,-56.7315,279.827,1.05135
213.1000,-49.1562,280.042,1.05376
213.0000,-50.9075,280.167,1.05515
212.9000,-53.8218,280.451,1.05834
212.8000,-54.6478,281.361,1.0685
212.7000,-56.1137,281.482,1.06986
212.6000,-53.4437,280.96,1.06403
212.5000,-52.898,281.945,1.07501
212.4000,-53.0948,282.417,1.08027
212.3000,-52.0569,283.479,1.09206
212.2000,-57.1074,284.02,1.09806
212.1000,-50.6202,284.263,1.10074
212.0000,-56.4681,284.591,1.10438
211.9000,-55.0682,285.263,1.1118
211.8000,-53.1677,284.973,1.1086
211.7000,-53.5629,285.841,1.11817
211.6000,-52.0053,286.166,1.12174
211.5000,-57.5222,286.642,1.12698
211.4000,-57.9013,286.78,1.1285
211.3000,-55.4037,288.77,1.15028
211.2000,-56.9363,288.113,1.1431
211.1000,-58.2933,288.633,1.14879
211.0000,-55.0091,289.344,1.15654
210.9000,-58.8961,289.276,1.1558
210.8000,-57.6155,289.936,1.16299
210.7000,-54.5557,290.773,1.1721
210.6000,-48.5341,291.343,1.17828
210.5000,-56.6054,291.033,1.17491
210.4000,-59.0393,292.053,1.18596
210.3000,-59.2554,292.254,1.18814
210.2000,-56.3288,291.769,1.18289
210.1000,-54.5376,293.356,1.20003
210.0000,-55.352,294.383,1.21109
209.9000,-52.1188,294.407,1.21134
209.8000,-55.433,294.885,1.21648
209.7000,-57.3775,295.639,1.22455
209.6000,-57.6072,296.868,1.23769
209.5000,-55.8945,297.308,1.24238
209.4000,-57.514,298.249,1.2524
209.3000,-56.875,298.351,1.25349
209.2000,-58.7598,298.856,1.25884
209.1000,-61.1825,299.809,1.26894
209.0000,-56.3381,300.962,1.28113
208.9000,-59.3213,300.894,1.28041
208.8000,-59.4593,301.26,1.28427
208.7000,-58.1105,301.696,1.28887
208.6000,-62.7307,302.614,1.29852
208.5000,-51.1012,302.662,1.29902
208.4000,-60.6481,303.165,1.3043
208.3000,-55.98,304.265,1.31582
208.2000,-56.3247,304.903,1.32248
208.1000,-55.6296,306.073,1.33467
208.0000,-55.5024,306.352,1.33757
207.9000,-48.5591,307.505,1.34954
207.8000,-56.8416,308.429,1.3591
207.7000,-54.6398,309.549,1.37067
207.6000,-56.035,309.99,1.37521
207.5000,-57.5305,310.602,1.3815
207.4000,-58.0705,311.216,1.3878
207.3000,-48.5543,311.858,1.39438
207.2000,-49.8059,312.268,1.39858
207.1000,-51.4429,313.493,1.41109
207.0000,-50.1679,314.092,1.41719
206.9000,-51.4535,315.407,1.43056
206.8000,-50.2686,316.627,1.44291
206.7000,-51.1204,317.674,1.45348
206.6000,-49.1958,316.823,1.44489
206.5000,-42.9043,318.067,1.45745
206.4000,-50.5422,318.523,1.46204
206.3000,-46.9089,319.905,1.47592
206.2000,-51.77,321.465,1.49153
206.1000,-46.3406,322.486,1.50171
206.0000,-39.4683,322.618,1.50303
205.9000,-52.9564,323.779,1.51456
205.8000,-49.1909,325.658,1.53317
205.7000,-39.8932,325.058,1.52724
205.6000,-46.8447,327.046,1.54686
205.5000,-42.6952,328.193,1.55813
205.4000,-40.4171,328.447,1.56062
205.3000,-42.705,329.967,1.5755
205.2000,-43.1809,331.091,1.58647
205.1000,-44.5159,332.222,1.59747
205.0000,-41.2352,333.078,1.60577
204.9000,-37.8086,334.299,1.61759
204.8000,-32.2338,335.87,1.63274
204.7000,-33.4399,336.191,1.63584
204.6000,-33.9822,337.425,1.64769
204.5000,-39.6067,338.166,1.65479
204.4000,-31.2858,339.813,1.67051
204.3000,-32.853,340.282,1.67498
204.2000,-23.518,342.095,1.6922
204.1000,-30.3519,343.744,1.70781
204.0000,-24.9101,344.288,1.71294
203.9000,-28.6057,345.664,1.72589
203.8000,-31.0342,347.755,1.7455
203.7000,-26.4635,349.107,1.75812
203.6000,-26.1723,350.816,1.77401
203.5000,-18.4301,350.862,1.77444
203.4000,-25.3264,352.224,1.78706
203.3000,-19.9006,353.006,1.79428
203.2000,-12.2984,354.754,1.81039
203.1000,-17.2615,355.452,1.8168
203.0000,-14.0726,357.422,1.83484
202.9000,-23.6452,359.453,1.85336
202.8000,-9.97403,360.474,1.86263
202.7000,-7.11498,361.706,1.87379
202.6000,-19.8753,362.664,1.88245
202.5000,-21.7112,363.653,1.89137
202.4000,-4.98781,365.869,1.91127
202.3000,-8.99725,367.18,1.923
202.2000,-3.63476,368.898,1.93833
202.1000,-10.6559,370.637,1.95376
202.0000,-8.26577,372.156,1.96721
201.9000,3.69935,373.981,1.9833
201.8000,-5.08658,374.89,1.99129
201.7000,5.56001,377.391,2.01318
201.6000,11.2918,379.369,2.03041
201.5000,7.09842,380.391,2.03929
201.4000,6.56942,382.613,2.05851
201.3000,2.98997,382.084,2.05394
201.2000,10.0396,384.803,2.07736
201.1000,22.306,386.587,2.09265
201.0000,13.7131,389.006,2.1133
200.9000,-0.332734,390.788,2.12843
200.8000,7.96958,393.058,2.14763
200.7000,10.2382,393.155,2.14845
200.6000,20.393,395.487,2.16807
200.5000,9.61471,397.137,2.1819
200.4000,23.3216,399.788,2.20401
200.3000,27.1864,400.511,2.21002
200.2000,16.1837,403.203,2.23231
200.1000,11.8461,405.235,2.24905
200.0000,19.9922,406.913,2.26283
199.9000,12.7604,409.005,2.27993
199.8000,21.4582,411.301,2.29863
199.7000,19.088,412.375,2.30734
199.6000,24.2062,415.794,2.33495
199.5000,24.7391,415.976,2.33642
199.4000,28.8229,417.396,2.34782
199.3000,29.0508,420.205,2.37029
199.2000,20.3012,421.157,2.37787
199.1000,32.0085,422.494,2.3885
199.0000,43.7162,424.632,2.40544
198.9000,40.6141,426.662,2.42146
198.8000,35.9058,430.348,2.45038
198.7000,37.6953,432.168,2.46458
198.6000,35.1977,434.414,2.48203
198.5000,46.0497,435.575,2.49103
198.4000,27.0521,438.12,2.51068
198.3000,36.9169,440.227,2.52687
198.2000,43.634,442.155,2.54163
198.1000,24.7525,443.927,2.55514
198.0000,22.642,446.761,2.57667
197.9000,31.2184,449.159,2.59479
197.8000,35.2948,450.747,2.60675
197.7000,34.0404,452.828,2.62236
197.6000,42.3962,454.954,2.63825
197.5000,29.7518,455.072,2.63913
197.4000,31.1683,457.946,2.66051
197.3000,43.3266,461.324,2.68549
197.2000,29.8475,463.353,2.70042
197.1000,34.8698,465.256,2.71437
197.0000,41.5226,467.3,2.7293
196.9000,36.8441,468.565,2.73852
196.8000,44.356,471.439,2.75937
196.7000,28.8972,474.79,2.78356
196.6000,41.4963,476.353,2.79479
196.5000,30.98,479.292,2.81582
196.4000,27.6653,481.402,2.83085
196.3000,46.7178,484.6,2.85354
196.2000,48.3937,486.013,2.86352
196.1000,42.9355,488.299,2.87961
196.0000,34.0629,490.358,2.89405
195.9000,50.3595,492.573,2.90953
195.8000,27.518,495.74,2.93156
195.7000,22.5547,497.226,2.94185
195.6000,42.1597,499.725,2.95911
195.5000,40.009,501.9,2.97407
195.4000,30.4297,503.226,2.98316
195.3000,46.0406,506.316,3.00427
195.2000,28.587,507.417,3.01177
195.1000,44.0775,509.333,3.02478
195.0000,32.8337,511.697,3.04077
194.9000,39.0211,513.042,3.04984
194.8000,37.3413,515.149,3.06402
194.7000,34.6674,516.204,3.0711
194.6000,32.5222,518.263,3.08488
194.5000,36.8382,519.653,3.09415
194.4000,36.0389,521.875,3.10894
194.3000,31.4456,525.204,3.13099
194.2000,22.7981,526.752,3.1412
194.1000,41.7945,528.945,3.15563
194.0000,41.7512,530.583,3.16637
193.9000,38.1017,533.065,3.18259
193.8000,46.9454,535.853,3.20074
193.7000,25.9313,537.787,3.21328
193.6000,41.1293,539.225,3.22258
193.5000,33.5791,541.906,3.23987
193.4000,26.5065,543.521,3.25024
193.3000,24.8355,544.457,3.25624
193.2000,39.1376,545.513,3.263
193.1000,33.0889,547.229,3.27396
193.0000,25.6688,549.124,3.28604
192.9000,38.3008,551.714,3.30248
192.8000,33.2606,552.762,3.30912
192.7000,22.7369,555.558,3.32676
192.6000,23.8596,558.191,3.34331
192.5000,23.1606,559.897,3.35401
192.4000,32.1185,562.245,3.36867
192.3000,29.4063,564.067,3.38001
192.2000,21.8207,566.737,3.39658
192.1000,15.0084,567.592,3.40187
192.0000,25.2046,569.472,3.41348
191.9000,25.5212,571.739,3.42744
191.8000,28.6333,573.15,3.43611
191.7000,24.318,575.944,3.45321
191.6000,36.2593,577.888,3.46507
191.5000,27.579,579.027,3.472
191.4000,24.4716,581.092,3.48454
191.3000,27.0429,583.863,3.5013
191.2000,15.9145,585.841,3.51323
191.1000,25.5086,588.494,3.52917
191.0000,16.5934,591.145,3.54504
190.9000,20.4883,594.411,3.56451
190.8000,21.6503,595.754,3.57249
190.7000,30.0637,599.89,3.59697
190.6000,19.4039,602.352,3.61147
190.5000,25.7777,603.824,3.62012
190.4000,19.741,606.728,3.63713
190.3000,14.1078,609.228,3.65171
190.2000,15.1571,611.4,3.66434
190.1000,25.8329,613.854,3.67856
190.0000,25.0524,616.113,3.69162

##### Extended Information
[Comments]
Sample name,SL_IM_PB
Comment
User,Lahoff
Division
Company,Saint Mary's College

[Detailed Information]
Creation date,9/27/2022 5:12 PM

Data array type,Linear data array * 3
Horizontal axis,Wavelength [nm]
Vertical axis(1),CD [mdeg]
Vertical axis(2),HT [V]
Vertical axis(3),Abs
Start,320 nm
End,190 nm
Data interval,0.1 nm
Data points,1301    

[Measurement Information]
Instrument name,J-1500
Model name,J-1500
Serial No.,B051061638

Detector,PM-539
Detector S/N,B051061638
  Lock-in amp.,X mode
  HT volt,Auto

Accessory,PTC-517
Accessory S/N,B026561646
  Temperature,21.76 C
  Control sensor,Holder
  Monitor sensor,Holder

Measurement date,9/27/2022 5:12 PM

CD Overload detect,985
Photometric mode,CD, HT, Abs
Measure range,320 - 190 nm
Data pitch,0.1 nm
CD scale,20 mdeg/0.05 dOD
FL scale,20 mdeg/0.05 dOD
D.I.T.,8 msec
Bandwidth,2.00 nm
Start mode,Immediately
Scanning mode,Continuous
Scanning speed,100 nm/min
Baseline correction,None
Shutter control,Auto
No. of cycle,1/1
N2 Flowmeter,Manual

Solvent,KCl buffer

