TITLE,SL_IM_PA
DATA TYPE,
ORIGIN,JASCO
OWNER,
DATE,22/09/27
TIME,17:22:01
SPECTROMETER/DATA SYSTEM,
LOCALE,1033
RESOLUTION,
DELTAX,-0.1
XUNITS,NANOMETERS
YUNITS,CD [mdeg]
Y2UNITS,HT [V]
Y3UNITS,ABSORBANCE
FIRSTX,  320.0000
LASTX,  190.0000
NPOINTS,    1301
FIRSTY,     0.91512
MAXY,    46.81266
MINY,   -77.27593
XYDATA
320.0000,0.915123,207.418,0.135862
319.9000,4.27333,206.492,0.122545
319.8000,1.41096,206.081,0.116613
319.7000,3.10822,206.53,0.123084
319.6000,2.4582,206.249,0.119033
319.5000,2.33773,206.76,0.126397
319.4000,1.98871,205.864,0.113471
319.3000,2.22138,206.44,0.121794
319.2000,2.23932,208.396,0.149875
319.1000,2.20489,207.076,0.130945
319.0000,0.905175,205.984,0.115206
318.9000,3.44178,206.619,0.124374
318.8000,1.00376,207.38,0.135309
318.7000,2.21583,208.132,0.146097
318.6000,1.40412,205.429,0.10718
318.5000,0.0406886,207.218,0.132981
318.4000,1.17087,207.198,0.132704
318.3000,1.07223,206.594,0.124015
318.2000,1.15358,206.15,0.117611
318.1000,-0.557929,206.019,0.115713
318.0000,2.14319,206.725,0.125891
317.9000,1.15673,205.848,0.113242
317.8000,1.42708,206.724,0.125875
317.7000,2.25944,206.913,0.128599
317.6000,1.98879,205.577,0.109327
317.5000,1.07185,207.546,0.1377
317.4000,1.76617,206.683,0.125288
317.3000,-0.812701,207.203,0.132769
317.2000,1.40758,208.071,0.145221
317.1000,2.50378,208.273,0.148108
317.0000,1.61682,205.971,0.115026
316.9000,3.2606,206.248,0.119017
316.8000,1.23911,206.34,0.12034
316.7000,3.51787,207.009,0.129984
316.6000,0.985611,206.55,0.123378
316.5000,2.07407,206.081,0.116613
316.4000,1.07194,207.169,0.132281
316.3000,-0.0892949,207.699,0.139894
316.2000,1.03392,206.27,0.119343
316.1000,1.34891,206.089,0.116727
316.0000,0.69271,207.255,0.133518
315.9000,1.63462,206.398,0.12119
315.8000,0.848913,206.686,0.125337
315.7000,1.6182,205.886,0.113799
315.6000,1.22353,206.1,0.116891
315.5000,1.58522,205.571,0.109246
315.4000,1.21325,206.89,0.128272
315.3000,2.12067,206.032,0.11591
315.2000,2.07249,206.347,0.120455
315.1000,0.638481,205.758,0.111949
315.0000,0.0654279,206.881,0.128142
314.9000,2.39876,205.971,0.115026
314.8000,1.61404,205.827,0.112948
314.7000,2.20026,206.338,0.120324
314.6000,1.71769,206.325,0.120128
314.5000,1.36757,206.077,0.116548
314.4000,0.950794,207.093,0.131189
314.3000,2.36103,206.666,0.125043
314.2000,1.49357,206.439,0.121778
314.1000,2.04272,206.218,0.118592
314.0000,0.9612,206.576,0.123753
313.9000,2.70493,206.351,0.120504
313.8000,2.27291,206.705,0.125614
313.7000,0.579301,206.473,0.122268
313.6000,0.793735,207.323,0.134495
313.5000,2.7367,206.214,0.118526
313.4000,1.75705,205.376,0.106425
313.3000,1.46007,207.201,0.132737
313.2000,0.0484677,205.68,0.110818
313.1000,2.20992,206.954,0.129185
313.0000,0.0859446,206.113,0.117071
312.9000,1.26509,204.715,0.096834
312.8000,1.71564,206.422,0.121533
312.7000,1.01606,206.274,0.119393
312.6000,2.31071,206.594,0.124015
312.5000,2.29693,205.714,0.11131
312.4000,0.338254,206.733,0.126006
312.3000,1.11918,206.191,0.118199
312.2000,0.345697,206.241,0.118919
312.1000,1.47247,205.762,0.111998
312.0000,1.74707,206.304,0.119834
311.9000,0.546567,206.664,0.12501
311.8000,0.153787,204.734,0.0971135
311.7000,1.91464,207.287,0.133974
311.6000,2.76696,206.034,0.115926
311.5000,2.14899,205.916,0.114224
311.4000,1.80517,206.486,0.122447
311.3000,2.43628,205.852,0.113308
311.2000,0.869009,205.304,0.105376
311.1000,1.86724,207.414,0.135797
311.0000,0.316206,206.648,0.124782
310.9000,1.16596,206.287,0.119589
310.8000,0.310106,206.336,0.120291
310.7000,-1.06423,206.136,0.117398
310.6000,-0.357421,207.57,0.138041
310.5000,0.479971,206.749,0.126234
310.4000,2.02154,207.271,0.133746
310.3000,1.85422,206.242,0.118935
310.2000,0.643559,206.327,0.12016
310.1000,2.54924,206.196,0.118265
310.0000,1.7642,206.295,0.119703
309.9000,1.17604,206.239,0.118886
309.8000,2.46313,206.074,0.116515
309.7000,1.35935,206.497,0.122611
309.6000,2.96294,206.681,0.125255
309.5000,1.68103,206.495,0.122578
309.4000,1.04928,207.948,0.143468
309.3000,1.96638,206.153,0.117643
309.2000,1.57721,206.528,0.123052
309.1000,1.08562,205.917,0.114241
309.0000,0.936701,206.44,0.121794
308.9000,0.0973151,206.366,0.120716
308.8000,1.96169,205.856,0.113357
308.7000,1.62231,207.025,0.130212
308.6000,1.77319,206.431,0.121664
308.5000,0.769469,206.32,0.120063
308.4000,1.23266,206.04,0.116024
308.3000,0.2834,206.15,0.117611
308.2000,0.609131,206.376,0.120863
308.1000,0.543717,207.308,0.134283
308.0000,0.461675,206.383,0.120961
307.9000,1.19779,205.654,0.110442
307.8000,1.25671,206.508,0.122774
307.7000,0.510511,206.014,0.115648
307.6000,-0.150813,205.862,0.113455
307.5000,1.31661,206.309,0.119899
307.4000,1.0669,206.335,0.120275
307.3000,1.00804,204.838,0.0986259
307.2000,0.999639,205.855,0.11334
307.1000,1.25863,206.008,0.11555
307.0000,0.430318,206.336,0.120291
306.9000,1.58553,206.392,0.121092
306.8000,1.98339,206.519,0.122921
306.7000,1.11193,207.032,0.13031
306.6000,1.17444,206.419,0.121484
306.5000,1.61248,205.587,0.109475
306.4000,0.904227,206.189,0.118167
306.3000,1.92949,206.274,0.119393
306.2000,1.32793,205.997,0.115403
306.1000,2.12956,205.627,0.110049
306.0000,-2.2155,205.21,0.104013
305.9000,1.49116,206.444,0.121843
305.8000,1.11743,206.985,0.129641
305.7000,1.56847,205.098,0.102388
305.6000,1.30521,207.181,0.13246
305.5000,0.525142,205.516,0.108442
305.4000,-0.396551,204.68,0.0963239
305.3000,0.236269,206.592,0.123982
305.2000,0.499089,206.346,0.120438
305.1000,0.739553,205.959,0.114846
305.0000,0.17671,206.225,0.11869
304.9000,1.15384,205.976,0.115092
304.8000,2.17382,205.838,0.113095
304.7000,1.19736,205.662,0.110556
304.6000,2.32739,205.371,0.106343
304.5000,1.32014,206.854,0.127751
304.4000,1.06801,206.601,0.124113
304.3000,0.433961,204.172,0.088948
304.2000,1.82624,206.643,0.124716
304.1000,1.48301,206.549,0.123362
304.0000,0.757882,206.369,0.120765
303.9000,1.42166,207.124,0.131629
303.8000,2.26108,206.08,0.116597
303.7000,0.973175,205.944,0.114634
303.6000,1.92376,205.847,0.113226
303.5000,1.32338,206.432,0.12168
303.4000,3.11119,206.168,0.117872
303.3000,0.403578,206.238,0.118869
303.2000,1.46383,206.008,0.11555
303.1000,0.451702,206.164,0.117807
303.0000,0.00704409,206.18,0.118036
302.9000,-0.0741909,206.567,0.123623
302.8000,1.0029,205.397,0.106721
302.7000,1.37176,206.205,0.118396
302.6000,0.661914,206.698,0.1255
302.5000,0.901993,205.393,0.106671
302.4000,1.92899,206.088,0.116711
302.3000,1.74937,205.384,0.10654
302.2000,1.46388,206.193,0.118232
302.1000,2.43073,206.475,0.1223
302.0000,1.22721,206.172,0.117921
301.9000,-0.60697,205.913,0.114192
301.8000,1.90539,205.643,0.110278
301.7000,0.645312,205.89,0.113848
301.6000,0.660062,205.632,0.11013
301.5000,0.704759,205.935,0.114503
301.4000,0.0320338,206.121,0.117186
301.3000,1.59907,206.15,0.117611
301.2000,1.28726,206.597,0.124047
301.1000,1.3659,206.624,0.124439
301.0000,0.521532,205.544,0.108852
300.9000,1.34509,206.148,0.117578
300.8000,1.07859,206.209,0.118461
300.7000,-0.00479952,205.959,0.114846
300.6000,1.27812,205.333,0.105802
300.5000,1.61846,206.194,0.118248
300.4000,1.15681,205.941,0.114584
300.3000,0.803194,205.666,0.110622
300.2000,1.52332,205.22,0.104161
300.1000,1.00786,206.023,0.115779
300.0000,2.77032,205.691,0.110982
299.9000,-0.320674,205.843,0.113177
299.8000,1.64759,205.87,0.11357
299.7000,2.67948,205.483,0.107967
299.6000,2.49215,205.698,0.11108
299.5000,1.40867,205.483,0.107967
299.4000,1.1082,206.363,0.120684
299.3000,1.64669,205.507,0.108311
299.2000,1.15898,206.018,0.115697
299.1000,1.34094,205.847,0.113226
299.0000,1.78347,206.001,0.115452
298.9000,2.92147,205.392,0.106655
298.8000,0.177935,204.757,0.0974424
298.7000,1.62501,206.283,0.119523
298.6000,0.214946,206.362,0.120667
298.5000,0.592151,205.749,0.111818
298.4000,0.752383,205.771,0.112129
298.3000,1.28855,206.359,0.120618
298.2000,1.3982,205.78,0.11226
298.1000,1.87438,205.958,0.11483
298.0000,1.29223,205.384,0.10654
297.9000,-0.0837067,205.191,0.103735
297.8000,2.45613,207.292,0.134056
297.7000,0.520107,205.321,0.105622
297.6000,0.865301,206.267,0.119295
297.5000,1.08452,205.325,0.105687
297.4000,1.18605,205.176,0.103521
297.3000,2.811,206.285,0.119556
297.2000,1.52876,206.373,0.12083
297.1000,1.99023,207.392,0.135487
297.0000,3.40888,205.087,0.10224
296.9000,2.78247,203.805,0.0836039
296.8000,0.705293,205.434,0.107262
296.7000,-0.807947,206.455,0.122007
296.6000,1.33888,205.194,0.103784
296.5000,1.21443,205.783,0.112309
296.4000,2.47408,206.8,0.126968
296.3000,2.35968,206.219,0.118608
296.2000,1.46454,206.247,0.119
296.1000,0.867705,206.059,0.116286
296.0000,0.64788,206.126,0.117267
295.9000,0.617059,205.753,0.111867
295.8000,1.97652,206.08,0.116597
295.7000,1.8641,205.757,0.111932
295.6000,1.23701,205.745,0.111752
295.5000,2.69192,205.16,0.103291
295.4000,1.6656,205.348,0.106015
295.3000,0.968425,205.875,0.113635
295.2000,0.920008,205.171,0.103455
295.1000,0.813927,206.571,0.123672
295.0000,1.41517,205.11,0.102569
294.9000,-1.07432,205.858,0.113389
294.8000,0.252827,205.543,0.108836
294.7000,0.503495,205.277,0.104982
294.6000,2.14879,205.57,0.109229
294.5000,1.30781,204.207,0.0894588
294.4000,1.29166,206.48,0.122366
294.3000,-1.13295,203.745,0.0827289
294.2000,1.15676,205.818,0.112816
294.1000,1.47247,205.221,0.104178
294.0000,2.08386,206.686,0.125337
293.9000,1.16983,206.014,0.115648
293.8000,0.993609,205.127,0.102815
293.7000,1.4388,205.906,0.114077
293.6000,-1.04162,204.78,0.0977876
293.5000,1.46566,205.439,0.107327
293.4000,1.28392,205.674,0.110737
293.3000,1.81935,205.925,0.114355
293.2000,-0.676252,205.183,0.10362
293.1000,1.68529,204.723,0.096949
293.0000,1.28593,206.57,0.123656
292.9000,-0.372993,205.421,0.107065
292.8000,1.22118,204.17,0.0889148
292.7000,1.70198,204.921,0.0998258
292.6000,1.61382,205.316,0.105556
292.5000,2.16226,204.757,0.0974424
292.4000,1.16157,206.277,0.119441
292.3000,0.148932,207.24,0.133306
292.2000,0.220777,207.084,0.131059
292.1000,2.09677,205.908,0.11411
292.0000,0.255923,205.06,0.101846
291.9000,1.32226,206.412,0.121386
291.8000,2.01818,205.819,0.112833
291.7000,2.04116,205.805,0.11262
291.6000,0.636855,205.042,0.101583
291.5000,2.03425,204.746,0.0972943
291.4000,2.24148,204.247,0.0900355
291.3000,1.9957,206.372,0.120814
291.2000,0.301751,205.8,0.112554
291.1000,0.0897126,205.568,0.109196
291.0000,1.93608,205.713,0.111294
290.9000,-0.0175847,204.793,0.0979684
290.8000,1.17776,205.631,0.110114
290.7000,0.122908,205.134,0.102914
290.6000,0.0569326,205.269,0.104867
290.5000,0.179646,205.372,0.10636
290.4000,1.2562,204.778,0.0977548
290.3000,1.8765,205.456,0.107573
290.2000,-1.00159,206.27,0.119343
290.1000,0.947337,206.094,0.116793
290.0000,1.66386,206.998,0.129821
289.9000,1.47512,205.494,0.108131
289.8000,-0.197643,205.911,0.114159
289.7000,3.06482,205.866,0.113504
289.6000,1.29684,205.632,0.11013
289.5000,1.72121,205.818,0.112816
289.4000,0.315061,206.148,0.117578
289.3000,1.46573,206.258,0.119164
289.2000,1.65317,206.099,0.116875
289.1000,-0.243783,205.619,0.109934
289.0000,-0.460257,206.469,0.122202
288.9000,1.26427,206.359,0.120618
288.8000,1.67611,206.546,0.123313
288.7000,0.233275,206.499,0.122643
288.6000,0.156261,206.26,0.119196
288.5000,1.62804,205.879,0.1137
288.4000,1.44408,205.733,0.111588
288.3000,0.0875774,206.483,0.122415
288.2000,3.26243,206.208,0.118444
288.1000,1.35559,205.651,0.110393
288.0000,2.63367,206.12,0.117169
287.9000,1.15159,206.155,0.117676
287.8000,0.899599,205.7,0.111113
287.7000,2.86394,205.784,0.112325
287.6000,2.30193,206.732,0.125989
287.5000,1.51965,205.963,0.114912
287.4000,0.346179,205.461,0.107655
287.3000,1.09173,205.917,0.114241
287.2000,0.691687,207.227,0.133111
287.1000,1.46897,206.446,0.121876
287.0000,0.908319,205.637,0.110196
286.9000,0.285482,205.626,0.110032
286.8000,0.658911,205.968,0.114977
286.7000,0.949348,207.032,0.13031
286.6000,1.03887,206.871,0.127995
286.5000,1.44076,207.273,0.133779
286.4000,1.15449,205.824,0.112898
286.3000,0.276383,205.738,0.111654
286.2000,1.94459,206.108,0.117006
286.1000,2.27276,206.897,0.12837
286.0000,1.71359,206.691,0.125402
285.9000,1.47004,206.268,0.119311
285.8000,1.80529,205.992,0.115321
285.7000,1.22546,205.327,0.105704
285.6000,0.266824,206.852,0.127718
285.5000,2.88558,207.057,0.130668
285.4000,0.880258,205.627,0.110049
285.3000,1.25875,207.464,0.136512
285.2000,-0.361977,206.502,0.122676
285.1000,1.54488,206.163,0.11779
285.0000,1.05916,206.733,0.126006
284.9000,0.41108,205.443,0.107393
284.8000,0.154252,206.285,0.119556
284.7000,0.991719,205.246,0.104539
284.6000,1.61014,206.371,0.120798
284.5000,-0.973723,206.124,0.117234
284.4000,0.183236,206.777,0.126642
284.3000,2.15983,205.816,0.112784
284.2000,2.16648,207.281,0.133893
284.1000,0.722265,207.648,0.139163
284.0000,-0.102189,205.993,0.115337
283.9000,0.381758,205.453,0.107541
283.8000,-0.0369819,206.418,0.121467
283.7000,2.00691,206.355,0.120569
283.6000,1.69375,207.152,0.132037
283.5000,1.49367,205.293,0.105212
283.4000,1.09346,206.63,0.124521
283.3000,1.77389,205.467,0.107737
283.2000,1.36959,206.658,0.124929
283.1000,0.37912,206.409,0.121337
283.0000,1.97382,206.581,0.123819
282.9000,1.92501,205.979,0.115141
282.8000,0.384431,207.326,0.134544
282.7000,2.57113,206.564,0.123574
282.6000,0.975429,206.771,0.12656
282.5000,3.26388,206.504,0.122709
282.4000,1.05251,207.018,0.130114
282.3000,1.1125,207.224,0.133079
282.2000,0.969199,206.526,0.123035
282.1000,-0.383771,206.632,0.124553
282.0000,0.477323,206.24,0.118902
281.9000,2.262,206.574,0.123721
281.8000,2.30547,206.528,0.123052
281.7000,-0.04433,207.008,0.129967
281.6000,1.64096,206.651,0.124831
281.5000,0.645288,206.871,0.127995
281.4000,1.8693,206.78,0.126691
281.3000,1.14756,205.221,0.104178
281.2000,2.05741,208.661,0.153665
281.1000,1.96813,206.604,0.124145
281.0000,0.367865,207.145,0.131939
280.9000,0.136746,205.802,0.112587
280.8000,0.990822,207.38,0.135309
280.7000,0.309834,207.264,0.133649
280.6000,0.312885,207.026,0.130228
280.5000,-0.0601868,206.615,0.124308
280.4000,1.72391,206.076,0.116531
280.3000,1.04934,206.796,0.126919
280.2000,0.17389,206.956,0.129218
280.1000,-1.22599,206.39,0.121075
280.0000,0.619835,206.354,0.120553
279.9000,1.74658,205.278,0.104998
279.8000,0.958192,206.866,0.12793
279.7000,2.06849,206.64,0.124667
279.6000,0.4473,206.673,0.125141
279.5000,1.21593,206.423,0.121549
279.4000,0.77734,206.047,0.116122
279.3000,1.62401,206.864,0.127897
279.2000,2.17527,206.588,0.123917
279.1000,2.24146,207.108,0.131401
279.0000,2.78789,206.303,0.119817
278.9000,2.18225,206.971,0.12943
278.8000,1.42164,206.486,0.122447
278.7000,0.782907,206.376,0.120863
278.6000,0.080353,206.149,0.117594
278.5000,1.04591,206.976,0.129511
278.4000,0.772937,207.703,0.139943
278.3000,0.0888408,205.497,0.108164
278.2000,0.0765146,207.025,0.130212
278.1000,-0.57092,206.606,0.124178
278.0000,-0.829772,206.262,0.119229
277.9000,0.00994661,206.38,0.120929
277.8000,0.101591,207.924,0.14311
277.7000,1.01819,207.913,0.142964
277.6000,1.70143,206.862,0.127865
277.5000,0.314787,207.127,0.131678
277.4000,1.30475,207.368,0.135146
277.3000,0.845881,207.001,0.12987
277.2000,0.123299,206.278,0.119458
277.1000,1.55841,205.776,0.112211
277.0000,1.66512,206.34,0.12034
276.9000,0.89016,207.166,0.132232
276.8000,-0.12565,207.292,0.134056
276.7000,0.264127,206.722,0.125859
276.6000,0.912056,208.225,0.147427
276.5000,0.975459,206.738,0.126087
276.4000,0.894991,206.366,0.120716
276.3000,-0.0364778,207.396,0.135536
276.2000,-1.12302,206.418,0.121467
276.1000,0.262496,206.225,0.11869
276.0000,0.630577,206.269,0.119327
275.9000,-0.465754,205.848,0.113242
275.8000,1.89939,206.12,0.117169
275.7000,3.08917,206.874,0.128044
275.6000,-0.625592,206.758,0.126364
275.5000,0.716598,206.88,0.128126
275.4000,0.319162,205.915,0.114208
275.3000,0.831773,206.625,0.124455
275.2000,2.03518,207.317,0.134413
275.1000,0.426295,207.111,0.13145
275.0000,1.77385,206.955,0.129202
274.9000,1.08968,207.741,0.140495
274.8000,2.0851,206.736,0.126054
274.7000,-0.163213,206.42,0.1215
274.6000,0.169132,206.321,0.120079
274.5000,1.48873,206.506,0.122741
274.4000,1.13031,207.052,0.130603
274.3000,0.389536,207.094,0.131206
274.2000,0.550733,206.576,0.123753
274.1000,0.972438,205.872,0.113586
274.0000,-2.23883,206.754,0.126316
273.9000,-0.596476,206.659,0.124945
273.8000,0.272385,206.828,0.127376
273.7000,0.974597,206.5,0.12266
273.6000,0.02485,206.896,0.128354
273.5000,0.279423,206.295,0.119703
273.4000,1.15278,206.083,0.116646
273.3000,0.700909,206.166,0.11784
273.2000,1.96927,207.398,0.135569
273.1000,2.22989,206.532,0.123117
273.0000,-0.221888,206.588,0.123917
272.9000,1.04416,206.061,0.116319
272.8000,-0.202737,206.79,0.126837
272.7000,0.149793,206.395,0.121141
272.6000,-0.783641,207.203,0.132769
272.5000,1.43587,206.045,0.11609
272.4000,1.18913,206.386,0.12101
272.3000,1.68635,207.077,0.130962
272.2000,-0.141657,209.47,0.165206
272.1000,1.24224,205.753,0.111867
272.0000,-0.427412,206.632,0.124553
271.9000,1.42782,207.326,0.134544
271.8000,0.790872,206.874,0.128044
271.7000,0.266137,206.283,0.119523
271.6000,0.502435,206.541,0.123247
271.5000,1.64934,206.626,0.124472
271.4000,-0.879249,206.707,0.12563
271.3000,-0.26597,206.814,0.12718
271.2000,1.4227,205.959,0.114846
271.1000,-0.239245,206.849,0.127685
271.0000,-0.00553086,206.802,0.127
270.9000,1.09157,207.053,0.130619
270.8000,1.12803,206.267,0.119295
270.7000,0.767379,207.239,0.13329
270.6000,-0.728947,207.994,0.144117
270.5000,1.06383,207.675,0.139553
270.4000,-0.575371,206.088,0.116711
270.3000,1.02852,206.993,0.129756
270.2000,-0.613066,206.84,0.127555
270.1000,-0.728406,207.317,0.134413
270.0000,0.428877,207.013,0.130033
269.9000,1.88482,207.977,0.143873
269.8000,0.92769,206.762,0.12643
269.7000,2.73726,206.463,0.122121
269.6000,1.34774,206.166,0.11784
269.5000,-0.366301,207.45,0.136317
269.4000,2.88712,207.142,0.13189
269.3000,-0.248025,207.2,0.13272
269.2000,-0.357633,206.846,0.127637
269.1000,1.52565,207.303,0.134202
269.0000,1.82135,207.524,0.137374
268.9000,0.219999,206.906,0.1285
268.8000,1.08292,207.776,0.140999
268.7000,-0.644564,207.607,0.138578
268.6000,1.70904,207.865,0.142266
268.5000,-0.757715,206.311,0.119932
268.4000,2.00752,206.685,0.12532
268.3000,0.940871,206.494,0.122562
268.2000,0.815783,207.745,0.140544
268.1000,0.840639,207.167,0.132248
268.0000,0.669867,207.986,0.144003
267.9000,-0.0223145,206.849,0.127685
267.8000,-0.140743,207.466,0.136545
267.7000,-0.1707,207.175,0.132362
267.6000,1.31712,207.508,0.137147
267.5000,0.256189,208.53,0.151787
267.4000,0.00610693,208.24,0.147638
267.3000,0.0239112,209.07,0.159505
267.2000,-0.451647,207.675,0.139553
267.1000,1.22352,209.259,0.162203
267.0000,0.668762,207.92,0.143062
266.9000,-0.348489,208.127,0.146032
266.8000,1.12829,208.377,0.149599
266.7000,0.256913,208.014,0.144409
266.6000,0.528016,207.701,0.139927
266.5000,2.34196,207.453,0.136366
266.4000,-0.304018,207.44,0.136171
266.3000,1.50629,207.573,0.13809
266.2000,0.410604,208.165,0.146567
266.1000,0.0150069,208.394,0.149842
266.0000,1.40615,208.063,0.145107
265.9000,0.729285,208.347,0.149178
265.8000,0.373664,207.568,0.138009
265.7000,1.74735,207.654,0.139244
265.6000,-1.33343,208.023,0.144539
265.5000,-0.166047,207.588,0.138301
265.4000,-0.908354,208.134,0.146129
265.3000,0.861225,207.823,0.141665
265.2000,-0.0342943,208.419,0.150199
265.1000,0.367764,207.459,0.136447
265.0000,0.603522,208.343,0.149113
264.9000,1.76136,208.287,0.148319
264.8000,-0.679025,208.507,0.151463
264.7000,0.999788,208.052,0.144945
264.6000,0.248645,208.188,0.146892
264.5000,0.715292,207.89,0.142623
264.4000,2.66248,208.107,0.14574
264.3000,-1.62585,207.992,0.144085
264.2000,-0.644522,208.121,0.145935
264.1000,1.40642,208.831,0.156093
264.0000,0.589818,207.763,0.140804
263.9000,-1.21987,207.45,0.136317
263.8000,1.06391,208.317,0.14874
263.7000,1.3894,207.934,0.143257
263.6000,-0.145119,208.423,0.150264
263.5000,1.00755,208.342,0.149097
263.4000,-0.564741,207.718,0.140171
263.3000,0.649071,208.188,0.146892
263.2000,0.110628,208.326,0.14887
263.1000,0.149957,208.542,0.151965
263.0000,-0.391702,207.748,0.140593
262.9000,0.749321,207.873,0.14238
262.8000,0.882163,208.751,0.154944
262.7000,-0.430337,209.17,0.160927
262.6000,0.61971,208.311,0.148659
262.5000,0.0975946,209.184,0.161121
262.4000,0.679575,208.85,0.156368
262.3000,-1.32015,207.671,0.139488
262.2000,0.106789,208.883,0.156837
262.1000,0.503412,208.941,0.157662
262.0000,-0.106154,209.466,0.165141
261.9000,0.695608,208.771,0.155235
261.8000,1.8353,209.597,0.167013
261.7000,0.809112,208.697,0.154183
261.6000,-0.648768,208.639,0.153341
261.5000,0.209603,208.395,0.149859
261.4000,1.18343,207.484,0.136805
261.3000,0.562734,209.335,0.163285
261.2000,0.10335,209.429,0.164625
261.1000,-0.284685,209.185,0.161137
261.0000,-0.115771,208.378,0.149615
260.9000,-0.304234,208.745,0.154863
260.8000,0.645519,209.306,0.162865
260.7000,2.04476,209.522,0.165948
260.6000,0.459602,209.831,0.170334
260.5000,0.335648,209.281,0.16251
260.4000,-0.163998,209.221,0.161654
260.3000,1.02977,210.141,0.174747
260.2000,-1.34791,208.712,0.154393
260.1000,2.6733,209.282,0.162526
260.0000,0.220795,210.034,0.173234
259.9000,0.350805,210.473,0.17946
259.8000,0.107389,209.431,0.164641
259.7000,0.351813,209.402,0.164237
259.6000,-0.126548,208.794,0.155559
259.5000,-0.227028,209.117,0.160168
259.4000,-1.03579,209.257,0.162171
259.3000,0.574155,209.657,0.167868
259.2000,1.21948,209.33,0.163204
259.1000,-0.244565,208.211,0.147232
259.0000,-0.294274,208.035,0.144701
258.9000,0.868474,209.469,0.16519
258.8000,0.447739,210.003,0.172783
258.7000,1.66772,210.51,0.17999
258.6000,1.16675,210.492,0.179733
258.5000,-0.820519,209.419,0.16448
258.4000,1.51896,210.184,0.175359
258.3000,1.69816,209.603,0.167093
258.2000,1.93509,209.663,0.167948
258.1000,-0.655511,209.069,0.159489
258.0000,1.61514,209.775,0.169544
257.9000,-0.439641,210.317,0.177241
257.8000,0.894761,210.577,0.180938
257.7000,1.94969,210.831,0.184536
257.6000,-0.0575443,210.355,0.177788
257.5000,1.46603,210.403,0.178463
257.4000,0.671284,210.373,0.178045
257.3000,-0.389578,210.076,0.173829
257.2000,1.30655,209.423,0.164528
257.1000,0.720978,210.048,0.173427
257.0000,0.338107,210.673,0.182304
256.9000,0.308845,209.964,0.172235
256.8000,1.6322,209.514,0.165835
256.7000,0.87624,210,0.172751
256.6000,1.59521,210.576,0.180922
256.5000,0.332934,210.399,0.178415
256.4000,0.838578,209.835,0.170398
256.3000,0.869183,210.347,0.177675
256.2000,-0.812155,210.918,0.185772
256.1000,-0.772065,210.26,0.176436
256.0000,-0.174846,210.556,0.180633
255.9000,-0.468244,209.959,0.172155
255.8000,-0.118347,210.139,0.174715
255.7000,-0.346641,210.519,0.180119
255.6000,-0.573085,210.609,0.181388
255.5000,-0.574111,210.227,0.17597
255.4000,0.55975,209.232,0.161815
255.3000,2.94559,209.445,0.164851
255.2000,-0.795067,210.209,0.175712
255.1000,0.143147,210.618,0.181517
255.0000,1.12749,210.748,0.183364
254.9000,0.727868,210.816,0.184327
254.8000,0.88524,210.567,0.180794
254.7000,1.44216,210.528,0.180248
254.6000,-0.0643821,210.898,0.185483
254.5000,-0.303874,211.043,0.187537
254.4000,-0.926178,211.029,0.187344
254.3000,1.00542,209.475,0.165271
254.2000,1.59654,211.727,0.197211
254.1000,-1.12965,210.826,0.184472
254.0000,0.299161,211.054,0.187697
253.9000,1.4903,211.194,0.189669
253.8000,-0.204633,211.092,0.188226
253.7000,-0.0757985,211.07,0.187921
253.6000,0.578966,210.616,0.181485
253.5000,0.189203,211.166,0.189284
253.4000,1.43814,211.814,0.198443
253.3000,-0.46773,210.568,0.18081
253.2000,-1.81781,211.523,0.19433
253.1000,1.95622,210.604,0.181324
253.0000,-0.219341,211.737,0.197355
252.9000,2.22455,211.98,0.200776
252.8000,0.972528,210.885,0.185306
252.7000,-0.331321,211.907,0.199753
252.6000,1.20875,211.804,0.198299
252.5000,-0.398514,211.503,0.194042
252.4000,0.604968,211.55,0.194715
252.3000,0.771697,211.601,0.195435
252.2000,-0.787727,211.273,0.190791
252.1000,-0.481029,211.412,0.192761
252.0000,1.10771,211.882,0.199402
251.9000,-0.129414,212.494,0.208024
251.8000,2.32098,211.579,0.195115
251.7000,0.184299,212.418,0.206955
251.6000,0.153203,212.444,0.207323
251.5000,1.06643,212.495,0.20804
251.4000,-0.409938,211.272,0.190775
251.3000,-1.79124,211.469,0.193562
251.2000,0.828707,211.076,0.188001
251.1000,0.2141,211.458,0.193402
251.0000,0.61047,212.5,0.208104
250.9000,2.07463,211.7,0.196827
250.8000,0.115153,212.557,0.208901
250.7000,1.51821,212.101,0.202486
250.6000,0.927484,212.066,0.201991
250.5000,1.29686,212.005,0.201128
250.4000,-0.728951,212.248,0.204562
250.3000,0.671511,211.238,0.190294
250.2000,0.226961,211.487,0.193818
250.1000,0.151233,211.028,0.187328
250.0000,2.1791,212.801,0.212344
249.9000,-2.10707,212.767,0.211866
249.8000,-0.903675,212.058,0.201879
249.7000,1.03868,212.451,0.207418
249.6000,-0.590193,212.349,0.205982
249.5000,0.620796,212.336,0.205791
249.4000,-0.134285,211.941,0.200233
249.3000,0.522418,211.601,0.195435
249.2000,1.68927,213.823,0.226684
249.1000,0.44624,212.719,0.211181
249.0000,0.664562,212.086,0.202278
248.9000,-0.711105,213.113,0.216722
248.8000,-0.108941,212.366,0.206222
248.7000,0.231119,213.008,0.215242
248.6000,1.15066,213.74,0.22551
248.5000,-0.0733489,212.468,0.207657
248.4000,-0.508925,213.638,0.224081
248.3000,-0.559268,214.015,0.229365
248.2000,-2.63808,213.426,0.22111
248.1000,1.55607,212.784,0.212105
248.0000,-1.12141,212.558,0.208917
247.9000,-1.13768,212.611,0.209667
247.8000,-0.549525,213.608,0.223668
247.7000,-1.00871,212.877,0.213411
247.6000,-0.96528,213.289,0.219187
247.5000,-0.449062,213.936,0.228255
247.4000,-0.924801,213.413,0.220936
247.3000,-0.864839,213.218,0.218201
247.2000,-0.944651,213.053,0.215878
247.1000,-0.175316,213.522,0.222461
247.0000,-0.612274,213.965,0.228667
246.9000,-0.130771,213.002,0.215162
246.8000,-0.00839454,213.304,0.21941
246.7000,0.253372,214.23,0.232376
246.6000,-0.847292,213.513,0.222334
246.5000,-1.60664,213.466,0.221682
246.4000,0.0573768,214.067,0.230094
246.3000,-1.41825,214.138,0.231092
246.2000,-1.12907,213.838,0.22689
246.1000,-1.92372,213.163,0.217422
246.0000,-1.0665,213.02,0.215417
245.9000,-2.6591,213.522,0.222461
245.8000,-2.18774,214.903,0.241774
245.7000,-0.471211,212.483,0.207865
245.6000,-3.9607,214.049,0.22984
245.5000,-1.11952,213.661,0.224414
245.4000,-1.90924,214.637,0.238059
245.3000,-2.12564,214.421,0.235036
245.2000,-2.59058,213.385,0.220538
245.1000,-1.51926,214.569,0.23711
245.0000,-1.61467,214.389,0.234593
244.9000,-0.274455,215.873,0.255275
244.8000,-1.64933,214.189,0.231806
244.7000,-1.14587,213.762,0.225827
244.6000,-0.941607,214.72,0.239213
244.5000,-2.71798,215.099,0.244507
244.4000,-2.62409,214.401,0.234767
244.3000,-3.54623,215.414,0.248893
244.2000,-1.67642,214.686,0.238739
244.1000,-1.96866,215.867,0.255196
244.0000,0.104677,213.751,0.225669
243.9000,-3.79264,214.404,0.234799
243.8000,-2.52351,214.912,0.241901
243.7000,-0.881118,214.8,0.240336
243.6000,-2.92711,215.648,0.252141
243.5000,-4.96797,215.502,0.250108
243.4000,-6.14767,215.407,0.248799
243.3000,-3.27134,215.38,0.24842
243.2000,-3.97831,216.709,0.266875
243.1000,-3.93777,217.323,0.27537
243.0000,-3.05799,216.229,0.260215
242.9000,-3.33017,213.984,0.228937
242.8000,-3.94466,215.913,0.255826
242.7000,-4.7682,216.01,0.257179
242.6000,-3.79047,215.418,0.248941
242.5000,-3.76352,215.593,0.251384
242.4000,-4.37379,217.602,0.279219
242.3000,-5.01513,215.658,0.252282
242.2000,-4.87805,216.15,0.259114
242.1000,-4.28725,215.151,0.245233
242.0000,-6.07613,215.89,0.255511
241.9000,-3.89428,217.56,0.278641
241.8000,-4.52537,215.608,0.251589
241.7000,-5.55272,216.901,0.269526
241.6000,-4.16257,218.432,0.29065
241.5000,-5.23409,216.512,0.264143
241.4000,-4.33693,217.761,0.281408
241.3000,-5.25259,217.115,0.272488
241.2000,-4.09753,216.833,0.268585
241.1000,-5.89707,217.265,0.274556
241.0000,-5.40858,217.243,0.274258
240.9000,-7.57116,217.589,0.279032
240.8000,-6.5512,218.295,0.288763
240.7000,-7.73991,217.508,0.277921
240.6000,-6.07821,217.897,0.283283
240.5000,-9.58061,218.761,0.295184
240.4000,-6.74993,218.279,0.288545
240.3000,-8.3508,218.811,0.295869
240.2000,-6.85721,219.618,0.306937
240.1000,-8.77289,218.884,0.296865
240.0000,-7.43886,218.181,0.287203
239.9000,-7.81831,219.438,0.304468
239.8000,-9.84865,218.424,0.290541
239.7000,-8.28305,219.429,0.304344
239.6000,-7.86127,219.419,0.304204
239.5000,-8.52128,218.924,0.297426
239.4000,-8.07549,220.215,0.315108
239.3000,-9.70116,220.512,0.319163
239.2000,-11.3514,220.444,0.318234
239.1000,-9.38723,220.404,0.317693
239.0000,-11.0061,219.417,0.304189
238.9000,-9.77004,220.246,0.315526
238.8000,-8.80686,220.273,0.315897
238.7000,-10.3776,219.886,0.310614
238.6000,-10.5339,220.734,0.322193
238.5000,-11.6853,220.929,0.324851
238.4000,-8.96443,221.014,0.326009
238.3000,-11.8728,220.379,0.317352
238.2000,-12.4674,220.786,0.322904
238.1000,-11.5648,221.537,0.333136
238.0000,-13.6967,221.853,0.337433
237.9000,-13.7756,221.815,0.336909
237.8000,-13.5627,222.252,0.342847
237.7000,-13.5809,221.957,0.338833
237.6000,-15.2684,221.959,0.338864
237.5000,-15.2327,222.105,0.340848
237.4000,-15.7072,222.555,0.346948
237.3000,-13.5957,221.443,0.331856
237.2000,-16.6517,222.414,0.345044
237.1000,-15.6601,223.321,0.357312
237.0000,-14.3999,223.195,0.355612
236.9000,-15.7863,224.253,0.369889
236.8000,-17.0383,224.322,0.37082
236.7000,-16.032,223.435,0.358857
236.6000,-17.4257,223.658,0.361871
236.5000,-15.8052,224.205,0.369233
236.4000,-17.8983,224.622,0.374844
236.3000,-19.9655,224.875,0.378255
236.2000,-17.2083,224.67,0.375499
236.1000,-16.8009,224.477,0.372893
236.0000,-19.8958,225.477,0.386329
235.9000,-19.1307,226.098,0.394642
235.8000,-19.1928,225.535,0.387103
235.7000,-20.0074,226.512,0.400169
235.6000,-19.5438,226.482,0.399776
235.5000,-20.23,225.639,0.3885
235.4000,-20.8911,224.85,0.37792
235.3000,-23.2897,227.672,0.415631
235.2000,-21.1093,226.206,0.396082
235.1000,-23.0372,227.165,0.408889
235.0000,-23.1595,227.554,0.414063
234.9000,-22.3108,227.736,0.416489
234.8000,-24.2392,227.436,0.412495
234.7000,-24.184,228.88,0.431657
234.6000,-23.5619,227.986,0.419802
234.5000,-22.5989,228.211,0.422795
234.4000,-22.9738,228.991,0.433127
234.3000,-24.1662,228.82,0.430862
234.2000,-26.8516,228.327,0.424329
234.1000,-28.2695,228.677,0.428971
234.0000,-27.1635,227.966,0.419546
233.9000,-26.7666,230.022,0.446747
233.8000,-27.0127,230.739,0.456192
233.7000,-29.4081,228.324,0.424299
233.6000,-29.7811,230.1,0.447778
233.5000,-28.7491,230.162,0.448599
233.4000,-28.4803,229.879,0.444864
233.3000,-26.8198,232.251,0.476017
233.2000,-30.9732,230.827,0.457354
233.1000,-29.0244,231.676,0.468495
233.0000,-30.7241,231.683,0.468584
232.9000,-32.302,231.556,0.46692
232.8000,-31.2002,232.137,0.474535
232.7000,-34.2317,231.114,0.461121
232.6000,-31.956,231.851,0.470781
232.5000,-34.0338,232.896,0.484455
232.4000,-33.2823,232.74,0.482414
232.3000,-34.8233,233.125,0.487441
232.2000,-37.8475,232.538,0.47978
232.1000,-35.5476,234.251,0.502099
232.0000,-35.8249,233.967,0.498403
231.9000,-34.1668,233.846,0.496827
231.8000,-37.0367,234.148,0.500759
231.7000,-37.0276,235.897,0.523406
231.6000,-36.804,235.731,0.521269
231.5000,-38.5402,234.968,0.511388
231.4000,-41.1147,234.768,0.508803
231.3000,-37.9167,235.315,0.515892
231.2000,-37.9711,234.673,0.507569
231.1000,-38.9177,236.989,0.537484
231.0000,-38.7533,236.471,0.530817
230.9000,-37.2573,236.129,0.526404
230.8000,-41.12,236.726,0.534101
230.7000,-40.5643,236.453,0.530583
230.6000,-40.0907,236.514,0.531372
230.5000,-41.3415,236.544,0.531751
230.4000,-40.1525,237.611,0.545477
230.3000,-40.8028,237.086,0.538737
230.2000,-42.2273,237.281,0.541243
230.1000,-42.2315,237.227,0.540543
230.0000,-43.7994,238.584,0.55795
229.9000,-42.303,237.052,0.5383
229.8000,-44.2999,238.216,0.553236
229.7000,-46.4301,238.206,0.553105
229.6000,-45.3956,239.944,0.575304
229.5000,-45.8343,241.179,0.590997
229.4000,-44.5551,239.499,0.569629
229.3000,-47.8688,239.319,0.567331
229.2000,-47.2987,239.815,0.573659
229.1000,-44.6255,239.79,0.573341
229.0000,-49.5064,240.551,0.583029
228.9000,-48.7104,239.755,0.572894
228.8000,-49.4327,240.506,0.582453
228.7000,-50.1145,240.613,0.583806
228.6000,-46.7948,241.212,0.591413
228.5000,-53.0735,242.002,0.601412
228.4000,-47.5916,242.223,0.604204
228.3000,-52.1834,242.523,0.607996
228.2000,-52.0416,243.527,0.620644
228.1000,-54.0848,243.292,0.617693
228.0000,-53.5906,244.999,0.639111
227.9000,-53.3403,243.468,0.619903
227.8000,-55.3501,244.007,0.626682
227.7000,-51.4354,244.058,0.627322
227.6000,-53.9469,244.441,0.632128
227.5000,-57.3538,245.292,0.642782
227.4000,-55.2413,244.247,0.629698
227.3000,-57.8926,244.925,0.638189
227.2000,-55.5239,244.107,0.627934
227.1000,-53.2664,245.743,0.648417
227.0000,-57.2552,246.796,0.661534
226.9000,-56.2905,246.101,0.652884
226.8000,-58.4605,246.44,0.657106
226.7000,-58.9846,247.545,0.67084
226.6000,-59.246,247.137,0.665775
226.5000,-57.6898,246.319,0.655595
226.4000,-60.4542,247.3,0.667801
226.3000,-57.2028,247.643,0.672063
226.2000,-57.8509,247.529,0.670643
226.1000,-57.7597,248.077,0.677442
226.0000,-60.2332,248.496,0.682631
225.9000,-57.3194,248.61,0.684033
225.8000,-60.5048,249.913,0.700109
225.7000,-58.1196,248.52,0.682926
225.6000,-61.2132,249.055,0.689534
225.5000,-60.5861,250.213,0.703804
225.4000,-60.9408,249.006,0.688933
225.3000,-63.428,249.365,0.693365
225.2000,-63.3327,250.683,0.709583
225.1000,-60.8167,250.909,0.712351
225.0000,-64.1994,250.94,0.71274
224.9000,-60.1335,252.221,0.728417
224.8000,-63.3782,251.655,0.721502
224.7000,-64.3009,251.669,0.721669
224.6000,-61.5909,251.803,0.723305
224.5000,-60.1847,252.352,0.730022
224.4000,-62.2157,252.83,0.735857
224.3000,-65.3307,252.822,0.73576
224.2000,-67.2695,253.352,0.742207
224.1000,-62.3097,253.365,0.742373
224.0000,-63.8456,253.76,0.747169
223.9000,-66.8241,253.49,0.743889
223.8000,-66.3485,253.937,0.749331
223.7000,-65.7693,254.625,0.757678
223.6000,-63.5389,255.903,0.773139
223.5000,-65.0593,254.012,0.750239
223.4000,-66.7661,254.175,0.752221
223.3000,-64.4121,256.272,0.777582
223.2000,-67.1009,255.935,0.773522
223.1000,-65.6468,256.428,0.779467
223.0000,-64.5698,256.226,0.777035
222.9000,-66.6,256.73,0.783111
222.8000,-63.2975,256.659,0.782251
222.7000,-65.8104,255.893,0.773016
222.6000,-66.9891,257.741,0.79526
222.5000,-63.3106,257.834,0.796375
222.4000,-65.7712,258.567,0.805159
222.3000,-65.6684,257.788,0.795818
222.2000,-70.0713,258.158,0.800261
222.1000,-69.2121,259.276,0.813639
222.0000,-69.0598,258.733,0.807139
221.9000,-67.2156,258.947,0.8097
221.8000,-69.1023,259.514,0.81648
221.7000,-67.4269,260.417,0.82724
221.6000,-65.5145,258.899,0.809131
221.5000,-66.6496,260.379,0.826782
221.4000,-68.4601,260.311,0.825973
221.3000,-67.5572,260.693,0.830515
221.2000,-64.9765,260.476,0.827941
221.1000,-65.6357,261.572,0.840953
221.0000,-66.8895,262.297,0.84954
220.9000,-66.6123,261.467,0.839703
220.8000,-62.574,261.859,0.84435
220.7000,-65.2097,262.723,0.854575
220.6000,-65.8161,262.099,0.847194
220.5000,-67.296,262.253,0.849017
220.4000,-65.5965,263.444,0.863077
220.3000,-69.2354,263.243,0.860713
220.2000,-67.7261,263.947,0.869001
220.1000,-67.0459,262.693,0.854214
220.0000,-65.8792,264.393,0.874251
219.9000,-65.5089,264.817,0.879226
219.8000,-64.0095,265.975,0.89279
219.7000,-70.9292,266.104,0.8943
219.6000,-65.6823,265.499,0.887222
219.5000,-64.3217,266.144,0.894763
219.4000,-65.3752,266.98,0.904522
219.3000,-65.0241,266.513,0.899077
219.2000,-68.631,266.63,0.900439
219.1000,-67.8374,267.959,0.915915
219.0000,-70.229,266.689,0.901127
218.9000,-65.764,267.19,0.906964
218.8000,-68.7711,267.667,0.912516
218.7000,-67.7406,268.373,0.920717
218.6000,-64.7043,268.087,0.917402
218.5000,-64.1648,269.966,0.93916
218.4000,-67.6127,268.854,0.926302
218.3000,-66.0345,269.49,0.93366
218.2000,-69.54,269.545,0.934302
218.1000,-67.8012,270.795,0.948726
218.0000,-69.1528,270.53,0.94567
217.9000,-65.1274,271.171,0.953056
217.8000,-67.169,270.664,0.947211
217.7000,-62.3321,271.456,0.956327
217.6000,-65.0497,271.233,0.95376
217.5000,-62.4203,272.095,0.963666
217.4000,-64.9901,273.387,0.978456
217.3000,-64.9299,272.538,0.968745
217.2000,-63.8963,272.325,0.966304
217.1000,-66.3797,272.872,0.972573
217.0000,-66.5578,273.459,0.979285
216.9000,-63.5042,274.334,0.989266
216.8000,-67.1646,274.882,0.99551
216.7000,-64.785,275.271,0.999929
216.6000,-64.4385,275.194,0.999053
216.5000,-67.698,275.383,1.0012
216.4000,-65.0049,275.38,1.00116
216.3000,-68.8228,276.25,1.01104
216.2000,-63.7918,276.22,1.0107
216.1000,-64.6309,276.793,1.01718
216.0000,-65.5966,276.567,1.01463
215.9000,-65.3656,277.656,1.02693
215.8000,-67.9996,278.303,1.03423
215.7000,-66.1068,277.294,1.02285
215.6000,-66.5238,278.12,1.03217
215.5000,-66.6176,278.799,1.03981
215.4000,-63.9778,279.931,1.05251
215.3000,-64.4039,279.674,1.04963
215.2000,-64.6763,280.615,1.06018
215.1000,-64.9165,278.676,1.03842
215.0000,-67.2673,281.162,1.06628
214.9000,-62.7047,280.676,1.06085
214.8000,-63.8823,281.883,1.07433
214.7000,-62.8955,281.074,1.0653
214.6000,-63.5831,282.24,1.0783
214.5000,-67.5497,282.085,1.07657
214.4000,-64.6198,281.277,1.06757
214.3000,-62.5557,282.853,1.08512
214.2000,-64.413,283.134,1.08824
214.1000,-64.644,283.499,1.09229
214.0000,-63.1554,283.397,1.09115
213.9000,-62.3644,283.645,1.09391
213.8000,-64.4517,283.791,1.09553
213.7000,-62.9401,285.836,1.1181
213.6000,-70.6117,284.212,1.10018
213.5000,-65.5905,285.775,1.11744
213.4000,-65.3013,285.507,1.11448
213.3000,-67.0414,287.78,1.13946
213.2000,-66.8823,287.452,1.13587
213.1000,-62.9409,286.986,1.13075
213.0000,-67.0093,287.915,1.14093
212.9000,-69.1281,288.711,1.14964
212.8000,-66.2203,288.639,1.14885
212.7000,-60.444,288.989,1.15267
212.6000,-70.3934,288.924,1.15197
212.5000,-67.2321,290.167,1.16551
212.4000,-64.3285,290.345,1.16744
212.3000,-65.6394,291.067,1.17528
212.2000,-68.6174,292.788,1.1939
212.1000,-67.742,291.63,1.18138
212.0000,-64.5545,293.982,1.20677
211.9000,-69.2978,292.41,1.18982
211.8000,-68.4393,292.95,1.19565
211.7000,-71.017,294.646,1.21391
211.6000,-65.5974,295.122,1.21902
211.5000,-63.8602,295.189,1.21973
211.4000,-67.5484,295.826,1.22655
211.3000,-67.7853,296.396,1.23265
211.2000,-62.574,297.42,1.24358
211.1000,-69.4439,297.488,1.2443
211.0000,-74.42,298.683,1.25701
210.9000,-69.3192,297.385,1.2432
210.8000,-61.375,299.746,1.26828
210.7000,-67.2548,300.585,1.27715
210.6000,-70.2431,299.848,1.26936
210.5000,-62.7398,299.94,1.27033
210.4000,-71.4509,300.614,1.27746
210.3000,-66.2376,302.272,1.29492
210.2000,-71.4547,302.326,1.29549
210.1000,-71.3109,302.476,1.29707
210.0000,-71.3665,303.686,1.30976
209.9000,-73.4067,305.048,1.32399
209.8000,-72.2293,303.509,1.30791
209.7000,-73.3885,305.229,1.32588
209.6000,-66.0524,305.619,1.32994
209.5000,-72.2052,306.891,1.34317
209.4000,-67.6966,307.451,1.34898
209.3000,-73.4157,308.403,1.35883
209.2000,-65.2463,309.657,1.37178
209.1000,-72.7495,310.579,1.38127
209.0000,-66.5641,310.85,1.38405
208.9000,-67.0645,312.058,1.39643
208.8000,-68.5497,311.493,1.39064
208.7000,-69.3632,312.796,1.40397
208.6000,-72.5848,312.758,1.40359
208.5000,-73.2186,313.87,1.41493
208.4000,-72.7369,314.594,1.4223
208.3000,-75.6368,315.874,1.4353
208.2000,-68.7299,316.52,1.44183
208.1000,-77.2759,317.288,1.4496
208.0000,-67.6557,319.277,1.46962
207.9000,-70.0572,319.71,1.47396
207.8000,-68.1482,322.191,1.49877
207.7000,-65.8875,321.572,1.4926
207.6000,-72.4169,322.643,1.50328
207.5000,-68.7396,323.124,1.50806
207.4000,-63.2886,323.572,1.51251
207.3000,-69.5646,324.074,1.5175
207.2000,-62.6092,325.781,1.53438
207.1000,-65.2043,326.919,1.54561
207.0000,-60.7329,328.457,1.56072
206.9000,-59.8844,328.671,1.56282
206.8000,-65.5959,329.011,1.56615
206.7000,-65.8251,330.332,1.57907
206.6000,-65.1003,331.073,1.58629
206.5000,-63.4911,332.132,1.59659
206.4000,-61.8131,333.967,1.61439
206.3000,-58.5331,334.249,1.61711
206.2000,-57.3572,337.708,1.6504
206.1000,-54.7709,337.769,1.65098
206.0000,-55.4194,336.606,1.63982
205.9000,-52.9302,338.839,1.66122
205.8000,-62.9037,340.066,1.67293
205.7000,-54.9404,341.002,1.68184
205.6000,-48.3935,343.779,1.70814
205.5000,-55.9647,344.249,1.71257
205.4000,-52.4907,345.638,1.72565
205.3000,-51.6148,345.642,1.72569
205.2000,-46.1026,346.22,1.73112
205.1000,-41.8252,348.921,1.75638
205.0000,-42.4957,350.917,1.77494
204.9000,-35.3013,350.828,1.77412
204.8000,-47.0571,353.026,1.79447
204.7000,-41.9973,353.551,1.79931
204.6000,-41.6928,354.546,1.80847
204.5000,-32.0876,356.918,1.83024
204.4000,-46.0692,358.171,1.84168
204.3000,-34.0868,359.125,1.85037
204.2000,-46.4236,360.836,1.86591
204.1000,-42.179,363.528,1.89024
204.0000,-33.6162,364.121,1.89559
203.9000,-38.3962,365.461,1.90762
203.8000,-17.084,367.863,1.9291
203.7000,-26.6584,369.207,1.94107
203.6000,-35.7862,371.012,1.95709
203.5000,-21.8894,372.95,1.97422
203.4000,-27.3885,373.922,1.98278
203.3000,-30.4266,375.261,1.99454
203.2000,-23.0412,377.501,2.01414
203.1000,-14.3436,378.13,2.01962
203.0000,-13.9026,381.435,2.04832
202.9000,-20.9095,383.413,2.06541
202.8000,-21.0326,383.879,2.06942
202.7000,-37.4848,384.259,2.07269
202.6000,-17.6441,384.879,2.07802
202.5000,-15.6158,388.981,2.11308
202.4000,-18.2876,390.181,2.12328
202.3000,2.4668,391.018,2.13038
202.2000,-15.2024,393.547,2.15176
202.1000,-5.69192,395.416,2.16747
202.0000,-11.0401,397.515,2.18506
201.9000,-5.49606,398.933,2.19689
201.8000,-8.97841,402.747,2.22854
201.7000,-15.4361,404.583,2.24369
201.6000,3.12163,405.559,2.25172
201.5000,-10.0626,408.268,2.27392
201.4000,4.37313,410.639,2.29325
201.3000,-0.0923895,412.516,2.30848
201.2000,22.5936,414.413,2.32382
201.1000,14.2509,415.057,2.32902
201.0000,2.14245,417.473,2.34844
200.9000,11.0172,420.788,2.37494
200.8000,13.7708,422.495,2.38851
200.7000,4.68294,424.089,2.40115
200.6000,11.9755,425.686,2.41376
200.5000,19.8743,428.974,2.43962
200.4000,16.1265,431.59,2.46008
200.3000,10.509,434.216,2.48051
200.2000,22.445,435.11,2.48744
200.1000,12.5933,438.079,2.51036
200.0000,14.1652,440.453,2.5286
199.9000,15.5973,442.961,2.54779
199.8000,18.1958,445.971,2.57068
199.7000,18.978,448.512,2.58991
199.6000,21.4239,449.893,2.60033
199.5000,15.6947,453.054,2.62405
199.4000,28.1404,454.91,2.63792
199.3000,25.9701,457.235,2.65523
199.2000,31.122,459.696,2.67347
199.1000,26.8722,461.706,2.6883
199.0000,37.5858,463.401,2.70077
198.9000,29.0358,466.014,2.71991
198.8000,26.8788,469.755,2.74717
198.7000,31.8822,472.966,2.77042
198.6000,21.6415,474.375,2.78057
198.5000,43.8556,478.728,2.81179
198.4000,18.2428,481.276,2.82996
198.3000,34.5559,482.938,2.84177
198.2000,20.6172,486.907,2.86982
198.1000,29.5651,487.359,2.873
198.0000,42.4286,490.532,2.89527
197.9000,31.0124,493.817,2.9182
197.8000,27.8718,496.047,2.93369
197.7000,25.7999,499.76,2.95935
197.6000,43.9436,501.163,2.969
197.5000,28.6772,504.664,2.993
197.4000,35.2181,506.064,3.00255
197.3000,27.799,509.426,3.02541
197.2000,36.8989,511.982,3.0427
197.1000,15.6667,515.747,3.06804
197.0000,31.3727,518.445,3.0861
196.9000,38.0134,520.658,3.10085
196.8000,39.1486,523.723,3.12119
196.7000,28.038,526.525,3.13971
196.6000,34.2825,530.441,3.16544
196.5000,34.0958,532.727,3.18039
196.4000,18.2387,535.181,3.19637
196.3000,30.229,538.715,3.21928
196.2000,17.9164,541.908,3.23988
196.1000,34.004,544.417,3.25599
196.0000,40.5866,547.795,3.27758
195.9000,28.7402,550.76,3.29643
195.8000,35.5748,552.722,3.30886
195.7000,13.2137,556.09,3.33011
195.6000,30.962,559.069,3.34882
195.5000,40.3933,561.599,3.36464
195.4000,37.7887,563.702,3.37774
195.3000,39.1234,566.115,3.39272
195.2000,25.0593,567.951,3.40409
195.1000,43.2155,570.733,3.42125
195.0000,34.1601,573.568,3.43867
194.9000,32.0693,575.003,3.44746
194.8000,20.5754,577.591,3.46326
194.7000,46.8127,580.937,3.4836
194.6000,44.32,582,3.49004
194.5000,44.3182,584.637,3.50597
194.4000,17.2186,587.943,3.52587
194.3000,33.4984,589.204,3.53343
194.2000,35.5329,591.944,3.54981
194.1000,18.6641,595.419,3.5705
194.0000,24.9181,597.914,3.58529
193.9000,22.4426,600.437,3.6002
193.8000,28.1543,602.74,3.61375
193.7000,17.5884,606.13,3.63363
193.6000,41.704,609.298,3.65212
193.5000,27.5092,609.663,3.65424
193.4000,15.0969,612.244,3.66924
193.3000,12.2446,614.23,3.68074
193.2000,28.1156,615.447,3.68777
193.1000,17.1426,617.449,3.69932
193.0000,31.5471,619.83,3.713
192.9000,28.5827,621.694,3.72368
192.8000,32.3529,624.549,3.74
192.7000,19.3899,625.581,3.74588
192.6000,26.6489,630.007,3.771
192.5000,31.317,632.735,3.78642
192.4000,19.9859,633.943,3.79322
192.3000,19.5292,636.046,3.80504
192.2000,22.5208,638.406,3.81827
192.1000,36.1013,640.517,3.83007
192.0000,32.5435,642.112,3.83896
191.9000,11.3254,644.685,3.85326
191.8000,28.0369,647.034,3.86628
191.7000,28.0172,648.137,3.87238
191.6000,21.5859,650.186,3.88368
191.5000,18.0177,651.989,3.8936
191.4000,23.1478,653.718,3.9031
191.3000,16.1241,657.382,3.92315
191.2000,14.3282,659.214,3.93313
191.1000,21.186,662.456,3.95075
191.0000,15.6507,665.658,3.96808
190.9000,21.968,668.253,3.98207
190.8000,16.677,671.664,4.00039
190.7000,13.4538,673.857,4.01212
190.6000,8.51898,677.341,4.0307
190.5000,3.33392,678.535,4.03705
190.4000,39.7059,680.997,4.05011
190.3000,17.1745,683.938,4.06566
190.2000,26.0996,685.701,4.07495
190.1000,27.7983,687.461,4.08421
190.0000,5.59629,689.78,4.09638

##### Extended Information
[Comments]
Sample name,SL_IM_PA
Comment
User,Lahoff
Division
Company,Saint Mary's College

[Detailed Information]
Creation date,9/27/2022 5:22 PM

Data array type,Linear data array * 3
Horizontal axis,Wavelength [nm]
Vertical axis(1),CD [mdeg]
Vertical axis(2),HT [V]
Vertical axis(3),Abs
Start,320 nm
End,190 nm
Data interval,0.1 nm
Data points,1301    

[Measurement Information]
Instrument name,J-1500
Model name,J-1500
Serial No.,B051061638

Detector,PM-539
Detector S/N,B051061638
  Lock-in amp.,X mode
  HT volt,Auto

Accessory,PTC-517
Accessory S/N,B026561646
  Temperature,21.88 C
  Control sensor,Holder
  Monitor sensor,Holder

Measurement date,9/27/2022 5:21 PM

CD Overload detect,934
Photometric mode,CD, HT, Abs
Measure range,320 - 190 nm
Data pitch,0.1 nm
CD scale,20 mdeg/0.05 dOD
FL scale,20 mdeg/0.05 dOD
D.I.T.,8 msec
Bandwidth,2.00 nm
Start mode,Immediately
Scanning mode,Continuous
Scanning speed,100 nm/min
Baseline correction,None
Shutter control,Auto
No. of cycle,1/1
N2 Flowmeter,Manual

Solvent,KCl buffer

