TITLE,SL_IM_PB
DATA TYPE,
ORIGIN,JASCO
OWNER,
DATE,22/09/27
TIME,17:11:16
SPECTROMETER/DATA SYSTEM,
LOCALE,1033
RESOLUTION,
DELTAX,-0.1
XUNITS,NANOMETERS
YUNITS,CD [mdeg]
Y2UNITS,HT [V]
Y3UNITS,ABSORBANCE
FIRSTX,  320.0000
LASTX,  190.0000
NPOINTS,    1301
FIRSTY,    -0.00203
MAXY,    58.02629
MINY,   -64.80973
XYDATA
320.0000,-0.0020336,207.22,0.133014
319.9000,1.36696,207.885,0.142558
319.8000,-0.0724322,207.3,0.134169
319.7000,2.24291,207.155,0.132085
319.6000,1.34344,206.947,0.129088
319.5000,2.59343,208.955,0.157856
319.4000,0.159912,207.492,0.136919
319.3000,3.17495,208.013,0.144393
319.2000,1.58064,206.819,0.127245
319.1000,2.62398,207.349,0.134869
319.0000,0.563854,207.539,0.137602
318.9000,-1.56476,206.593,0.123998
318.8000,1.99675,206.824,0.127327
318.7000,1.03907,206.592,0.123982
318.6000,0.928001,208.669,0.153779
318.5000,0.808442,207.542,0.137635
318.4000,1.10483,207.934,0.143257
318.3000,2.52333,206.741,0.12612
318.2000,0.326212,206.621,0.12439
318.1000,1.81314,207.26,0.133583
318.0000,-0.55295,207.342,0.134771
317.9000,0.311511,207.38,0.135309
317.8000,1.90945,208.013,0.144393
317.7000,0.729282,206.701,0.125549
317.6000,1.38556,207.704,0.139959
317.5000,1.32727,207.731,0.140349
317.4000,1.48058,206.88,0.128126
317.3000,1.05327,208.227,0.147459
317.2000,0.229554,207.833,0.141811
317.1000,1.95368,207.061,0.130733
317.0000,1.37217,206.035,0.115943
316.9000,1.71769,207.087,0.131108
316.8000,1.47806,207.234,0.133209
316.7000,1.27169,206.444,0.121843
316.6000,0.17423,208.852,0.156384
316.5000,-1.02698,206.488,0.12248
316.4000,1.62585,205.525,0.108574
316.3000,0.493664,207.927,0.143159
316.2000,0.166481,207.776,0.140999
316.1000,3.31391,206.908,0.128533
316.0000,1.00496,206.771,0.12656
315.9000,0.654689,207.368,0.135146
315.8000,2.28411,207.303,0.134202
315.7000,1.60081,206.394,0.121124
315.6000,1.57313,206.599,0.12408
315.5000,0.959117,207.707,0.140008
315.4000,0.137577,208.257,0.147881
315.3000,2.41242,206.336,0.120291
315.2000,0.412285,207.584,0.138236
315.1000,1.21804,207.048,0.130538
315.0000,1.43934,207.297,0.13412
314.9000,1.37711,206.515,0.122872
314.8000,1.20468,207.79,0.141194
314.7000,1.75912,206.352,0.12052
314.6000,-0.731837,206.06,0.116302
314.5000,2.60639,206.504,0.122709
314.4000,0.539431,206.16,0.117758
314.3000,0.199906,206.866,0.12793
314.2000,0.524607,207.478,0.136724
314.1000,1.45286,207.621,0.138773
314.0000,1.23047,206.779,0.126674
313.9000,2.20271,206.232,0.118788
313.8000,0.758282,206.543,0.12328
313.7000,1.60504,206.133,0.117365
313.6000,1.89205,205.938,0.114552
313.5000,0.459556,207.339,0.134723
313.4000,1.50245,206.803,0.127017
313.3000,2.36307,206.87,0.127979
313.2000,1.44157,205.627,0.110049
313.1000,0.52283,205.852,0.113308
313.0000,1.28578,206.809,0.127098
312.9000,2.16306,206.057,0.11627
312.8000,2.36883,206.461,0.122088
312.7000,0.878482,206.673,0.125141
312.6000,0.958526,205.432,0.107229
312.5000,0.18481,207.598,0.138448
312.4000,0.945764,206.293,0.11967
312.3000,-0.180345,205.525,0.108574
312.2000,1.44514,206.403,0.121255
312.1000,0.420395,206.67,0.125108
312.0000,1.6068,206.197,0.118281
311.9000,1.35583,206.843,0.127587
311.8000,-0.723785,205.438,0.107311
311.7000,2.45554,207.359,0.135015
311.6000,-0.360287,206.936,0.128925
311.5000,0.640262,206.063,0.116351
311.4000,0.510837,206.363,0.120684
311.3000,0.391439,207.245,0.133372
311.2000,-0.145015,206.562,0.123541
311.1000,1.66496,205.196,0.103817
311.0000,1.84901,206.908,0.128533
310.9000,0.352157,205.383,0.106524
310.8000,1.44505,205.934,0.114486
310.7000,0.851335,205.555,0.109016
310.6000,1.72306,206.285,0.119556
310.5000,1.97645,207.415,0.135813
310.4000,1.09986,207.093,0.131189
310.3000,-0.519152,205.67,0.110671
310.2000,1.15278,207.342,0.134771
310.1000,0.802037,206.688,0.125369
310.0000,1.75296,207.653,0.139228
309.9000,0.138839,207.487,0.136854
309.8000,0.926068,207.169,0.132281
309.7000,-0.058258,206.746,0.126201
309.6000,0.878753,207.533,0.137505
309.5000,1.81074,206.746,0.126201
309.4000,0.911566,206.933,0.128892
309.3000,1.09247,207.444,0.136236
309.2000,1.31577,205.575,0.109294
309.1000,-0.589855,206.819,0.127245
309.0000,0.89224,207.02,0.130147
308.9000,2.26217,207.263,0.133632
308.8000,0.740735,206.73,0.125973
308.7000,-0.200968,207.047,0.130521
308.6000,1.81317,206.865,0.127914
308.5000,1.24512,207.385,0.13539
308.4000,2.33536,206.931,0.128859
308.3000,2.50284,206.502,0.122676
308.2000,2.07274,206.973,0.129462
308.1000,0.871603,206.64,0.124667
308.0000,0.784964,207.204,0.132786
307.9000,0.0563347,206.855,0.127767
307.8000,1.77916,206.602,0.124129
307.7000,2.07991,206.894,0.128321
307.6000,2.20051,206.75,0.12625
307.5000,0.80891,205.963,0.114912
307.4000,2.84459,205.719,0.111375
307.3000,2.7645,205.449,0.107475
307.2000,1.56462,206.898,0.128386
307.1000,2.47536,206.79,0.126837
307.0000,1.08431,207.241,0.133323
306.9000,2.2864,205.874,0.113619
306.8000,-0.30057,206.555,0.123443
306.7000,1.61597,207.212,0.132899
306.6000,0.0218798,207.154,0.132069
306.5000,0.500373,206.319,0.120046
306.4000,0.951869,206.776,0.126625
306.3000,1.18571,207.428,0.136008
306.2000,1.13036,207.205,0.132802
306.1000,2.94309,207.748,0.140593
306.0000,0.996645,206.47,0.122219
305.9000,0.237086,206.43,0.121647
305.8000,0.831362,206.504,0.122709
305.7000,1.13497,206.592,0.123982
305.6000,2.3729,206.222,0.118641
305.5000,1.82972,206.788,0.126805
305.4000,-0.219554,207.555,0.13783
305.3000,0.362624,206.443,0.121827
305.2000,0.795115,207.291,0.134039
305.1000,1.04975,206.283,0.119523
305.0000,0.849533,205.901,0.114012
304.9000,1.0931,206.479,0.122349
304.8000,0.916018,206.722,0.125859
304.7000,0.208904,206.223,0.118657
304.6000,1.47069,206.942,0.129022
304.5000,0.304961,207.105,0.131369
304.4000,0.633707,206.813,0.127164
304.3000,5.0502E-006,206.455,0.122007
304.2000,0.659449,206.045,0.11609
304.1000,0.458192,206.826,0.127343
304.0000,1.65046,206.534,0.12315
303.9000,1.34392,205.83,0.11298
303.8000,0.985786,206.579,0.123786
303.7000,1.6295,206.355,0.120569
303.6000,1.75364,206.747,0.126217
303.5000,1.23096,206.222,0.118641
303.4000,-0.18785,206.883,0.128174
303.3000,0.528568,207.767,0.140869
303.2000,0.379464,206.215,0.118542
303.1000,1.32307,206.963,0.129315
303.0000,0.48297,206.245,0.118984
302.9000,0.507347,206.441,0.12181
302.8000,2.04782,206.461,0.122088
302.7000,2.23272,206.626,0.124472
302.6000,0.348193,206.07,0.11645
302.5000,2.48814,206.566,0.123606
302.4000,1.72082,206.54,0.123231
302.3000,1.34343,206.347,0.120455
302.2000,1.09831,207.028,0.130261
302.1000,1.41638,206.682,0.125271
302.0000,1.19214,207.031,0.130293
301.9000,-0.479546,206.776,0.126625
301.8000,2.51626,206.47,0.122219
301.7000,1.24133,206.392,0.121092
301.6000,0.18853,207.257,0.133551
301.5000,0.592637,206.082,0.116629
301.4000,1.73362,206.76,0.126397
301.3000,0.590776,206.865,0.127914
301.2000,0.328298,206.925,0.128778
301.1000,0.629616,206.343,0.120389
301.0000,1.74832,206.671,0.125124
300.9000,0.450001,206.153,0.117643
300.8000,0.933495,206.296,0.119719
300.7000,1.91785,206.093,0.116777
300.6000,3.03148,206.58,0.123803
300.5000,-0.324742,206.491,0.122529
300.4000,1.70966,206.364,0.1207
300.3000,0.430897,205.927,0.114388
300.2000,1.37639,206.698,0.1255
300.1000,1.59916,206.498,0.122627
300.0000,1.31683,206.218,0.118592
299.9000,1.02537,206.942,0.129022
299.8000,-0.173483,206.001,0.115452
299.7000,0.516374,206.074,0.116515
299.6000,0.729376,206.272,0.11936
299.5000,1.42672,205.816,0.112784
299.4000,1.8899,206.35,0.120487
299.3000,0.367648,205.815,0.112767
299.2000,1.9421,206.153,0.117643
299.1000,-0.0105665,206.473,0.122268
299.0000,1.31379,206.483,0.122415
298.9000,1.04738,206.166,0.11784
298.8000,2.3333,206.587,0.1239
298.7000,-0.313366,206.86,0.127832
298.6000,0.383344,206.389,0.121059
298.5000,0.680452,206.159,0.117742
298.4000,1.63862,206.42,0.1215
298.3000,2.18934,206.12,0.117169
298.2000,0.246521,206.187,0.118134
298.1000,1.13428,205.859,0.113406
298.0000,-0.406907,206.155,0.117676
297.9000,0.862119,206.269,0.119327
297.8000,1.13491,205.795,0.112473
297.7000,2.19902,206.276,0.119425
297.6000,1.13845,206.021,0.115746
297.5000,1.21233,205.906,0.114077
297.4000,0.842242,206.119,0.117153
297.3000,0.499943,206.294,0.119687
297.2000,3.0895,206.001,0.115452
297.1000,1.68681,205.552,0.108967
297.0000,0.451751,206.593,0.123998
296.9000,1.61388,206.345,0.120422
296.8000,3.71235,206.524,0.123003
296.7000,0.262343,206.566,0.123606
296.6000,1.20193,205.943,0.114617
296.5000,0.975061,206.283,0.119523
296.4000,0.515948,205.875,0.113635
296.3000,0.339092,205.748,0.111801
296.2000,0.406807,205.504,0.108278
296.1000,0.00345069,206.026,0.115812
296.0000,0.164292,206.277,0.119441
295.9000,-0.401036,206.608,0.124211
295.8000,1.31983,205.493,0.108114
295.7000,-1.5801,206.367,0.120732
295.6000,0.504302,206.492,0.122545
295.5000,1.87624,204.237,0.0898872
295.4000,2.40492,206.225,0.11869
295.3000,-0.256737,206.532,0.123117
295.2000,0.184968,205.737,0.111637
295.1000,0.582812,206.19,0.118183
295.0000,-0.149866,206.286,0.119572
294.9000,0.183694,206.658,0.124929
294.8000,0.184618,205.766,0.112063
294.7000,0.767691,205.08,0.102126
294.6000,1.2847,206.466,0.12217
294.5000,0.0962854,206.066,0.1164
294.4000,1.61996,206.681,0.125255
294.3000,1.46152,207.646,0.13913
294.2000,1.46806,205.362,0.106212
294.1000,1.60051,206.361,0.120651
294.0000,-0.491317,206.362,0.120667
293.9000,1.13701,205.133,0.102897
293.8000,0.11731,206.047,0.116122
293.7000,0.874845,206.013,0.115632
293.6000,0.714269,205.901,0.114012
293.5000,1.09389,206.526,0.123035
293.4000,0.654374,205.015,0.101189
293.3000,-0.302562,206.086,0.116679
293.2000,0.491236,206.242,0.118935
293.1000,-0.383209,206.394,0.121124
293.0000,0.920548,206.564,0.123574
292.9000,-0.182617,206.447,0.121892
292.8000,-0.0922841,206.245,0.118984
292.7000,1.44433,205.81,0.112702
292.6000,-0.851793,206.149,0.117594
292.5000,1.10325,205.95,0.114715
292.4000,0.398626,205.986,0.115239
292.3000,0.782676,206.062,0.116335
292.2000,0.935275,205.771,0.112129
292.1000,0.554463,206.779,0.126674
292.0000,1.01875,206.602,0.124129
291.9000,1.2298,204.991,0.100844
291.8000,0.217048,205.168,0.103406
291.7000,0.624175,206.192,0.118215
291.6000,-1.18411,204.554,0.0944978
291.5000,0.268041,203.821,0.0838351
291.4000,1.98837,206.325,0.120128
291.3000,1.51083,207.28,0.133876
291.2000,0.997602,205.924,0.114339
291.1000,0.533652,205.485,0.108
291.0000,0.319303,205.4,0.10677
290.9000,1.21082,205.422,0.107081
290.8000,0.73758,205.921,0.114306
290.7000,0.183011,206.225,0.11869
290.6000,1.26982,205.71,0.111244
290.5000,-0.283029,207.238,0.133274
290.4000,1.42968,206.368,0.120749
290.3000,-0.783609,206.463,0.122121
290.2000,1.09397,206.151,0.117627
290.1000,1.34551,206.119,0.117153
290.0000,1.6406,205.842,0.11316
289.9000,0.683345,205.892,0.11388
289.8000,0.954613,205.244,0.104506
289.7000,0.822604,207.052,0.130603
289.6000,1.89133,204.358,0.09165
289.5000,-0.341802,206.128,0.117284
289.4000,0.4928,206.259,0.11918
289.3000,0.0324504,206.279,0.119474
289.2000,-0.241701,206.474,0.122284
289.1000,0.948674,206.073,0.116498
289.0000,-1.46282,205.775,0.112194
288.9000,0.645071,206.435,0.121712
288.8000,1.76314,205.62,0.10995
288.7000,2.19307,207.281,0.133893
288.6000,0.899073,206.324,0.120112
288.5000,-0.477224,207.75,0.140625
288.4000,2.23475,206.716,0.125761
288.3000,1.36625,206.114,0.117087
288.2000,2.32564,205.79,0.112407
288.1000,0.962109,206.453,0.121974
288.0000,2.62316,206.658,0.124929
287.9000,0.726277,206.769,0.126527
287.8000,-0.402247,206.079,0.11658
287.7000,1.86569,206.21,0.118477
287.6000,1.22967,207.23,0.13316
287.5000,0.714057,206.923,0.128745
287.4000,1.41697,207.567,0.137992
287.3000,0.757389,205.371,0.106343
287.2000,0.538198,207.047,0.130521
287.1000,0.159833,206.994,0.129772
287.0000,1.66583,207.43,0.136024
286.9000,0.671886,206.898,0.128386
286.8000,1.37391,206.701,0.125549
286.7000,0.433827,206.608,0.124211
286.6000,0.00051613,206.077,0.116548
286.5000,1.41365,206.125,0.117251
286.4000,1.50547,205.521,0.108524
286.3000,0.444394,207.573,0.13809
286.2000,-1.19647,207.97,0.143776
286.1000,1.40172,207.064,0.130766
286.0000,2.41409,207.058,0.130684
285.9000,1.17493,205.476,0.107868
285.8000,-0.311372,206.395,0.121141
285.7000,0.586362,205.849,0.113259
285.6000,1.01184,205.739,0.11167
285.5000,1.57059,206.473,0.122268
285.4000,0.98256,207.126,0.131662
285.3000,1.66134,206.856,0.127783
285.2000,0.601153,206.429,0.121631
285.1000,0.186669,207.03,0.130277
285.0000,0.741111,205.429,0.10718
284.9000,0.935514,207.908,0.142883
284.8000,0.7894,205.806,0.112636
284.7000,0.818142,208.109,0.145772
284.6000,1.74122,205.648,0.11036
284.5000,0.47833,206.65,0.124814
284.4000,-0.149202,206.134,0.117382
284.3000,0.854453,207.226,0.133095
284.2000,1.23485,207.306,0.134251
284.1000,0.671787,206.806,0.127066
284.0000,1.67382,206.726,0.125908
283.9000,0.340435,206.098,0.116858
283.8000,1.17825,206.837,0.127506
283.7000,-0.000619662,206.42,0.1215
283.6000,-0.280069,208.508,0.151479
283.5000,-2.09339,206.639,0.124651
283.4000,-0.47888,206.874,0.128044
283.3000,1.18936,208.156,0.146437
283.2000,-0.614223,206.122,0.117202
283.1000,1.03873,207.175,0.132362
283.0000,1.04163,206.414,0.121419
282.9000,-0.5645,207.248,0.133421
282.8000,-1.13204,206.309,0.119899
282.7000,1.98545,205.353,0.106081
282.6000,0.336945,206.562,0.123541
282.5000,-0.135866,206.315,0.119981
282.4000,2.26008,206.511,0.122807
282.3000,1.06145,206.986,0.129658
282.2000,1.35995,206.26,0.119196
282.1000,1.51681,206.839,0.127539
282.0000,0.30426,206.449,0.121925
281.9000,-0.0759954,206.668,0.125075
281.8000,1.739,206.496,0.122594
281.7000,1.28479,206.755,0.126332
281.6000,0.895622,206.954,0.129185
281.5000,-1.01111,206.13,0.117316
281.4000,0.0512173,207.401,0.135618
281.3000,1.05965,207.406,0.135683
281.2000,0.408073,206.323,0.120095
281.1000,0.367626,206.482,0.122399
281.0000,1.12514,207.316,0.134397
280.9000,0.609936,207.586,0.138269
280.8000,0.848116,207.087,0.131108
280.7000,0.829157,206.852,0.127718
280.6000,0.536464,205.783,0.112309
280.5000,1.66877,206.645,0.124749
280.4000,0.882253,206.747,0.126217
280.3000,0.975557,207.062,0.13075
280.2000,0.0350788,207.521,0.137342
280.1000,0.69489,206.387,0.121027
280.0000,0.56934,206.941,0.129006
279.9000,0.47318,206.822,0.127294
279.8000,-0.397798,207.647,0.139147
279.7000,-0.414699,206.837,0.127506
279.6000,0.694356,208.046,0.144864
279.5000,-0.524065,206.389,0.121059
279.4000,1.08018,206.929,0.128826
279.3000,0.960729,206.625,0.124455
279.2000,1.22993,206.245,0.118984
279.1000,1.12781,207.803,0.141389
279.0000,0.744097,206.871,0.127995
278.9000,-0.528358,206.597,0.124047
278.8000,0.584839,207.709,0.14004
278.7000,0.96166,206.67,0.125108
278.6000,0.38787,207.255,0.133518
278.5000,0.276371,206.858,0.127816
278.4000,0.116684,207.487,0.136854
278.3000,-0.515165,207.035,0.130359
278.2000,0.704889,206.208,0.118444
278.1000,-0.306102,206.972,0.129446
278.0000,1.2295,207.328,0.13456
277.9000,1.60343,208.619,0.153066
277.8000,1.30377,206.4,0.121206
277.7000,-0.236513,207.379,0.135292
277.6000,0.875162,207.598,0.138448
277.5000,-0.113374,207.862,0.142234
277.4000,-1.73695,207.244,0.133355
277.3000,0.887617,207.049,0.130554
277.2000,1.05012,206.818,0.127229
277.1000,2.77819,206.47,0.122219
277.0000,0.172067,206.922,0.128729
276.9000,0.911341,207.575,0.138106
276.8000,1.94816,206.403,0.121255
276.7000,1.37146,206.916,0.128647
276.6000,0.969753,207.146,0.131955
276.5000,0.365314,207.051,0.130587
276.4000,-0.389258,207.071,0.13088
276.3000,0.283235,207.738,0.140447
276.2000,2.8076,205.519,0.108492
276.1000,-1.68857,208.01,0.144344
276.0000,1.37825,207.322,0.134479
275.9000,0.0567676,206.664,0.12501
275.8000,0.194383,206.777,0.126642
275.7000,-0.751122,207.917,0.143013
275.6000,-1.25764,206.458,0.122055
275.5000,-0.282181,206.584,0.123868
275.4000,-0.671643,207.759,0.140755
275.3000,0.184245,204.908,0.0996451
275.2000,0.667539,206.865,0.127914
275.1000,1.30618,206.835,0.127473
275.0000,-0.642806,207.231,0.133176
274.9000,2.56193,207.206,0.132818
274.8000,-1.12393,207.599,0.138464
274.7000,0.535835,207.241,0.133323
274.6000,3.72541,207.997,0.144166
274.5000,1.40236,207.548,0.137732
274.4000,1.22109,206.136,0.117398
274.3000,-0.144763,207.219,0.132997
274.2000,-0.3507,207.274,0.133795
274.1000,0.859689,208.074,0.145269
274.0000,0.629457,207.516,0.137261
273.9000,1.2551,206.977,0.129527
273.8000,0.0848157,207.184,0.132492
273.7000,0.862886,206.724,0.125875
273.6000,0.180944,206.856,0.127783
273.5000,1.90506,205.81,0.112702
273.4000,1.12955,207.45,0.136317
273.3000,0.129267,207.828,0.141746
273.2000,2.32571,208.083,0.145399
273.1000,0.350885,206.726,0.125908
273.0000,2.2107,207.928,0.143175
272.9000,-0.293999,207.599,0.138464
272.8000,1.0974,205.774,0.112178
272.7000,0.494505,207.399,0.135585
272.6000,-0.831191,207.082,0.131026
272.5000,3.01554,206.662,0.124994
272.4000,-0.968562,207.579,0.138171
272.3000,0.159164,206.153,0.117643
272.2000,0.789156,207.728,0.1403
272.1000,0.272894,207.541,0.137618
272.0000,-1.23116,207.929,0.143192
271.9000,1.78486,206.424,0.121565
271.8000,-0.354851,205.7,0.111113
271.7000,1.6419,206.492,0.122545
271.6000,0.451121,207.717,0.140154
271.5000,0.986528,206.165,0.117823
271.4000,1.22474,206.313,0.119965
271.3000,0.352272,207.397,0.135553
271.2000,1.70865,206.778,0.126658
271.1000,0.870135,207.426,0.135976
271.0000,0.239037,207.069,0.130847
270.9000,-0.510893,208.37,0.149502
270.8000,1.97496,208.654,0.153568
270.7000,1.89929,206.52,0.122937
270.6000,1.27367,207.786,0.141145
270.5000,1.39963,206.929,0.128826
270.4000,-1.2996,207.547,0.137716
270.3000,-0.403742,208.242,0.14767
270.2000,-0.822499,207.298,0.134137
270.1000,0.227834,206.959,0.129267
270.0000,0.494083,207.418,0.135862
269.9000,1.73884,207.099,0.131271
269.8000,1.61672,207.443,0.13622
269.7000,0.560026,206.872,0.128011
269.6000,-0.354694,206.72,0.125826
269.5000,1.16177,207.432,0.136057
269.4000,1.75187,208.14,0.14621
269.3000,1.79557,207.109,0.131417
269.2000,1.70553,207.527,0.137423
269.1000,-0.0177159,209.829,0.170318
269.0000,1.52969,207.728,0.1403
268.9000,-0.425322,209.086,0.159731
268.8000,0.772048,208.423,0.150264
268.7000,0.290974,207.164,0.132216
268.6000,0.758796,209,0.158502
268.5000,-0.679666,207.948,0.143468
268.4000,1.15404,208.353,0.149259
268.3000,1.35812,208.271,0.148092
268.2000,-0.0883781,208.578,0.152483
268.1000,-1.29073,207.462,0.136496
268.0000,-1.11273,208.427,0.150312
267.9000,0.0211449,208.342,0.149097
267.8000,0.864251,207.85,0.142055
267.7000,1.40541,208.965,0.158001
267.6000,1.47609,207.435,0.136106
267.5000,0.17043,207.892,0.142656
267.4000,0.45436,208.024,0.144555
267.3000,1.74505,207.99,0.144068
267.2000,0.879264,208.658,0.153617
267.1000,1.11262,208.857,0.156465
267.0000,-0.25743,208.36,0.149356
266.9000,0.23997,207.704,0.139959
266.8000,1.80524,208.509,0.151495
266.7000,3.15225,208.812,0.155818
266.6000,2.31446,206.265,0.119262
266.5000,1.25286,206.526,0.123035
266.4000,0.0880593,208.938,0.157613
266.3000,1.85419,207.52,0.137326
266.2000,-0.0902255,208.045,0.144847
266.1000,-0.131598,207.946,0.143435
266.0000,0.809902,207.646,0.13913
265.9000,0.0122873,208.941,0.157662
265.8000,0.959196,208.832,0.156109
265.7000,1.12558,210.34,0.177579
265.6000,-0.0279272,208.489,0.151204
265.5000,0.457012,209.236,0.161864
265.4000,-1.84968,207.58,0.138187
265.3000,-0.503081,207.895,0.142705
265.2000,0.889719,206.8,0.126968
265.1000,-0.465642,207.79,0.141194
265.0000,0.470115,207.226,0.133095
264.9000,1.34673,209.322,0.163091
264.8000,-0.0603383,208.328,0.148902
264.7000,-0.816343,208.19,0.146924
264.6000,-0.625056,208.322,0.148821
264.5000,-0.564859,208.813,0.155834
264.4000,0.98682,209.006,0.158583
264.3000,-0.967574,208.373,0.149551
264.2000,-0.0149025,208.566,0.152305
264.1000,0.325564,207.009,0.129984
264.0000,-1.78006,208.295,0.148432
263.9000,-1.21424,210.213,0.175777
263.8000,0.456983,209.931,0.171768
263.7000,-0.229318,209.44,0.16477
263.6000,0.752721,208.876,0.15674
263.5000,-0.358107,208.14,0.14621
263.4000,2.04546,209.465,0.165125
263.3000,0.121405,207.564,0.13796
263.2000,-0.0965961,208.359,0.14934
263.1000,0.608069,207.987,0.14402
263.0000,1.58918,209.048,0.159181
262.9000,0.129287,209.052,0.159246
262.8000,-0.00518067,208.818,0.155899
262.7000,0.314283,208.773,0.155267
262.6000,-0.790496,208.94,0.157645
262.5000,0.0922051,208.777,0.155316
262.4000,2.27648,209.24,0.161928
262.3000,-0.314438,209.316,0.163011
262.2000,-0.32436,209.145,0.160571
262.1000,-0.543486,210.295,0.176935
262.0000,0.968137,209.559,0.166465
261.9000,0.785747,209.874,0.170946
261.8000,1.85029,209.307,0.162881
261.7000,0.208918,209.212,0.161524
261.6000,0.887547,209.358,0.163608
261.5000,-0.416988,210.689,0.182529
261.4000,-0.836282,209.961,0.172187
261.3000,1.95067,208.743,0.154831
261.2000,1.76408,211.013,0.187119
261.1000,0.703389,208.684,0.153989
261.0000,1.20459,209.374,0.163834
260.9000,-0.0810922,208.449,0.150636
260.8000,2.23063,210.545,0.180489
260.7000,-0.783294,209.797,0.169851
260.6000,0.981522,209.48,0.165351
260.5000,1.20968,210.383,0.17819
260.4000,-0.103397,209.108,0.160038
260.3000,-0.929105,208.409,0.150053
260.2000,-0.0800264,209.624,0.1674
260.1000,1.50606,209.045,0.159149
260.0000,-0.00728531,209.496,0.165577
259.9000,-1.06661,208.577,0.152467
259.8000,0.336958,209.602,0.167077
259.7000,0.115858,209.461,0.165077
259.6000,0.677926,210.882,0.185258
259.5000,0.352619,210.127,0.174554
259.4000,1.02578,210.038,0.173282
259.3000,1.26011,209.92,0.171607
259.2000,0.791346,209.812,0.170076
259.1000,0.591415,210.757,0.183492
259.0000,0.678178,209.876,0.170979
258.9000,1.77863,209.445,0.164851
258.8000,0.677434,209.86,0.170753
258.7000,0.822477,208.842,0.156254
258.6000,0.378604,209.123,0.160264
258.5000,-0.97302,210.291,0.176871
258.4000,0.696759,209.346,0.16343
258.3000,-0.829885,210.455,0.179203
258.2000,0.202852,211.081,0.188082
258.1000,1.34585,210.782,0.183846
258.0000,0.856867,210.72,0.182963
257.9000,-0.800509,211.548,0.194683
257.8000,-0.14606,211.186,0.189557
257.7000,-0.498289,210.829,0.184504
257.6000,-0.994705,210.611,0.18142
257.5000,0.200299,209.349,0.163479
257.4000,1.73476,209.714,0.168674
257.3000,-0.91327,209.772,0.169496
257.2000,-0.54155,210.356,0.177804
257.1000,1.71269,211.279,0.190871
257.0000,0.548726,210.714,0.182882
256.9000,-0.748649,210.897,0.185467
256.8000,0.441301,210.765,0.183605
256.7000,-0.213786,210.914,0.185708
256.6000,-1.12553,210.534,0.180328
256.5000,-0.235436,211.081,0.188082
256.4000,2.16027,210.956,0.186301
256.3000,0.469985,210.986,0.186735
256.2000,1.31312,211.202,0.189781
256.1000,-0.374075,212.199,0.203859
256.0000,0.847812,210.7,0.182673
255.9000,-0.278031,211.026,0.187296
255.8000,-0.0600367,211.165,0.189268
255.7000,1.65758,211.172,0.189364
255.6000,0.423348,210.794,0.184006
255.5000,-0.565127,210.16,0.175021
255.4000,-1.03701,212.472,0.207705
255.3000,0.117292,210.753,0.183428
255.2000,2.13985,211.429,0.193002
255.1000,-1.17793,211.76,0.197675
255.0000,0.231761,211.432,0.193034
254.9000,1.41562,211.417,0.192826
254.8000,-1.02884,211.895,0.199578
254.7000,0.586117,210.547,0.180505
254.6000,2.18727,211.845,0.198874
254.5000,-0.627763,211.784,0.198011
254.4000,0.100562,210.661,0.182127
254.3000,0.69388,211.668,0.196379
254.2000,0.356545,211.673,0.196443
254.1000,1.19633,210.932,0.185964
254.0000,0.579191,211.671,0.196411
253.9000,0.939692,211.196,0.189701
253.8000,-0.785867,211.751,0.197547
253.7000,1.24358,211.717,0.197067
253.6000,0.0166885,211.439,0.193146
253.5000,-0.660704,212.421,0.206988
253.4000,-1.27715,212.712,0.211085
253.3000,-0.14404,211.642,0.196011
253.2000,-0.399821,212.741,0.211499
253.1000,0.00829148,212.549,0.20879
253.0000,0.953364,213.28,0.21906
252.9000,-1.21194,212.612,0.209683
252.8000,-0.479603,213.881,0.227493
252.7000,0.351885,213.023,0.215465
252.6000,0.134317,212.806,0.212408
252.5000,-0.624753,212.821,0.212615
252.4000,-0.616991,212.747,0.211579
252.3000,1.1193,212.67,0.210496
252.2000,0.984565,211.452,0.193322
252.1000,-0.880963,212.425,0.207051
252.0000,0.0621833,211.889,0.199498
251.9000,-2.41739,212.849,0.213013
251.8000,0.284362,213.74,0.22551
251.7000,-0.877781,211.569,0.194971
251.6000,-0.301423,212.222,0.204195
251.5000,-0.498834,212.207,0.203971
251.4000,-0.51564,212.929,0.214144
251.3000,-1.25774,212.722,0.211229
251.2000,-0.330151,211.807,0.19833
251.1000,0.945282,213.665,0.224462
251.0000,0.35586,212.052,0.201799
250.9000,0.212469,212.396,0.206636
250.8000,-0.0627602,212.652,0.210241
250.7000,0.386887,214.495,0.236081
250.6000,-1.13061,214.075,0.230205
250.5000,-0.654033,213.108,0.216658
250.4000,0.329285,213.459,0.221571
250.3000,-0.103761,213.512,0.222318
250.2000,-0.0334335,213.234,0.218424
250.1000,-0.0850828,211.804,0.198299
250.0000,-0.975577,213.589,0.223398
249.9000,0.399402,212.051,0.201783
249.8000,0.738134,212.898,0.213698
249.7000,-0.292105,212.637,0.210033
249.6000,1.00094,212.763,0.211802
249.5000,-0.0463306,213.056,0.215926
249.4000,0.878393,213.655,0.224319
249.3000,-0.694364,212.415,0.206908
249.2000,-0.0720805,213.318,0.2196
249.1000,-1.17368,212.586,0.209316
249.0000,-1.38788,213.847,0.227017
248.9000,0.686044,212.877,0.213411
248.8000,-1.25456,213.146,0.217183
248.7000,-1.53799,213.19,0.217804
248.6000,-1.2874,212.999,0.215115
248.5000,1.06127,213.433,0.221206
248.4000,0.309329,213.23,0.21836
248.3000,-0.520236,212.754,0.211675
248.2000,1.35742,213.65,0.224256
248.1000,0.531275,213.774,0.225986
248.0000,-1.80064,213.128,0.216929
247.9000,-0.506074,212.94,0.214287
247.8000,-1.85413,213.517,0.222397
247.7000,-0.184076,212.791,0.2122
247.6000,-0.927346,213.958,0.228572
247.5000,0.0693949,214.185,0.231742
247.4000,0.24818,213.741,0.225526
247.3000,-0.0505138,213.286,0.219155
247.2000,0.694062,214.31,0.233485
247.1000,1.38399,213.576,0.223224
247.0000,-1.51702,214.277,0.233025
246.9000,-0.838099,214.708,0.239055
246.8000,-1.32316,213.341,0.219918
246.7000,-1.72052,213.915,0.227969
246.6000,-0.322381,214.245,0.232582
246.5000,-0.369116,214.238,0.232487
246.4000,-1.42751,214.641,0.238122
246.3000,0.0318118,214.132,0.230997
246.2000,-3.58529,214.477,0.235828
246.1000,-0.603656,214.682,0.238691
246.0000,-4.97575,214.255,0.232725
245.9000,-0.956671,214.588,0.237378
245.8000,-2.51472,214.905,0.241805
245.7000,-1.25023,214.383,0.234514
245.6000,-2.13281,214.636,0.238043
245.5000,-1.38584,214.238,0.232487
245.4000,-0.0268571,214.912,0.241901
245.3000,-1.6507,213.973,0.228778
245.2000,-2.49741,214.775,0.239988
245.1000,-2.163,214.702,0.23896
245.0000,1.3792,215.19,0.24577
244.9000,-2.03968,215.237,0.246432
244.8000,-3.15021,215.644,0.252093
244.7000,-2.65546,214.955,0.242501
244.6000,-2.00917,215.666,0.252393
244.5000,-2.34462,215.494,0.249997
244.4000,-1.85828,215.971,0.256628
244.3000,-1.29425,215.278,0.247
244.2000,-3.28069,215.599,0.251463
244.1000,-1.30973,215.799,0.254251
244.0000,-2.46299,216.052,0.257761
243.9000,-2.53541,215.111,0.244665
243.8000,-1.79604,215.943,0.256251
243.7000,-2.8759,215.575,0.251132
243.6000,-2.59662,215.444,0.249303
243.5000,-2.08983,215.711,0.253023
243.4000,-1.59575,216.367,0.262132
243.3000,-0.328311,216.748,0.267408
243.2000,-3.49634,216.606,0.265446
243.1000,-2.04139,216.357,0.261991
243.0000,-3.446,215.596,0.251416
242.9000,-3.87227,216.316,0.261425
242.8000,-3.43953,217.08,0.272002
242.7000,-2.59331,217.2,0.273663
242.6000,-2.72316,216.663,0.266231
242.5000,-2.53328,216.227,0.260183
242.4000,-3.25125,217.215,0.273867
242.3000,-4.09589,217.063,0.271767
242.2000,-2.3505,216.196,0.259759
242.1000,-2.87699,217.836,0.28244
242.0000,-1.99444,217.313,0.275229
241.9000,-3.69075,216.522,0.264284
241.8000,-3.41065,217.462,0.27728
241.7000,-3.28068,217.709,0.280689
241.6000,-5.29459,218.256,0.288233
241.5000,-3.97361,217.78,0.281674
241.4000,-4.81037,217.536,0.278312
241.3000,-4.35167,217.441,0.276998
241.2000,-7.0482,218.247,0.288108
241.1000,-6.83235,218.122,0.286391
241.0000,-6.74952,217.691,0.280439
240.9000,-2.83671,218.01,0.284845
240.8000,-5.68066,218.299,0.288825
240.7000,-6.24406,219.336,0.30307
240.6000,-5.64749,218.562,0.292442
240.5000,-4.02407,218.275,0.288498
240.4000,-5.23285,219.164,0.300708
240.3000,-7.86397,219.105,0.299899
240.2000,-5.87335,218.497,0.291554
240.1000,-5.87297,218.471,0.291196
240.0000,-8.03815,218.917,0.297316
239.9000,-6.5409,218.997,0.298421
239.8000,-7.87184,219.091,0.299712
239.7000,-7.00897,219.949,0.311466
239.6000,-7.20553,219.352,0.303288
239.5000,-8.4933,219.738,0.308582
239.4000,-8.14678,219.14,0.300381
239.3000,-9.5298,220.608,0.320477
239.2000,-7.79325,219.731,0.308489
239.1000,-8.8848,219.594,0.306611
239.0000,-8.86652,220.174,0.31455
238.9000,-7.36175,220.625,0.320709
238.8000,-9.08659,220.435,0.318111
238.7000,-9.19115,220.801,0.323105
238.6000,-8.55959,220.567,0.319921
238.5000,-9.78059,220.959,0.325268
238.4000,-9.95494,221.259,0.329343
238.3000,-10.4142,222.051,0.34011
238.2000,-8.26784,221.103,0.327229
238.1000,-10.741,222.052,0.340125
238.0000,-10.2281,221.333,0.330361
237.9000,-10.7442,222.079,0.340495
237.8000,-12.3287,221.456,0.332026
237.7000,-11.6836,221.574,0.333629
237.6000,-10.6386,221.849,0.337371
237.5000,-10.5697,222.323,0.3438
237.4000,-11.6918,221.227,0.328911
237.3000,-12.3582,222.585,0.347363
237.2000,-13.1734,222.517,0.346441
237.1000,-12.7098,223.392,0.358276
237.0000,-12.2803,223.638,0.361596
236.9000,-12.8824,223.722,0.362727
236.8000,-15.2616,223.825,0.364118
236.7000,-14.613,223.454,0.359117
236.6000,-14.4048,224.137,0.368317
236.5000,-17.5317,224.022,0.366776
236.4000,-15.1829,224.466,0.372756
236.3000,-15.0726,224.048,0.367127
236.2000,-13.9683,224.883,0.378362
236.1000,-15.4088,225.45,0.385964
236.0000,-13.738,224.788,0.377083
235.9000,-14.2905,224.066,0.367371
235.8000,-15.0651,223.211,0.355826
235.7000,-14.8772,225.503,0.386678
235.6000,-17.2741,224.878,0.378286
235.5000,-15.8766,225.001,0.379944
235.4000,-17.8679,225.751,0.390003
235.3000,-15.3856,227.868,0.418236
235.2000,-15.1549,226.922,0.405642
235.1000,-18.7421,226.428,0.399049
235.0000,-17.4239,225.672,0.38894
234.9000,-18.8932,225.655,0.388713
234.8000,-19.5768,227.177,0.40904
234.7000,-20.3907,227.423,0.412314
234.6000,-18.6638,227.016,0.406896
234.5000,-19.6441,227.876,0.418342
234.4000,-20.2551,228.043,0.420569
234.3000,-20.2972,227.586,0.414485
234.2000,-21.5698,227.587,0.4145
234.1000,-21.8894,228.417,0.425531
234.0000,-20.2399,228.442,0.425862
233.9000,-22.4058,228.139,0.421833
233.8000,-22.6748,229.324,0.437533
233.7000,-23.8917,228.428,0.425666
233.6000,-24.0095,229.624,0.441499
233.5000,-23.8638,229.469,0.439449
233.4000,-23.135,231.107,0.461032
233.3000,-23.3507,230.626,0.454701
233.2000,-23.6711,229.788,0.443668
233.1000,-24.2705,231.188,0.462088
233.0000,-26.0348,230.225,0.44942
232.9000,-27.2023,230.225,0.44942
232.8000,-26.0919,231.006,0.459707
232.7000,-24.7943,231.179,0.461969
232.6000,-24.9225,231.16,0.461731
232.5000,-25.6795,231.925,0.471761
232.4000,-26.1718,232.067,0.473615
232.3000,-29.6273,231.801,0.470128
232.2000,-29.7448,232.813,0.483361
232.1000,-27.8061,232.504,0.479336
232.0000,-28.3092,233.459,0.491797
231.9000,-31.0154,233.735,0.495382
231.8000,-29.2904,233.325,0.490041
231.7000,-30.9311,232.334,0.477114
231.6000,-28.4461,234.581,0.506379
231.5000,-31.1251,234.411,0.504173
231.4000,-31.0279,233.648,0.494247
231.3000,-28.7311,233.808,0.49634
231.2000,-32.547,235.254,0.5151
231.1000,-32.2831,233.619,0.493878
231.0000,-33.5238,234.306,0.502805
230.9000,-32.4899,234.857,0.509949
230.8000,-31.6263,235.602,0.5196
230.7000,-34.0637,234.29,0.502599
230.6000,-35.2436,235.388,0.51683
230.5000,-32.7475,235.599,0.519556
230.4000,-32.3726,235.124,0.513413
230.3000,-33.3521,235.456,0.51771
230.2000,-32.8324,236.033,0.525161
230.1000,-36.2082,236.325,0.528932
230.0000,-36.3321,236.214,0.527501
229.9000,-35.3789,236.52,0.531445
229.8000,-35.1759,236.506,0.531269
229.7000,-37.3744,236.668,0.533357
229.6000,-37.7187,236.997,0.537586
229.5000,-37.3305,236.807,0.535136
229.4000,-39.5094,237.264,0.541024
229.3000,-36.8345,238.061,0.551247
229.2000,-40.0141,237.688,0.546466
229.1000,-38.7131,238.053,0.551145
229.0000,-38.8579,239.115,0.564728
228.9000,-40.9518,239.348,0.567707
228.8000,-40.8875,239.307,0.567187
228.7000,-43.4182,239.964,0.575564
228.6000,-40.8836,238.899,0.561978
228.5000,-39.9409,239.375,0.568054
228.4000,-40.0491,239.666,0.571767
228.3000,-41.2199,240.659,0.584396
228.2000,-42.271,239.818,0.573702
228.1000,-41.4945,240.87,0.587072
228.0000,-41.0637,240.504,0.582424
227.9000,-41.2653,240.576,0.583346
227.8000,-47.1556,241.09,0.589861
227.7000,-43.2124,241.662,0.597111
227.6000,-41.5548,242.07,0.602271
227.5000,-43.6386,242.155,0.603345
227.4000,-42.1394,242.445,0.607009
227.3000,-46.0297,243.031,0.614397
227.2000,-45.0711,243.343,0.618335
227.1000,-43.3802,242.981,0.613769
227.0000,-48.1349,242.691,0.610112
226.9000,-45.3551,243.323,0.618078
226.8000,-45.2468,243.069,0.614882
226.7000,-46.0552,243.195,0.616466
226.6000,-46.3348,244.039,0.627081
226.5000,-45.7738,243.205,0.616595
226.4000,-48.8571,244.625,0.634429
226.3000,-46.959,243.801,0.624092
226.2000,-46.3919,245.048,0.639735
226.1000,-46.3955,245.055,0.63982
226.0000,-50.6057,245.854,0.649802
225.9000,-48.7687,245.482,0.645162
225.8000,-52.132,246.366,0.656188
225.7000,-51.2706,246.221,0.654381
225.6000,-51.2581,245.979,0.651357
225.5000,-48.1189,245.822,0.649407
225.4000,-50.5278,246.957,0.663535
225.3000,-49.9729,247.966,0.676066
225.2000,-47.9542,247.955,0.675926
225.1000,-50.8892,246.875,0.662521
225.0000,-45.7924,248.196,0.678915
224.9000,-51.9989,247.531,0.670671
224.8000,-50.2172,248.751,0.685783
224.7000,-51.1088,249.138,0.690556
224.6000,-53.6497,248.56,0.683416
224.5000,-55.1341,249.065,0.68966
224.4000,-48.8351,249.351,0.693184
224.3000,-51.7337,249.143,0.690625
224.2000,-53.1843,249.149,0.690695
224.1000,-49.936,250.485,0.707147
224.0000,-53.3001,249.819,0.698951
223.9000,-50.5013,250.068,0.70202
223.8000,-52.5004,250.393,0.706019
223.7000,-54.1288,249.643,0.696788
223.6000,-53.041,250.923,0.712532
223.5000,-53.3133,251.461,0.719116
223.4000,-54.0404,251.296,0.717103
223.3000,-51.3606,250.492,0.707231
223.2000,-52.5072,252.502,0.731848
223.1000,-50.391,252.832,0.735871
223.0000,-50.7237,252.591,0.732941
222.9000,-52.19,252.753,0.734917
222.8000,-53.7122,253.766,0.747252
222.7000,-53.1818,253.182,0.740138
222.6000,-52.1033,253.719,0.746673
222.5000,-57.432,252.532,0.732222
222.4000,-52.4806,252.887,0.736548
222.3000,-50.9156,253.992,0.749992
222.2000,-51.0468,254.26,0.753252
222.1000,-51.5227,254.312,0.753885
222.0000,-52.8654,254.929,0.761357
221.9000,-54.4726,255.666,0.770279
221.8000,-54.7531,255.417,0.767266
221.7000,-54.3458,254.991,0.762112
221.6000,-53.8981,255.571,0.769129
221.5000,-52.4521,256.441,0.779631
221.4000,-57.269,256.411,0.779262
221.3000,-53.5063,256.75,0.783343
221.2000,-51.0043,257.601,0.793574
221.1000,-49.503,257.392,0.79107
221.0000,-52.2228,257.172,0.788428
220.9000,-53.7854,258.227,0.801089
220.8000,-54.5854,257.478,0.792104
220.7000,-53.0964,257.93,0.79753
220.6000,-54.3958,258.394,0.803084
220.5000,-55.0626,258.793,0.807857
220.4000,-50.7694,259.035,0.810756
220.3000,-51.8558,259.201,0.812733
220.2000,-56.6343,259.296,0.813869
220.1000,-54.2063,259.256,0.813396
220.0000,-52.498,260.072,0.823126
219.9000,-54.644,260.899,0.832966
219.8000,-53.2365,259.79,0.819764
219.7000,-55.2145,261.479,0.839851
219.6000,-51.6727,260.893,0.832898
219.5000,-53.5147,261.336,0.838158
219.4000,-51.6804,261.246,0.837082
219.3000,-55.5201,262.073,0.846885
219.2000,-58.2413,261.529,0.840442
219.1000,-53.5836,262.464,0.851509
219.0000,-53.0465,262.542,0.852433
218.9000,-51.8444,263.029,0.858187
218.8000,-53.7824,263.537,0.864172
218.7000,-55.2253,263.704,0.866147
218.6000,-51.3307,263.302,0.861408
218.5000,-54.1994,263.81,0.867388
218.4000,-52.3388,264.234,0.872373
218.3000,-53.0776,263.9,0.868455
218.2000,-56.6581,263.711,0.866227
218.1000,-53.6725,264.714,0.878016
218.0000,-54.2037,264.775,0.878734
217.9000,-50.5622,265.073,0.88223
217.8000,-54.1845,265.992,0.892989
217.7000,-52.1722,265.71,0.889689
217.6000,-50.9732,266.797,0.902382
217.5000,-51.6323,266.741,0.901734
217.4000,-52.0844,266.995,0.904694
217.3000,-52.4699,266.986,0.904588
217.2000,-58.5452,267.454,0.910038
217.1000,-54.0093,267.848,0.914624
217.0000,-51.7138,268.224,0.918994
216.9000,-50.2444,268.432,0.921401
216.8000,-52.691,268.418,0.921243
216.7000,-55.1486,268.381,0.920809
216.6000,-48.8554,269.662,0.935651
216.5000,-52.1722,269.085,0.928979
216.4000,-50.9964,269.949,0.938963
216.3000,-52.0553,271.315,0.954711
216.2000,-50.5251,269.926,0.938702
216.1000,-53.2273,269.467,0.933398
216.0000,-53.1665,271.288,0.954399
215.9000,-52.6101,271.239,0.953838
215.8000,-51.8301,271.592,0.957889
215.7000,-54.9282,271.787,0.960128
215.6000,-51.4086,272.465,0.967914
215.5000,-53.3266,271.994,0.962509
215.4000,-55.5557,272.857,0.972404
215.3000,-52.4169,272.464,0.967901
215.2000,-52.7632,272.622,0.969706
215.1000,-54.016,274.636,0.992712
215.0000,-54.1413,273.782,0.982973
214.9000,-53.3408,274.118,0.986812
214.8000,-46.7801,275.389,1.00127
214.7000,-55.9471,274.565,0.991899
214.6000,-54.1835,275.069,0.997636
214.5000,-49.2995,275.422,1.00164
214.4000,-53.8978,275.823,1.00619
214.3000,-52.3737,275.952,1.00766
214.2000,-54.6991,276.31,1.01172
214.1000,-54.5251,276.286,1.01145
214.0000,-54.1201,277.328,1.02324
213.9000,-52.5681,277.299,1.0229
213.8000,-55.8294,277.675,1.02715
213.7000,-55.1297,278.33,1.03453
213.6000,-55.2438,278.148,1.03248
213.5000,-53.2536,279.271,1.04511
213.4000,-54.0498,279.556,1.04831
213.3000,-51.6237,280.041,1.05375
213.2000,-53.7245,280.449,1.05831
213.1000,-56.9925,279.643,1.04929
213.0000,-54.4751,280.195,1.05547
212.9000,-53.7962,280.611,1.06012
212.8000,-53.1241,281.011,1.06459
212.7000,-55.8867,281.711,1.07241
212.6000,-52.3736,282.422,1.08032
212.5000,-52.7979,282.664,1.08301
212.4000,-58.2374,282.726,1.08371
212.3000,-51.4816,283.109,1.08796
212.2000,-57.4593,284.372,1.10195
212.1000,-50.0412,284.67,1.10524
212.0000,-58.087,284.61,1.10458
211.9000,-55.6131,284.435,1.10265
211.8000,-52.9215,286.106,1.12108
211.7000,-55.3769,286.413,1.12446
211.6000,-59.0672,286.405,1.12437
211.5000,-58.3331,286.986,1.13075
211.4000,-54.853,287.288,1.13407
211.3000,-55.6651,288.132,1.14331
211.2000,-57.7515,288.043,1.14233
211.1000,-49.628,288.064,1.14257
211.0000,-58.6342,289.132,1.15423
210.9000,-56.0432,289.387,1.15701
210.8000,-57.7424,288.142,1.14342
210.7000,-56.5194,289.732,1.16077
210.6000,-58.2062,291.552,1.18054
210.5000,-64.7586,290.262,1.16654
210.4000,-57.7221,291.974,1.18511
210.3000,-55.2118,291.551,1.18052
210.2000,-59.2192,293.625,1.20293
210.1000,-57.5663,293.76,1.20438
210.0000,-59.2042,292.844,1.1945
209.9000,-54.8052,294.109,1.20814
209.8000,-58.0985,295.481,1.22287
209.7000,-54.7748,296.688,1.23577
209.6000,-59.834,296.255,1.23115
209.5000,-58.6109,298.215,1.25204
209.4000,-61.4681,297.67,1.24625
209.3000,-58.4491,298.671,1.25688
209.2000,-55.9673,298.83,1.25857
209.1000,-64.8097,299.844,1.26931
209.0000,-57.8421,300.81,1.27953
208.9000,-62.2659,300.127,1.27231
208.8000,-57.136,301.132,1.28292
208.7000,-61.5996,301.87,1.29069
208.6000,-60.7885,302.283,1.29504
208.5000,-53.1468,303.128,1.30392
208.4000,-57.2908,303.39,1.30666
208.3000,-59.0199,303.929,1.31231
208.2000,-54.456,304.94,1.32287
208.1000,-53.9308,305.129,1.32484
208.0000,-60.2138,306.427,1.33835
207.9000,-54.8354,308.048,1.35516
207.8000,-49.4374,308.071,1.3554
207.7000,-59.9884,309.487,1.37002
207.6000,-56.2147,310.083,1.37616
207.5000,-53.5106,310.487,1.38031
207.4000,-43.7938,310.731,1.38283
207.3000,-54.1425,311.827,1.39406
207.2000,-57.4775,311.779,1.39358
207.1000,-56.6359,313.174,1.40784
207.0000,-56.1408,313.129,1.40738
206.9000,-43.7933,315.186,1.42832
206.8000,-52.89,316.054,1.43712
206.7000,-46.448,317.882,1.45559
206.6000,-50.7969,317.202,1.44873
206.5000,-50.3512,318.699,1.46381
206.4000,-47.8191,319.034,1.46718
206.3000,-44.3256,320.235,1.47923
206.2000,-44.3391,321.043,1.48732
206.1000,-47.7079,322.547,1.50232
206.0000,-45.2633,322.744,1.50428
205.9000,-49.5145,323.725,1.51403
205.8000,-39.8356,325.054,1.5272
205.7000,-48.046,324.735,1.52404
205.6000,-45.5425,326.895,1.54537
205.5000,-42.861,327.85,1.55476
205.4000,-37.7477,328.648,1.5626
205.3000,-36.1097,329.036,1.56639
205.2000,-43.0008,330.28,1.57856
205.1000,-35.4039,331.81,1.59346
205.0000,-34.4901,333.922,1.61395
204.9000,-35.1688,333.717,1.61196
204.8000,-34.8959,335.904,1.63307
204.7000,-39.254,335.553,1.6297
204.6000,-38.4388,338.062,1.65379
204.5000,-36.7902,338.779,1.66065
204.4000,-36.0384,340.29,1.67506
204.3000,-33.6664,340.657,1.67855
204.2000,-27.7864,341.018,1.68199
204.1000,-26.4696,342.598,1.69697
204.0000,-32.0165,344.532,1.71524
203.9000,-30.908,346.448,1.73325
203.8000,-30.4688,347.048,1.73888
203.7000,-24.2626,348.657,1.75392
203.6000,-22.3421,350.846,1.77429
203.5000,-25.0767,351.376,1.7792
203.4000,-25.0564,353.136,1.79549
203.3000,-25.4116,354.158,1.80491
203.2000,-23.8314,355.153,1.81406
203.1000,-21.0521,355.979,1.82164
203.0000,-12.5327,357.555,1.83606
202.9000,-16.6753,357.996,1.84009
202.8000,-11.782,361.225,1.86944
202.7000,-13.7599,360.027,1.85857
202.6000,-7.70138,363.878,1.89339
202.5000,-9.21275,364.483,1.89884
202.4000,-8.24827,365.63,1.90913
202.3000,-6.19272,366.936,1.92083
202.2000,-12.9425,369.716,1.9456
202.1000,-7.2544,370.643,1.95382
202.0000,-4.7975,373.426,1.97841
201.9000,-13.8378,373.316,1.97744
201.8000,1.67057,376.325,2.00386
201.7000,-0.900457,377.33,2.01264
201.6000,6.33561,378.28,2.02094
201.5000,8.94744,380.663,2.04164
201.4000,1.27197,381.738,2.05095
201.3000,2.89084,383.709,2.06795
201.2000,-3.07013,385.304,2.08166
201.1000,18.7365,386.835,2.09477
201.0000,12.3507,388.268,2.10701
200.9000,2.80418,390.445,2.12552
200.8000,-3.52631,390.414,2.12526
200.7000,18.5905,392.299,2.14122
200.6000,16.0146,395.392,2.16727
200.5000,21.263,396.804,2.17911
200.4000,14.8593,399.931,2.2052
200.3000,12.149,399.394,2.20073
200.2000,11.6145,403.141,2.2318
200.1000,15.9112,404.503,2.24303
200.0000,18.5868,407.045,2.26392
199.9000,15.143,409.428,2.28339
199.8000,15.0566,411.197,2.29778
199.7000,19.6566,412.003,2.30432
199.6000,41.2277,414.426,2.32393
199.5000,18.6832,416.534,2.3409
199.4000,26.3797,417.24,2.34657
199.3000,12.4679,419.122,2.36164
199.2000,29.3509,421.027,2.37684
199.1000,18.3834,423.516,2.39661
199.0000,38.0019,424.981,2.4082
198.9000,29.8754,426.391,2.41933
198.8000,26.2006,428.787,2.43816
198.7000,34.1105,431.163,2.45674
198.6000,29.644,434.569,2.48324
198.5000,32.5055,435.292,2.48884
198.4000,31.636,438.799,2.5159
198.3000,31.2272,440.317,2.52756
198.2000,26.9294,441.84,2.53922
198.1000,33.1069,444.856,2.56221
198.0000,41.7621,446.2,2.57242
197.9000,35.6756,448.251,2.58794
197.8000,42.5692,450.557,2.60532
197.7000,31.4765,453.347,2.62625
197.6000,29.2815,454.15,2.63225
197.5000,42.5697,456.318,2.64841
197.4000,45.7675,459.307,2.67059
197.3000,37.8923,459.994,2.67567
197.2000,48.6214,462.587,2.69479
197.1000,40.5015,464.785,2.71093
197.0000,27.7262,467.662,2.73195
196.9000,37.6036,469.03,2.7419
196.8000,51.1546,471.478,2.75966
196.7000,34.5783,473.059,2.77109
196.6000,30.7903,476.996,2.7994
196.5000,40.6184,478.577,2.81072
196.4000,44.3283,481.037,2.82826
196.3000,35.2669,484.305,2.85145
196.2000,32.1547,485.424,2.85936
196.1000,36.3163,488.344,2.87993
196.0000,36.7975,491.517,2.90215
195.9000,40.2209,492.891,2.91175
195.8000,38.5934,494.811,2.92511
195.7000,46.846,497.577,2.94428
195.6000,41.4998,499.378,2.95672
195.5000,35.4342,501.509,2.97138
195.4000,43.1458,504.025,2.98863
195.3000,44.5413,504.862,2.99435
195.2000,58.0263,506.949,3.00858
195.1000,49.0998,508.872,3.02165
195.0000,35.4537,511.117,3.03685
194.9000,37.9274,512.263,3.0446
194.8000,41.3013,514.363,3.05874
194.7000,30.9327,516.375,3.07225
194.6000,20.7364,518.292,3.08507
194.5000,45.6262,518.747,3.08811
194.4000,32.4845,521.398,3.10577
194.3000,32.1597,524.102,3.1237
194.2000,18.2339,527.111,3.14357
194.1000,29.5102,529.484,3.15916
194.0000,47.8404,530.591,3.16642
193.9000,47.5387,532.96,3.18191
193.8000,42.7823,536.577,3.20544
193.7000,19.5851,537.439,3.21103
193.6000,30.1523,539.044,3.22141
193.5000,46.2027,541.584,3.23779
193.4000,19.9869,543.74,3.25164
193.3000,29.0698,544.869,3.25888
193.2000,31.7701,546.221,3.26753
193.1000,43.2682,547.622,3.27647
193.0000,31.8002,550.314,3.2936
192.9000,40.009,551.479,3.30099
192.8000,30.8704,554.078,3.31743
192.7000,33.4044,556.02,3.32967
192.6000,27.5634,558.048,3.34242
192.5000,30.4044,560.321,3.35666
192.4000,39.1638,562.12,3.36789
192.3000,19.608,563.371,3.37568
192.2000,36.4276,566.874,3.39743
192.1000,19.8848,568.241,3.40589
192.0000,24.0445,569.977,3.4166
191.9000,10.9517,571.699,3.4272
191.8000,38.0876,574.225,3.4427
191.7000,13.9417,575.361,3.44965
191.6000,36.128,577.608,3.46336
191.5000,35.122,579.111,3.47251
191.4000,21.2177,581.56,3.48738
191.3000,17.6923,584.539,3.50539
191.2000,17.1203,586.054,3.51451
191.1000,20.8892,589.021,3.53233
191.0000,28.13,591.159,3.54513
190.9000,32.7496,593.892,3.56142
190.8000,20.2716,597.105,3.5805
190.7000,27.5146,599.767,3.59624
190.6000,19.8122,602.779,3.61398
190.5000,32.1664,604.215,3.62241
190.4000,17.5716,606.741,3.6372
190.3000,26.902,610.11,3.65684
190.2000,16.5921,612.663,3.67167
190.1000,21.5228,613.872,3.67867
190.0000,24.0446,616.604,3.69445

##### Extended Information
[Comments]
Sample name,SL_IM_PB
Comment
User,Lahoff
Division
Company,Saint Mary's College

[Detailed Information]
Creation date,9/27/2022 5:11 PM

Data array type,Linear data array * 3
Horizontal axis,Wavelength [nm]
Vertical axis(1),CD [mdeg]
Vertical axis(2),HT [V]
Vertical axis(3),Abs
Start,320 nm
End,190 nm
Data interval,0.1 nm
Data points,1301    

[Measurement Information]
Instrument name,J-1500
Model name,J-1500
Serial No.,B051061638

Detector,PM-539
Detector S/N,B051061638
  Lock-in amp.,X mode
  HT volt,Auto

Accessory,PTC-517
Accessory S/N,B026561646
  Temperature,21.78 C
  Control sensor,Holder
  Monitor sensor,Holder

Measurement date,9/27/2022 5:11 PM

CD Overload detect,964
Photometric mode,CD, HT, Abs
Measure range,320 - 190 nm
Data pitch,0.1 nm
CD scale,20 mdeg/0.05 dOD
FL scale,20 mdeg/0.05 dOD
D.I.T.,8 msec
Bandwidth,2.00 nm
Start mode,Immediately
Scanning mode,Continuous
Scanning speed,100 nm/min
Baseline correction,None
Shutter control,Auto
No. of cycle,1/1
N2 Flowmeter,Manual

Solvent,KCl buffer

