TITLE,SL_IM_PA
DATA TYPE,
ORIGIN,JASCO
OWNER,
DATE,22/09/27
TIME,17:23:41
SPECTROMETER/DATA SYSTEM,
LOCALE,1033
RESOLUTION,
DELTAX,-0.1
XUNITS,NANOMETERS
YUNITS,CD [mdeg]
Y2UNITS,HT [V]
Y3UNITS,ABSORBANCE
FIRSTX,  320.0000
LASTX,  190.0000
NPOINTS,    1301
FIRSTY,     2.83236
MAXY,    54.00357
MINY,   -72.89146
XYDATA
320.0000,2.83236,206.835,0.127473
319.9000,1.19284,205.549,0.108918
319.8000,0.913678,207.832,0.141795
319.7000,1.93429,207.618,0.138724
319.6000,2.63166,207.224,0.133079
319.5000,1.21797,205.168,0.103406
319.4000,1.85614,207.366,0.135113
319.3000,2.01459,206.679,0.125239
319.2000,1.38981,207.085,0.131075
319.1000,0.716678,207.517,0.137277
319.0000,1.45975,206.086,0.116679
318.9000,0.0706848,206.602,0.124129
318.8000,1.12144,207.234,0.133209
318.7000,1.93723,206.312,0.119948
318.6000,2.34429,206.241,0.118919
318.5000,0.991107,206.473,0.122268
318.4000,-0.179281,207.73,0.140333
318.3000,1.78257,206.056,0.116253
318.2000,2.07626,207.764,0.14082
318.1000,1.10553,206.036,0.115959
318.0000,1.87412,206.716,0.125761
317.9000,1.18548,206.861,0.127848
317.8000,2.64696,205.929,0.114421
317.7000,1.28438,207.081,0.13101
317.6000,0.546496,206.94,0.128989
317.5000,0.708916,206.768,0.126511
317.4000,2.4301,207.009,0.129984
317.3000,1.43095,206.469,0.122202
317.2000,0.587748,206.372,0.120814
317.1000,1.41848,207.164,0.132216
317.0000,1.10018,206.943,0.129039
316.9000,1.90509,206.943,0.129039
316.8000,3.09632,207.127,0.131678
316.7000,0.786929,206.483,0.122415
316.6000,0.758335,206.414,0.121419
316.5000,1.42958,207.115,0.131499
316.4000,1.85208,206.078,0.116564
316.3000,1.35106,206.318,0.12003
316.2000,-0.59005,206.711,0.125696
316.1000,1.8,206.806,0.127066
316.0000,1.75806,207.391,0.135471
315.9000,2.91581,207.057,0.130668
315.8000,0.594987,207.614,0.138675
315.7000,2.92278,205.827,0.112948
315.6000,2.27081,206.477,0.122317
315.5000,1.24832,207.054,0.130636
315.4000,1.86488,206.572,0.123688
315.3000,2.75914,206.449,0.121925
315.2000,0.619457,206.938,0.128957
315.1000,1.27504,206.953,0.129169
315.0000,2.08242,206.377,0.120879
314.9000,1.70562,206.294,0.119687
314.8000,0.582445,206.406,0.121304
314.7000,2.87999,207.118,0.131548
314.6000,0.421551,206.379,0.120912
314.5000,0.727979,206.522,0.12297
314.4000,1.0805,206.154,0.11766
314.3000,1.24464,207.228,0.133127
314.2000,0.243463,206.089,0.116727
314.1000,2.71778,206.222,0.118641
314.0000,1.99566,206.641,0.124684
313.9000,0.420892,205.657,0.110491
313.8000,1.71869,205.844,0.113193
313.7000,0.510211,205.747,0.111785
313.6000,1.11844,206.929,0.128826
313.5000,-0.431271,205.192,0.103751
313.4000,2.69166,205.693,0.110999
313.3000,0.158109,205.635,0.110163
313.2000,2.20798,207.044,0.130489
313.1000,2.00941,206.709,0.125663
313.0000,0.343868,206.385,0.120994
312.9000,-0.0502265,206.076,0.116531
312.8000,2.38588,206.147,0.117561
312.7000,1.54015,205.481,0.107934
312.6000,1.83626,205.808,0.112669
312.5000,-0.487528,207.138,0.131841
312.4000,0.0374134,206.6,0.124096
312.3000,0.075395,205.11,0.102569
312.2000,0.0144573,206.359,0.120618
312.1000,2.01162,205.757,0.111932
312.0000,0.574939,206.634,0.124586
311.9000,1.88444,206.6,0.124096
311.8000,2.36161,206.02,0.11573
311.7000,0.862991,207.113,0.131483
311.6000,-0.661257,205.576,0.109311
311.5000,1.58306,205.681,0.110835
311.4000,1.46422,207.009,0.129984
311.3000,0.196822,207.236,0.133242
311.2000,1.11034,206.153,0.117643
311.1000,1.62997,207.224,0.133079
311.0000,-0.489384,206.532,0.123117
310.9000,1.02518,206.332,0.120226
310.8000,1.83127,206.523,0.122986
310.7000,0.19448,207.121,0.131597
310.6000,0.138622,205.108,0.102536
310.5000,1.07153,207.062,0.13075
310.4000,1.29669,205.749,0.111818
310.3000,0.204354,206.728,0.12594
310.2000,2.16173,205.664,0.110589
310.1000,0.582894,206.341,0.120357
310.0000,0.725513,206.174,0.117954
309.9000,1.75618,205.828,0.112964
309.8000,2.15837,207.056,0.130652
309.7000,0.531827,206.257,0.119147
309.6000,2.16554,207.137,0.131825
309.5000,1.24355,207.12,0.13158
309.4000,0.862955,206.796,0.126919
309.3000,1.9103,205.605,0.109737
309.2000,2.53427,206.292,0.119654
309.1000,1.93426,206.499,0.122643
309.0000,1.23392,206.236,0.118853
308.9000,0.553976,206.556,0.12346
308.8000,0.654845,206.386,0.12101
308.7000,1.2958,205.993,0.115337
308.6000,1.82728,206.147,0.117561
308.5000,0.367708,206.275,0.119409
308.4000,1.86226,206.919,0.12868
308.3000,2.08456,206.495,0.122578
308.2000,2.22009,206.668,0.125075
308.1000,2.16642,205.791,0.112424
308.0000,1.32945,205.497,0.108164
307.9000,0.0208236,206.463,0.122121
307.8000,3.44498,205.887,0.113815
307.7000,2.06484,206.33,0.12021
307.6000,1.51242,206.865,0.127914
307.5000,0.152448,206.096,0.116826
307.4000,2.42523,207.133,0.131759
307.3000,1.57447,205.48,0.107918
307.2000,2.69557,206.638,0.124635
307.1000,1.05024,206.032,0.11591
307.0000,0.985468,206.506,0.122741
306.9000,1.89043,205.978,0.115125
306.8000,2.74116,206.119,0.117153
306.7000,1.75696,206.077,0.116548
306.6000,1.62911,205.349,0.106032
306.5000,2.09375,205.359,0.106179
306.4000,2.0123,205.929,0.114421
306.3000,1.05505,205.652,0.110409
306.2000,0.729218,206.148,0.117578
306.1000,0.988087,205.715,0.111326
306.0000,-0.16518,206.226,0.118706
305.9000,-0.421024,206.462,0.122104
305.8000,0.900518,206.458,0.122055
305.7000,1.31064,206.676,0.12519
305.6000,0.435193,206.608,0.124211
305.5000,1.96753,206.414,0.121419
305.4000,1.69335,206.392,0.121092
305.3000,0.597466,205.992,0.115321
305.2000,1.84686,206.481,0.122382
305.1000,2.41408,206.857,0.1278
305.0000,1.00445,205.758,0.111949
304.9000,2.00856,205.7,0.111113
304.8000,0.903179,206.304,0.119834
304.7000,1.48899,206.751,0.126266
304.6000,0.731654,205.45,0.107491
304.5000,1.15698,205.025,0.101337
304.4000,0.222146,206.136,0.117398
304.3000,1.51374,205.857,0.113373
304.2000,1.08043,205.955,0.114797
304.1000,1.59985,206.062,0.116335
304.0000,2.68308,205.66,0.110523
303.9000,0.428833,205.136,0.102946
303.8000,0.896753,205.644,0.110294
303.7000,1.31968,205.789,0.112391
303.6000,3.55753,206.109,0.117022
303.5000,1.22775,206.277,0.119441
303.4000,1.01351,206.431,0.121664
303.3000,1.39044,205.78,0.11226
303.2000,2.16037,205.882,0.113733
303.1000,1.87798,206.162,0.117774
303.0000,2.0082,206.044,0.116073
302.9000,2.73986,206.184,0.118101
302.8000,1.51495,206.342,0.120373
302.7000,2.10376,205.775,0.112194
302.6000,1.01127,206.902,0.128436
302.5000,0.294723,206.225,0.11869
302.4000,0.465358,206.091,0.11676
302.3000,1.56657,205.983,0.11519
302.2000,1.653,206.47,0.122219
302.1000,3.48702,207.291,0.134039
302.0000,1.58366,206.864,0.127897
301.9000,1.84936,205.81,0.112702
301.8000,2.82046,206.001,0.115452
301.7000,2.72536,206.858,0.127816
301.6000,-0.129429,205.112,0.102602
301.5000,0.970749,206.437,0.121745
301.4000,2.12361,205.901,0.114012
301.3000,2.08188,205.683,0.110868
301.2000,0.132904,207.007,0.129951
301.1000,1.81494,206.528,0.123052
301.0000,1.81236,207.481,0.136756
300.9000,2.14331,206.734,0.126022
300.8000,1.96132,205.661,0.11054
300.7000,2.49232,206.238,0.118869
300.6000,-0.101467,205.248,0.104572
300.5000,2.56956,205.303,0.105359
300.4000,0.520769,205.561,0.109098
300.3000,1.27268,205.872,0.113586
300.2000,1.22315,206.07,0.11645
300.1000,0.950667,206.232,0.118788
300.0000,0.583838,206.04,0.116024
299.9000,0.430631,206.498,0.122627
299.8000,1.28942,206.381,0.120945
299.7000,1.58579,205.882,0.113733
299.6000,2.3019,205.388,0.106589
299.5000,1.18953,205.217,0.104112
299.4000,2.10237,205.43,0.107196
299.3000,-0.0197844,204.48,0.093428
299.2000,1.91938,206.488,0.12248
299.1000,1.31836,205.317,0.105572
299.0000,1.33933,205.524,0.108557
298.9000,2.19645,204.531,0.0941687
298.8000,1.6434,205.359,0.106179
298.7000,1.55252,205.654,0.110442
298.6000,1.70669,205.9,0.113995
298.5000,2.32789,205.268,0.10485
298.4000,2.20984,205.827,0.112948
298.3000,1.57427,206.141,0.11748
298.2000,1.80836,205.47,0.107786
298.1000,2.13571,205.774,0.112178
298.0000,0.457279,207.057,0.130668
297.9000,1.57897,206.013,0.115632
297.8000,0.894868,205.619,0.109934
297.7000,0.0586897,206.032,0.11591
297.6000,2.34577,205.86,0.113422
297.5000,1.31167,206.449,0.121925
297.4000,1.43767,205.997,0.115403
297.3000,0.884269,205.691,0.110982
297.2000,1.60794,206.477,0.122317
297.1000,-1.18914,205.865,0.113488
297.0000,2.22768,205.77,0.112112
296.9000,0.643761,204.859,0.0989219
296.8000,1.2349,205.568,0.109196
296.7000,1.93131,206.566,0.123606
296.6000,-0.0512815,204.804,0.0981328
296.5000,-0.322051,206.175,0.11797
296.4000,2.16824,205.765,0.112047
296.3000,2.93246,206.116,0.11712
296.2000,0.509684,205.033,0.101452
296.1000,0.339394,205.422,0.107081
296.0000,-1.1018,205.583,0.109409
295.9000,1.36718,205.162,0.103324
295.8000,0.843702,204.908,0.0996451
295.7000,2.89679,205.272,0.104916
295.6000,2.11025,205.702,0.11113
295.5000,1.23593,205.37,0.106327
295.4000,0.356113,205.123,0.10275
295.3000,1.9672,206.004,0.115501
295.2000,1.09306,205.452,0.107524
295.1000,1.51171,205.899,0.113979
295.0000,1.04793,205.227,0.10426
294.9000,0.232281,205.934,0.114486
294.8000,2.12442,205.517,0.108459
294.7000,3.01554,205.578,0.109344
294.6000,1.93538,205.707,0.111212
294.5000,-0.455766,205.524,0.108557
294.4000,2.15769,205.5,0.108213
294.3000,0.375135,205.583,0.109409
294.2000,2.21969,205.926,0.114371
294.1000,2.55654,205.339,0.105884
294.0000,0.610902,205.668,0.110638
293.9000,2.2344,206.233,0.118804
293.8000,2.36827,205.704,0.111162
293.7000,1.55902,205.426,0.107147
293.6000,2.00096,204.981,0.100697
293.5000,0.863532,206.253,0.119098
293.4000,0.187796,206.512,0.122823
293.3000,0.989922,205.969,0.114993
293.2000,1.37038,205.423,0.107098
293.1000,0.951552,205.169,0.103423
293.0000,1.21511,205.199,0.103849
292.9000,1.87589,205.527,0.108606
292.8000,2.29171,206.073,0.116498
292.7000,1.99151,206.158,0.117725
292.6000,-0.0110809,204.487,0.0935267
292.5000,2.40459,205.655,0.110458
292.4000,0.830808,205.935,0.114503
292.3000,0.974847,205.106,0.102503
292.2000,2.20012,205.21,0.104013
292.1000,2.15319,205.092,0.102306
292.0000,-0.646081,204.485,0.0934939
291.9000,1.38868,204.855,0.0988725
291.8000,2.53505,205.494,0.108131
291.7000,0.702746,205.347,0.105999
291.6000,0.526682,205.991,0.115304
291.5000,1.76286,205.089,0.102257
291.4000,1.72714,205.526,0.10859
291.3000,1.17956,205.974,0.115059
291.2000,1.07108,204.682,0.096357
291.1000,0.480528,204.995,0.100894
291.0000,1.83345,205.798,0.112522
290.9000,0.904043,205.996,0.115386
290.8000,0.642939,205.405,0.106835
290.7000,2.19596,205.772,0.112145
290.6000,1.51238,206.188,0.11815
290.5000,2.13587,205.571,0.109246
290.4000,2.07,204.354,0.0916004
290.3000,2.58557,206.078,0.116564
290.2000,0.969955,206.155,0.117676
290.1000,2.08576,205.144,0.103061
290.0000,-0.402874,205.643,0.110278
289.9000,1.11733,206.361,0.120651
289.8000,0.761529,205.448,0.107459
289.7000,0.909935,205.151,0.10316
289.6000,0.191048,205.662,0.110556
289.5000,0.913559,204.806,0.0981658
289.4000,0.370787,206.137,0.117415
289.3000,1.26508,206.301,0.119785
289.2000,0.777823,206.72,0.125826
289.1000,1.18344,206.311,0.119932
289.0000,0.219909,206.921,0.128713
288.9000,1.8851,205.43,0.107196
288.8000,1.20149,206.367,0.120732
288.7000,1.88595,206.183,0.118085
288.6000,0.234955,207.639,0.139033
288.5000,1.20994,205.006,0.101058
288.4000,2.23357,205.158,0.103258
288.3000,1.47865,206.08,0.116597
288.2000,0.965875,205.628,0.110065
288.1000,1.28819,205.555,0.109016
288.0000,2.02097,206.139,0.117447
287.9000,1.46541,206.406,0.121304
287.8000,1.9068,206.315,0.119981
287.7000,0.64636,205.608,0.10977
287.6000,2.06158,206.236,0.118853
287.5000,1.94868,205.898,0.113962
287.4000,0.972279,206.409,0.121337
287.3000,1.694,205.943,0.114617
287.2000,1.80746,206.265,0.119262
287.1000,2.90921,206.957,0.129234
287.0000,0.0355057,206.705,0.125614
286.9000,0.875919,206.741,0.12612
286.8000,0.0127594,207.571,0.138057
286.7000,0.421758,206.381,0.120945
286.6000,1.27296,206.783,0.126723
286.5000,1.93051,206.47,0.122219
286.4000,2.3565,205.831,0.112997
286.3000,0.968818,206.949,0.12912
286.2000,-0.573587,207.273,0.133779
286.1000,-0.302215,206.343,0.120389
286.0000,1.06174,207.075,0.130929
285.9000,2.08093,206.21,0.118477
285.8000,1.97924,206.468,0.122186
285.7000,0.534388,205.759,0.111965
285.6000,1.18153,206.347,0.120455
285.5000,0.289748,206.716,0.125761
285.4000,0.89647,205.232,0.104342
285.3000,0.88891,205.988,0.115272
285.2000,2.04571,205.759,0.111965
285.1000,0.396891,206.601,0.124113
285.0000,0.498055,206.929,0.128826
284.9000,1.68324,207.209,0.132851
284.8000,0.187949,206.491,0.122529
284.7000,0.823259,205.942,0.114601
284.6000,0.278523,205.998,0.115419
284.5000,0.967039,206.038,0.115991
284.4000,0.257025,206.323,0.120095
284.3000,-0.919723,206.667,0.125059
284.2000,0.736342,206.129,0.1173
284.1000,2.02379,206.157,0.117709
284.0000,0.0288634,206.443,0.121827
283.9000,2.04998,207.066,0.130799
283.8000,1.09796,206.304,0.119834
283.7000,1.28224,206.3,0.119768
283.6000,0.375559,205.337,0.105851
283.5000,2.60298,205.102,0.102454
283.4000,1.35507,206.115,0.117104
283.3000,0.917429,207.623,0.138805
283.2000,-0.549123,206.393,0.121108
283.1000,2.1269,206.512,0.122823
283.0000,0.814688,206.468,0.122186
282.9000,2.02718,205.793,0.112456
282.8000,1.56663,206.215,0.118542
282.7000,2.13462,206.745,0.126185
282.6000,0.74921,206.171,0.117905
282.5000,0.638821,206.729,0.125956
282.4000,1.3821,207.494,0.136952
282.3000,2.53117,206.94,0.128989
282.2000,1.22651,205.532,0.108672
282.1000,0.354176,206.44,0.121794
282.0000,2.3555,205.951,0.114732
281.9000,0.774335,206.044,0.116073
281.8000,1.64484,206.193,0.118232
281.7000,1.57778,206.364,0.1207
281.6000,1.15024,207.704,0.139959
281.5000,1.85249,206.831,0.127424
281.4000,1.97288,206.279,0.119474
281.3000,1.21126,206.128,0.117284
281.2000,0.743119,206.993,0.129756
281.1000,1.8577,206.455,0.122007
281.0000,-0.413492,206.109,0.117022
280.9000,-1.40305,206.174,0.117954
280.8000,-0.700247,206.192,0.118215
280.7000,0.0342517,206.267,0.119295
280.6000,0.485438,206.278,0.119458
280.5000,-0.503786,206.361,0.120651
280.4000,0.283487,206.727,0.125924
280.3000,1.90344,206.564,0.123574
280.2000,1.69953,206.632,0.124553
280.1000,1.35057,206.321,0.120079
280.0000,1.40897,206.148,0.117578
279.9000,0.117846,206.038,0.115991
279.8000,1.36629,206.523,0.122986
279.7000,0.0564978,206.284,0.11954
279.6000,1.78558,206.8,0.126968
279.5000,0.521208,206.313,0.119965
279.4000,0.371238,207.375,0.135243
279.3000,0.777221,207.001,0.12987
279.2000,2.53398,207.443,0.13622
279.1000,1.76502,207.18,0.132444
279.0000,0.817505,206.334,0.120258
278.9000,1.42672,207.287,0.133974
278.8000,1.73623,206.426,0.121582
278.7000,0.133464,206.04,0.116024
278.6000,0.432084,206.515,0.122872
278.5000,0.905062,206.798,0.126951
278.4000,0.696498,206.243,0.118951
278.3000,1.90737,207.254,0.133502
278.2000,0.70535,206.864,0.127897
278.1000,-0.125002,206.249,0.119033
278.0000,1.29434,206.962,0.129299
277.9000,2.33205,206.761,0.126413
277.8000,2.41959,206.249,0.119033
277.7000,1.40701,206.937,0.128941
277.6000,-0.121916,207.716,0.140138
277.5000,2.56098,207.653,0.139228
277.4000,1.10279,206.38,0.120929
277.3000,1.45265,206.573,0.123705
277.2000,-0.862553,207.221,0.13303
277.1000,1.91023,207.207,0.132835
277.0000,1.02453,207.181,0.13246
276.9000,1.47853,207.896,0.142721
276.8000,0.493278,206.871,0.127995
276.7000,0.568093,206.462,0.122104
276.6000,0.601406,206.439,0.121778
276.5000,0.771438,207.069,0.130847
276.4000,1.6165,207.032,0.13031
276.3000,2.34982,206.574,0.123721
276.2000,0.292103,206.533,0.123133
276.1000,1.79185,206.404,0.121272
276.0000,0.240278,206.253,0.119098
275.9000,1.77357,207.109,0.131417
275.8000,-0.0448599,206.798,0.126951
275.7000,0.126051,206.085,0.116662
275.6000,1.68492,207.461,0.13648
275.5000,2.22296,205.904,0.114061
275.4000,-0.549389,205.893,0.113897
275.3000,1.71275,207.439,0.136154
275.2000,0.992372,206.993,0.129756
275.1000,1.40222,206.19,0.118183
275.0000,0.0533228,206.052,0.116188
274.9000,2.03935,206.321,0.120079
274.8000,-0.241093,207.053,0.130619
274.7000,-0.476628,206.454,0.12199
274.6000,0.529399,206.137,0.117415
274.5000,1.55787,207.771,0.140918
274.4000,-0.613064,206.906,0.1285
274.3000,1.60071,207.112,0.131466
274.2000,0.408532,206.869,0.127963
274.1000,1.85395,206.538,0.123198
274.0000,1.41634,206.832,0.127441
273.9000,1.40111,207.229,0.133144
273.8000,1.32272,206.968,0.129397
273.7000,0.72628,206.522,0.12297
273.6000,1.74124,206.027,0.115828
273.5000,-0.168937,206.318,0.12003
273.4000,-1.07779,206.16,0.117758
273.3000,1.14815,207.104,0.131352
273.2000,1.13846,205.703,0.111146
273.1000,0.0891543,206.469,0.122202
273.0000,0.343403,207.518,0.137293
272.9000,-0.206999,204.592,0.0950574
272.8000,-0.565445,207.376,0.13526
272.7000,1.62512,206.554,0.123427
272.6000,-1.50521,207.241,0.133323
272.5000,-0.239802,207.269,0.133713
272.4000,0.38003,207.528,0.137439
272.3000,0.718279,207.498,0.137
272.2000,0.0525508,206.417,0.121451
272.1000,-0.116159,207.185,0.132509
272.0000,0.72733,207.632,0.138935
271.9000,0.391572,206.418,0.121467
271.8000,1.21588,207.195,0.132655
271.7000,-0.49601,207.256,0.133534
271.6000,2.24394,207.156,0.132102
271.5000,-0.635494,206.281,0.119491
271.4000,0.919936,205.959,0.114846
271.3000,0.939818,206.906,0.1285
271.2000,0.555708,207.775,0.140983
271.1000,1.15953,206.313,0.119965
271.0000,-0.610402,206.852,0.127718
270.9000,-0.499065,205.448,0.107459
270.8000,2.5081,208.765,0.155154
270.7000,1.54243,207.769,0.140902
270.6000,1.32465,206.866,0.12793
270.5000,0.915513,206.647,0.124766
270.4000,-0.732001,207.352,0.134918
270.3000,0.6415,206.88,0.128126
270.2000,1.8035,207.059,0.130701
270.1000,0.357316,207.671,0.139488
270.0000,0.32457,206.266,0.119278
269.9000,0.242073,207.347,0.134837
269.8000,0.705286,205.978,0.115125
269.7000,0.300223,207.409,0.135731
269.6000,1.38742,207.304,0.134218
269.5000,0.283029,207.129,0.131711
269.4000,0.879771,208.271,0.148092
269.3000,-0.865859,207.287,0.133974
269.2000,-0.130255,206.707,0.12563
269.1000,0.780431,206.471,0.122235
269.0000,-0.231478,206.862,0.127865
268.9000,1.11993,207.082,0.131026
268.8000,0.469668,207.65,0.139195
268.7000,1.6028,207.29,0.134023
268.6000,0.736819,207.307,0.134267
268.5000,1.40977,207.481,0.136756
268.4000,-0.210232,208.322,0.148821
268.3000,-0.422451,207.833,0.141811
268.2000,0.954684,208.673,0.153827
268.1000,1.47368,207.541,0.137618
268.0000,-0.19082,207.636,0.138984
267.9000,1.5141,206.996,0.129788
267.8000,-1.76768,207.924,0.14311
267.7000,-0.856344,207.484,0.136805
267.6000,0.971708,207.877,0.142445
267.5000,-0.45534,207.405,0.135666
267.4000,1.32154,208.25,0.147784
267.3000,0.2747,207.205,0.132802
267.2000,1.72612,208.499,0.151349
267.1000,0.394489,207.735,0.140414
267.0000,0.170584,207.044,0.130489
266.9000,-0.178641,207.47,0.13661
266.8000,-1.80566,207.95,0.143484
266.7000,0.904967,208.131,0.146081
266.6000,1.28231,208.58,0.152499
266.5000,1.16386,207.167,0.132248
266.4000,0.840007,207.769,0.140902
266.3000,0.504042,207.637,0.139
266.2000,2.52331,207.122,0.131613
266.1000,-1.39661,207.496,0.136984
266.0000,0.250333,207.95,0.143484
265.9000,0.792691,207.885,0.142558
265.8000,2.5712,207.629,0.138886
265.7000,-0.888961,208.588,0.152613
265.6000,0.0780035,208.583,0.152548
265.5000,1.80316,208.474,0.150993
265.4000,1.70852,207.918,0.143029
265.3000,2.51977,208.173,0.146681
265.2000,0.276158,208.445,0.150572
265.1000,1.99225,209.597,0.167013
265.0000,2.11221,207.916,0.142997
264.9000,1.37373,208.47,0.150928
264.8000,0.636573,208.403,0.149972
264.7000,0.572482,208.416,0.150167
264.6000,-0.690637,207.066,0.130799
264.5000,-0.00468357,209.274,0.162413
264.4000,1.71358,208.258,0.147897
264.3000,0.857377,207.751,0.140642
264.2000,0.0636461,208.172,0.146665
264.1000,1.28432,208.956,0.157872
264.0000,0.920133,208.194,0.146989
263.9000,0.107788,208.508,0.151479
263.8000,0.0975314,208.947,0.157743
263.7000,1.51456,209.188,0.161185
263.6000,0.351137,208.571,0.15237
263.5000,1.27791,209.162,0.160814
263.4000,1.16873,210.587,0.181083
263.3000,-0.0553465,208.241,0.147654
263.2000,1.76956,208.303,0.148546
263.1000,0.183726,208.969,0.158066
263.0000,0.713448,208.706,0.154313
262.9000,1.72483,208.405,0.150004
262.8000,-0.0557116,208.403,0.149972
262.7000,0.368105,208.905,0.157144
262.6000,0.577744,209.279,0.162478
262.5000,-0.160708,207.085,0.131075
262.4000,-0.8459,209.196,0.161299
262.3000,-0.148153,209.981,0.172477
262.2000,-0.248529,209.116,0.160151
262.1000,-0.935274,208.948,0.157759
262.0000,0.782744,209.324,0.163123
261.9000,1.87157,207.288,0.13399
261.8000,-1.1831,208.158,0.14647
261.7000,0.620633,209.266,0.1623
261.6000,0.648335,208.572,0.152386
261.5000,0.224072,209.185,0.161137
261.4000,2.72099,209.045,0.159149
261.3000,1.80251,209.778,0.169593
261.2000,-0.221649,209.234,0.161848
261.1000,0.53923,209.614,0.167255
261.0000,1.16887,209.42,0.164496
260.9000,0.37798,209.082,0.159666
260.8000,-0.858804,209.455,0.164996
260.7000,1.62817,209.434,0.16469
260.6000,0.472894,209.191,0.161234
260.5000,-0.470323,209.196,0.161299
260.4000,-0.650171,209.461,0.165077
260.3000,-0.560858,208.529,0.151771
260.2000,0.0271118,209.763,0.169367
260.1000,-1.86994,209.004,0.158567
260.0000,2.1261,208.455,0.150717
259.9000,-1.58734,208.752,0.15496
259.8000,-0.413227,209.646,0.167706
259.7000,-0.56031,209.821,0.170205
259.6000,1.239,209.44,0.16477
259.5000,0.90281,210.116,0.174393
259.4000,-1.63744,210.258,0.176404
259.3000,0.346905,209.718,0.168738
259.2000,2.01986,209.75,0.16919
259.1000,-0.422758,209.619,0.167319
259.0000,2.17326,209.542,0.166223
258.9000,1.15522,209.654,0.167819
258.8000,-1.11511,209.965,0.172251
258.7000,-2.03998,209.225,0.161719
258.6000,-0.0622265,210.584,0.181035
258.5000,1.37055,211.319,0.191448
258.4000,1.2274,210.217,0.175825
258.3000,0.490907,209.778,0.169593
258.2000,-0.596244,209.892,0.171204
258.1000,-0.35496,210.258,0.176404
258.0000,2.07978,209.828,0.170302
257.9000,-0.784156,209.818,0.170157
257.8000,1.6154,210.637,0.18179
257.7000,-1.32065,209.155,0.160717
257.6000,-1.37072,209.851,0.170624
257.5000,1.83175,209.612,0.167223
257.4000,-1.46149,210.19,0.175439
257.3000,0.82432,210.55,0.180553
257.2000,-0.254989,210.283,0.176758
257.1000,0.892824,210.181,0.17531
257.0000,-0.247968,210.289,0.176855
256.9000,1.90362,210.653,0.182015
256.8000,0.6035,210.53,0.180264
256.7000,0.53645,209.988,0.172573
256.6000,-0.206256,210.312,0.177177
256.5000,0.870993,210.366,0.177949
256.4000,0.715457,210.344,0.177627
256.3000,0.897509,210.771,0.183685
256.2000,0.224055,209.862,0.170785
256.1000,-0.0740781,210.868,0.185066
256.0000,-0.595773,210.199,0.175568
255.9000,1.16931,210.772,0.183701
255.8000,0.374288,210.314,0.177209
255.7000,1.57861,210.925,0.185868
255.6000,-0.556551,210.601,0.181276
255.5000,0.552249,210.56,0.180697
255.4000,-0.0214055,210.46,0.179283
255.3000,1.46607,210.454,0.179187
255.2000,0.127916,210.257,0.176388
255.1000,0.618427,210.152,0.174908
255.0000,0.670189,210.985,0.186718
254.9000,0.905658,210.386,0.178222
254.8000,0.711323,210.636,0.181774
254.7000,-0.284712,210.771,0.183685
254.6000,-0.460252,211.173,0.189381
254.5000,-0.237262,210.493,0.179749
254.4000,1.28669,211.395,0.192521
254.3000,2.10296,210.508,0.179958
254.2000,2.14935,210.003,0.172783
254.1000,-0.0226813,210.434,0.178913
254.0000,1.71574,210.777,0.183765
253.9000,0.824363,210.402,0.178447
253.8000,-0.995833,211.392,0.192473
253.7000,1.05367,210.887,0.185322
253.6000,-0.420941,211.556,0.194795
253.5000,1.44434,211.005,0.187007
253.4000,0.458302,211.624,0.195755
253.3000,2.021,210.787,0.18391
253.2000,0.0272263,211.064,0.187841
253.1000,0.381445,211.274,0.190807
253.0000,-1.44631,210.857,0.184905
252.9000,0.549416,211.17,0.189332
252.8000,1.15238,211.785,0.198027
252.7000,-0.0731925,211.87,0.199226
252.6000,0.998994,211.52,0.194283
252.5000,-0.0870956,211.485,0.193786
252.4000,0.0204613,211.681,0.196555
252.3000,1.06076,212.184,0.203652
252.2000,-2.25848,211.537,0.194523
252.1000,-0.91491,211.384,0.192361
252.0000,-0.406232,212.118,0.202725
251.9000,1.18833,211.736,0.197339
251.8000,0.245962,211.732,0.197275
251.7000,0.564867,212.006,0.201144
251.6000,-0.373171,211.714,0.197019
251.5000,-0.511891,212.182,0.20362
251.4000,-1.53608,211.579,0.195115
251.3000,-0.201479,212.132,0.202917
251.2000,0.503939,212.165,0.20338
251.1000,0.304354,211.935,0.200137
251.0000,0.458685,212.322,0.205599
250.9000,0.837623,212.618,0.209762
250.8000,-0.318801,212.065,0.201975
250.7000,0.417819,211.767,0.197771
250.6000,0.525064,212.622,0.209826
250.5000,-1.23049,211.805,0.198315
250.4000,0.217897,212.264,0.204785
250.3000,-0.677417,212.679,0.210623
250.2000,0.117224,212.289,0.205137
250.1000,-0.285532,212.14,0.203029
250.0000,-0.815587,212.236,0.204386
249.9000,0.770037,212.171,0.203476
249.8000,0.871895,212.644,0.210129
249.7000,2.83247,213.255,0.21871
249.6000,-0.600887,213.01,0.215274
249.5000,-0.3203,212.457,0.207498
249.4000,0.758977,211.336,0.191688
249.3000,-1.21303,211.875,0.19929
249.2000,0.0376306,211.865,0.199162
249.1000,-1.04806,213.012,0.215305
249.0000,0.168023,213.034,0.215608
248.9000,-1.04105,212.187,0.2037
248.8000,0.554087,212.914,0.213921
248.7000,-0.326016,212.161,0.203332
248.6000,-0.712766,212.465,0.20761
248.5000,-0.182914,212.775,0.211977
248.4000,0.245321,212.895,0.213666
248.3000,-0.74765,213.129,0.216945
248.2000,1.01172,212.764,0.211818
248.1000,-2.02237,212.282,0.205041
248.0000,-0.200332,212.248,0.204562
247.9000,-2.6539,213.396,0.220697
247.8000,-0.302,212.931,0.214159
247.7000,-0.788584,213.156,0.217327
247.6000,1.03328,213.029,0.215544
247.5000,-1.25953,213.133,0.217008
247.4000,-0.462653,213.287,0.219171
247.3000,-1.90331,213.757,0.225748
247.2000,-1.64434,213.466,0.221682
247.1000,-1.66557,213.987,0.228968
247.0000,-0.513296,213.068,0.216085
246.9000,-1.68014,214.14,0.231108
246.8000,0.416876,213.263,0.218821
246.7000,-0.638645,213.63,0.22397
246.6000,-1.13995,213.014,0.215338
246.5000,-0.656316,214.722,0.239245
246.4000,0.871229,213.283,0.219108
246.3000,-1.50726,213.985,0.228952
246.2000,-1.91178,214.096,0.230506
246.1000,-0.186319,214.728,0.239324
246.0000,-1.72237,214.221,0.232249
245.9000,-1.67147,214.153,0.231299
245.8000,-0.863999,213.984,0.228937
245.7000,-1.28894,213.906,0.227842
245.6000,-1.07245,213.928,0.228144
245.5000,-0.422458,215.071,0.244112
245.4000,-1.07908,214.442,0.235337
245.3000,-0.387871,214.708,0.239055
245.2000,-0.711012,213.964,0.228651
245.1000,-1.96906,214.988,0.242959
245.0000,-0.347609,214.921,0.242027
244.9000,-2.40012,214.753,0.239672
244.8000,-2.54382,214.825,0.240683
244.7000,-3.14961,213.709,0.225081
244.6000,-3.04871,214.794,0.240257
244.5000,-2.4991,214.848,0.241
244.4000,-1.80846,214.831,0.240763
244.3000,-1.6149,215.5,0.250092
244.2000,-1.51867,214.217,0.232186
244.1000,-1.544,214.79,0.240194
244.0000,-2.61577,214.2,0.231948
243.9000,-3.45365,214.383,0.234514
243.8000,-2.26705,215.564,0.250975
243.7000,-2.59098,214.867,0.241268
243.6000,-3.91681,215.778,0.253952
243.5000,-4.36737,216.769,0.267706
243.4000,-3.43122,214.532,0.236587
243.3000,-3.54404,214.972,0.242738
243.2000,-3.73724,215.227,0.24629
243.1000,-3.10074,215.282,0.247048
243.0000,-3.36967,215.798,0.254236
242.9000,-3.56668,215.864,0.255149
242.8000,-5.99044,215.607,0.251573
242.7000,-4.70431,216.299,0.261189
242.6000,-4.53799,215.929,0.256046
242.5000,-4.34581,215.634,0.251952
242.4000,-4.12322,216.624,0.265697
242.3000,-2.80565,216.768,0.26769
242.2000,-4.30895,216.381,0.262321
242.1000,-4.73205,216.227,0.260183
242.0000,-4.21256,216.802,0.268161
241.9000,-3.64539,217.553,0.278547
241.8000,-3.79683,216.64,0.265917
241.7000,-5.07222,216.258,0.260623
241.6000,-5.95503,216.798,0.268098
241.5000,-4.96206,217.691,0.280439
241.4000,-8.10458,217.428,0.27681
241.3000,-5.32106,217.556,0.278578
241.2000,-7.21846,217.369,0.275996
241.1000,-8.46633,217.258,0.274462
241.0000,-5.36977,218.043,0.285298
240.9000,-6.66986,217.68,0.280298
240.8000,-7.18093,218.259,0.288279
240.7000,-4.64581,217.847,0.282596
240.6000,-7.40451,219.063,0.299323
240.5000,-7.83661,218.495,0.291523
240.4000,-6.97622,218.921,0.297379
240.3000,-6.84792,218.137,0.286594
240.2000,-6.33259,218.596,0.29291
240.1000,-7.63271,218.361,0.289683
240.0000,-7.6653,218.404,0.290276
239.9000,-6.6496,218.796,0.295667
239.8000,-9.10562,219.237,0.301718
239.7000,-8.82755,219.863,0.310288
239.6000,-6.3801,220.136,0.314023
239.5000,-7.27316,219.501,0.305338
239.4000,-7.50594,220.199,0.314891
239.3000,-8.2572,219.949,0.311466
239.2000,-11.1038,219.763,0.308923
239.1000,-10.0257,219.584,0.306471
239.0000,-9.15482,219.728,0.308442
238.9000,-10.005,220.284,0.316052
238.8000,-10.2915,220.071,0.31314
238.7000,-13.6779,219.16,0.300661
238.6000,-10.8326,221.223,0.328865
238.5000,-11.6468,220.843,0.323677
238.4000,-10.875,220.878,0.324156
238.3000,-12.8006,221.217,0.328772
238.2000,-12.5296,221.069,0.326766
238.1000,-11.8064,221.621,0.334276
238.0000,-13.697,221.413,0.33144
237.9000,-13.9114,222.105,0.340848
237.8000,-11.592,221.092,0.327074
237.7000,-12.9557,221.858,0.337494
237.6000,-12.9812,222.549,0.346871
237.5000,-13.8812,223.875,0.36479
237.4000,-14.7922,222.405,0.344921
237.3000,-12.6563,223.515,0.359928
237.2000,-12.9921,222.044,0.340018
237.1000,-14.2832,222.922,0.351919
237.0000,-15.6984,224.253,0.369889
236.9000,-16.727,223.935,0.365599
236.8000,-14.6505,222.608,0.34767
236.7000,-17.5811,224.279,0.37024
236.6000,-16.7236,223.837,0.364286
236.5000,-16.6235,223.842,0.364347
236.4000,-16.2137,224.956,0.379336
236.3000,-20.6594,225.245,0.383214
236.2000,-17.2679,225.158,0.382043
236.1000,-17.1059,224.35,0.371186
236.0000,-17.8538,225.531,0.387058
235.9000,-19.1218,226.228,0.396385
235.8000,-19.2894,225.71,0.389456
235.7000,-19.7434,224.81,0.377372
235.6000,-17.3611,226.113,0.39484
235.5000,-17.3521,224.943,0.379168
235.4000,-22.4298,225.731,0.389729
235.3000,-23.4797,225.778,0.390367
235.2000,-23.403,227.685,0.415811
235.1000,-24.4265,227.041,0.407228
235.0000,-20.1219,227.572,0.414304
234.9000,-22.3722,227.558,0.414124
234.8000,-22.8071,227.994,0.419907
234.7000,-24.7077,228.595,0.42789
234.6000,-25.2141,227.212,0.409508
234.5000,-25.7454,227.778,0.417047
234.4000,-23.6695,228.755,0.430006
234.3000,-25.5275,228.975,0.432917
234.2000,-24.5122,229.901,0.445148
234.1000,-28.2195,229.386,0.438356
234.0000,-27.6231,230.134,0.448226
233.9000,-26.2007,229.379,0.438266
233.8000,-25.205,229.836,0.444296
233.7000,-27.8537,228.443,0.425877
233.6000,-29.0441,230.399,0.451719
233.5000,-28.9081,230.824,0.457309
233.4000,-29.713,230.41,0.451868
233.3000,-29.9783,230.433,0.452166
233.2000,-27.6794,231.582,0.467262
233.1000,-28.6897,230.417,0.451957
233.0000,-31.3155,231.598,0.46747
232.9000,-31.36,232.297,0.476625
232.8000,-30.5498,232.661,0.481378
232.7000,-34.2678,232.251,0.476017
232.6000,-31.2221,232.295,0.476595
232.5000,-33.4585,232.484,0.479069
232.4000,-33.6739,233.227,0.488771
232.3000,-36.7941,232.538,0.47978
232.2000,-36.0629,232.762,0.482695
232.1000,-35.8761,233.824,0.496547
232.0000,-34.5684,233.824,0.496547
231.9000,-34.9781,234.544,0.505894
231.8000,-36.2957,234.325,0.503055
231.7000,-38.2068,234.021,0.49911
231.6000,-35.8427,235.083,0.512885
231.5000,-37.8471,236.137,0.526506
231.4000,-40.1793,235.487,0.518105
231.3000,-39.0273,235.511,0.518428
231.2000,-38.5304,236.211,0.527457
231.1000,-39.7266,235.51,0.518413
231.0000,-39.6894,235.811,0.522293
230.9000,-39.8399,236.853,0.535734
230.8000,-38.2879,235.603,0.519614
230.7000,-40.073,237.061,0.538417
230.6000,-42.6568,237.006,0.537702
230.5000,-42.8181,237.595,0.545274
230.4000,-40.0815,236.735,0.534218
230.3000,-43.0883,237.486,0.543877
230.2000,-42.3107,237.559,0.544808
230.1000,-43.5218,238.078,0.551465
230.0000,-44.3964,237.712,0.546772
229.9000,-43.2158,239.362,0.567881
229.8000,-45.3821,238.519,0.557109
229.7000,-46.795,238.716,0.559631
229.6000,-43.4557,238.434,0.556022
229.5000,-46.3622,239.35,0.567736
229.4000,-46.1097,239.428,0.568734
229.3000,-47.5454,240.248,0.579169
229.2000,-45.5882,240.501,0.582395
229.1000,-47.0699,239.432,0.568777
229.0000,-47.0137,239.928,0.575102
228.9000,-49.2671,240.155,0.577986
228.8000,-50.3645,241.01,0.588855
228.7000,-45.5898,241.236,0.591715
228.6000,-51.1745,241.294,0.592447
228.5000,-49.892,243.048,0.614611
228.4000,-51.251,242.504,0.607753
228.3000,-50.9913,242.722,0.610512
228.2000,-53.7725,241.936,0.600581
228.1000,-52.6447,241.258,0.592002
228.0000,-53.3843,242.887,0.612583
227.9000,-53.4249,243.511,0.620445
227.8000,-53.1494,243.932,0.625743
227.7000,-53.3275,243.888,0.625188
227.6000,-52.6817,244.72,0.635621
227.5000,-53.8407,244.246,0.629683
227.4000,-55.1954,245.409,0.644241
227.3000,-55.2389,245.178,0.641351
227.2000,-56.0359,245.475,0.645062
227.1000,-56.1707,246.302,0.655383
227.0000,-56.7566,245.661,0.647398
226.9000,-56.8662,246.304,0.655412
226.8000,-57.3521,245.963,0.65116
226.7000,-58.9772,247.102,0.665338
226.6000,-59.2008,246.915,0.663014
226.5000,-57.3157,247.06,0.664817
226.4000,-60.9,247.515,0.670474
226.3000,-56.7472,247.257,0.667267
226.2000,-58.3597,247.519,0.670516
226.1000,-61.9404,248.679,0.684887
226.0000,-56.5514,247.874,0.674929
225.9000,-61.2464,248.791,0.686274
225.8000,-58.4736,249.232,0.691716
225.7000,-60.5629,249.063,0.689632
225.6000,-60.0993,249.394,0.693715
225.5000,-64.2519,249.768,0.698323
225.4000,-61.2336,251.777,0.722986
225.3000,-62.1655,250.529,0.70769
225.2000,-61.6238,251.352,0.717783
225.1000,-62.7691,251.296,0.717103
225.0000,-59.775,250.627,0.708887
224.9000,-63.0616,250.569,0.708177
224.8000,-61.1132,251.765,0.722847
224.7000,-61.8668,251.951,0.72512
224.6000,-62.2532,252.149,0.727544
224.5000,-63.6603,252.573,0.732719
224.4000,-63.8839,252.735,0.734696
224.3000,-60.9054,253.706,0.746522
224.2000,-65.58,253.054,0.738578
224.1000,-63.5336,252.856,0.736175
224.0000,-62.4999,254.178,0.752248
223.9000,-62.3581,255.332,0.766239
223.8000,-67.2099,253.298,0.741559
223.7000,-67.8775,255.55,0.768869
223.6000,-66.4017,255.325,0.766157
223.5000,-64.9621,255.925,0.773399
223.4000,-68.2018,254.915,0.761192
223.3000,-65.4158,254.652,0.758007
223.2000,-64.7474,254.741,0.759079
223.1000,-65.7427,255.337,0.766294
223.0000,-64.7155,255.384,0.766869
222.9000,-66.5332,256.473,0.780013
222.8000,-64.6018,256.208,0.776817
222.7000,-66.3944,257.564,0.793138
222.6000,-64.6119,256.829,0.784298
222.5000,-67.3442,257.593,0.793478
222.4000,-66.8281,257.266,0.789558
222.3000,-67.3345,258.47,0.803993
222.2000,-68.0059,258.377,0.802881
222.1000,-68.3083,257.913,0.797326
222.0000,-64.3127,258.561,0.805092
221.9000,-65.1497,259.099,0.811514
221.8000,-64.3206,259.126,0.811839
221.7000,-64.4193,260.049,0.822856
221.6000,-62.6523,259.909,0.821182
221.5000,-66.4814,260.874,0.832669
221.4000,-65.3738,261.228,0.836867
221.3000,-65.3888,261.021,0.834419
221.2000,-67.698,261.134,0.835751
221.1000,-67.3802,261.405,0.838978
221.0000,-67.3543,261.76,0.843182
220.9000,-65.3131,261.765,0.843236
220.8000,-70.0955,262.179,0.848146
220.7000,-66.6188,262.382,0.850545
220.6000,-66.7942,262.934,0.857064
220.5000,-69.1795,263.127,0.859337
220.4000,-64.0341,264.133,0.871187
220.3000,-67.5426,263.768,0.866894
220.2000,-64.5093,265.884,0.89173
220.1000,-64.5873,264.63,0.877032
220.0000,-65.8524,264.576,0.876393
219.9000,-66.2374,264.664,0.877431
219.8000,-68.2564,265.072,0.882217
219.7000,-65.7582,265.788,0.890603
219.6000,-64.4209,265.786,0.890577
219.5000,-64.8747,265.447,0.886612
219.4000,-65.4036,266.476,0.898641
219.3000,-65.0845,266.914,0.903756
219.2000,-65.2962,266.301,0.896603
219.1000,-63.9868,266.509,0.899024
219.0000,-65.8402,266.97,0.904403
218.9000,-61.7326,268.693,0.924437
218.8000,-64.0037,269.007,0.928074
218.7000,-65.9734,268.834,0.926065
218.6000,-66.5934,268.833,0.926052
218.5000,-68.1594,268.531,0.922558
218.4000,-68.1484,269.506,0.933843
218.3000,-65.5588,269.159,0.929832
218.2000,-68.0463,269.208,0.930396
218.1000,-68.868,269.242,0.930789
218.0000,-64.2358,270.289,0.942887
217.9000,-65.1357,270.705,0.947681
217.8000,-65.8399,270.884,0.949743
217.7000,-66.8698,271.217,0.953578
217.6000,-67.4877,272.102,0.963744
217.5000,-67.5864,270.893,0.949848
217.4000,-63.2305,271.799,0.960271
217.3000,-62.6009,273.061,0.974738
217.2000,-65.5563,273.147,0.975723
217.1000,-62.8241,273.785,0.983011
217.0000,-64.4541,274.056,0.986101
216.9000,-67.7232,273.124,0.975451
216.8000,-60.3158,273.725,0.982326
216.7000,-66.7224,274.734,0.993821
216.6000,-66.2445,274.939,0.996154
216.5000,-65.2802,275.605,1.00372
216.4000,-67.1049,275.717,1.005
216.3000,-63.6097,274.897,0.995677
216.2000,-64.7066,277.298,1.02289
216.1000,-62.3583,277.427,1.02435
216.0000,-64.5667,276.935,1.01879
215.9000,-61.7636,278.113,1.03208
215.8000,-65.881,277.437,1.02447
215.7000,-66.2797,278.023,1.03107
215.6000,-61.8944,277.894,1.02962
215.5000,-67.5901,279.358,1.04608
215.4000,-64.0962,278.581,1.03735
215.3000,-63.9935,279.284,1.04526
215.2000,-61.8667,278.664,1.03829
215.1000,-66.3319,279.159,1.04386
215.0000,-63.3225,280.306,1.05671
214.9000,-65.8433,280.402,1.05779
214.8000,-66.4217,280.303,1.05668
214.7000,-68.1437,280.261,1.05621
214.6000,-65.1582,281.445,1.06944
214.5000,-68.3898,282.869,1.08529
214.4000,-63.9125,283.219,1.08918
214.3000,-63.0243,281.674,1.07199
214.2000,-65.9343,283.19,1.08885
214.1000,-63.9598,283.112,1.08799
214.0000,-64.121,283.299,1.09006
213.9000,-65.7238,284.948,1.10832
213.8000,-62.8128,284.619,1.10468
213.7000,-65.3008,286.446,1.12482
213.6000,-63.3138,285.47,1.11407
213.5000,-66.0029,285.587,1.11537
213.4000,-65.4956,286.706,1.12767
213.3000,-65.7214,286.344,1.1237
213.2000,-64.9261,287.481,1.13618
213.1000,-67.0659,288.848,1.15114
213.0000,-67.9319,287.388,1.13516
212.9000,-70.2733,287.86,1.14034
212.8000,-66.0415,288.551,1.1479
212.7000,-69.0072,289.551,1.1588
212.6000,-63.5485,289.755,1.16102
212.5000,-67.486,289.809,1.16161
212.4000,-64.3709,290.744,1.17178
212.3000,-67.7026,290.598,1.17019
212.2000,-67.0693,290.963,1.17415
212.1000,-69.8577,291.525,1.18024
212.0000,-68.0288,292.955,1.1957
211.9000,-71.4381,292.352,1.18919
211.8000,-71.6489,293.585,1.20249
211.7000,-70.1054,294.795,1.2155
211.6000,-67.3436,294.962,1.2173
211.5000,-68.4841,294.349,1.21072
211.4000,-68.2576,295.672,1.22491
211.3000,-64.5181,296.431,1.23302
211.2000,-66.4051,297.364,1.24299
211.1000,-63.4138,296.594,1.23477
211.0000,-70.4802,296.549,1.23428
210.9000,-69.0074,299.309,1.26365
210.8000,-66.5141,298.51,1.25517
210.7000,-72.7811,296.952,1.23859
210.6000,-71.7882,300.577,1.27706
210.5000,-67.8594,301.096,1.28254
210.4000,-71.4421,300.715,1.27852
210.3000,-70.1919,301.513,1.28693
210.2000,-67.9502,302.061,1.29271
210.1000,-71.6497,302.74,1.29984
210.0000,-68.8079,303.569,1.30854
209.9000,-69.195,304.052,1.31359
209.8000,-69.4169,304.242,1.31558
209.7000,-71.9143,304.736,1.32074
209.6000,-70.0608,306.857,1.34282
209.5000,-70.8101,307.62,1.35073
209.4000,-71.1249,307.67,1.35125
209.3000,-70.9815,308.856,1.36351
209.2000,-71.4958,309.836,1.37362
209.1000,-63.4635,309.461,1.36976
209.0000,-71.0345,310.417,1.3796
208.9000,-69.3549,311.628,1.39202
208.8000,-72.482,310.882,1.38437
208.7000,-69.5409,312.893,1.40497
208.6000,-69.5823,313.336,1.40949
208.5000,-69.2046,313.491,1.41107
208.4000,-69.5522,314.913,1.42555
208.3000,-72.728,315.245,1.42892
208.2000,-69.1028,316.391,1.44053
208.1000,-72.8915,317.947,1.45624
208.0000,-69.4295,319.294,1.46979
207.9000,-69.0348,319.56,1.47246
207.8000,-70.2477,321.012,1.487
207.7000,-70.4901,321.162,1.48851
207.6000,-70.011,321.005,1.48693
207.5000,-66.9013,323.042,1.50724
207.4000,-69.5983,323.494,1.51174
207.3000,-65.7186,324.297,1.51971
207.2000,-64.8442,325.252,1.52915
207.1000,-67.4009,327.49,1.55123
207.0000,-65.5787,327.563,1.55194
206.9000,-67.1624,328.364,1.55981
206.8000,-61.6136,329.539,1.57132
206.7000,-66.435,330.356,1.5793
206.6000,-59.1393,331.59,1.59132
206.5000,-64.1482,332.235,1.59759
206.4000,-56.4365,333.791,1.61269
206.3000,-54.3829,335.381,1.62804
206.2000,-54.7481,334.563,1.62014
206.1000,-59.5203,337.307,1.64656
206.0000,-59.1949,338.02,1.65339
205.9000,-55.1013,338.238,1.65547
205.8000,-57.2581,340.035,1.67263
205.7000,-53.4194,341.391,1.68553
205.6000,-59.0887,341.684,1.68831
205.5000,-58.3692,343.168,1.70236
205.4000,-59.6359,344.236,1.71245
205.3000,-43.1284,345.838,1.72753
205.2000,-51.9484,347.626,1.74429
205.1000,-46.56,348.496,1.75242
205.0000,-49.1342,350.181,1.76811
204.9000,-43.5961,351.753,1.78269
204.8000,-46.3519,353.251,1.79654
204.7000,-34.833,353.378,1.79771
204.6000,-36.3107,355.894,1.82086
204.5000,-42.6059,357.471,1.8353
204.4000,-37.0733,358.39,1.84368
204.3000,-34.1333,360.386,1.86183
204.2000,-35.4741,361.625,1.87306
204.1000,-36.6604,362.584,1.88173
204.0000,-38.2191,363.787,1.89258
203.9000,-29.337,366.502,1.91694
203.8000,-31.303,367.708,1.92772
203.7000,-38.4474,369.659,1.94509
203.6000,-28.8105,371.514,1.96153
203.5000,-24.3761,372.507,1.97031
203.4000,-37.1067,373.603,1.97997
203.3000,-32.1571,374.577,1.98854
203.2000,-12.4114,376.779,2.00783
203.1000,-22.1889,379.163,2.02862
203.0000,-26.8843,379.779,2.03398
202.9000,-17.868,381.507,2.04895
202.8000,-8.6612,383.583,2.06687
202.7000,-14.716,383.999,2.07045
202.6000,-17.2183,386.018,2.08778
202.5000,-10.2292,388.291,2.10721
202.4000,-9.28126,389.621,2.11853
202.3000,-6.60569,392.201,2.1404
202.2000,-11.177,394.094,2.15637
202.1000,-14.5315,395.949,2.17195
202.0000,-2.12663,398.322,2.1918
201.9000,0.799551,400.189,2.20735
201.8000,2.38787,402.711,2.22825
201.7000,-1.28888,404.55,2.24342
201.6000,-4.77832,406.008,2.2554
201.5000,-3.30866,409.808,2.28648
201.4000,-7.64959,410.234,2.28995
201.3000,2.28519,412.261,2.30642
201.2000,1.58221,414.354,2.32334
201.1000,14.4306,415.878,2.33562
201.0000,14.9357,418.616,2.3576
200.9000,0.760326,419.54,2.36498
200.8000,8.47268,421.141,2.37775
200.7000,15.0445,423.47,2.39625
200.6000,-1.18761,427.264,2.4262
200.5000,11.5492,429.027,2.44004
200.4000,14.4291,431.528,2.45959
200.3000,13.8934,434.399,2.48192
200.2000,1.63308,435.758,2.49245
200.1000,23.2332,437.795,2.50817
200.0000,23.6111,442.199,2.54196
199.9000,15.9657,442.474,2.54407
199.8000,19.0174,446,2.5709
199.7000,15.3182,447.674,2.58358
199.6000,12.1525,450.351,2.60377
199.5000,27.6469,453.042,2.62397
199.4000,31.9798,453.661,2.6286
199.3000,51.1157,456.361,2.64873
199.2000,19.3882,459.136,2.66933
199.1000,25.4542,462.586,2.69478
199.0000,20.7817,463.602,2.70225
198.9000,21.8067,466.331,2.72223
198.8000,27.0461,469.383,2.74447
198.7000,19.4217,472.337,2.76587
198.6000,30.8916,475.375,2.78777
198.5000,29.5981,478.275,2.80855
198.4000,23.8948,481.43,2.83106
198.3000,34.5048,482.97,2.84199
198.2000,32.2036,484.355,2.8518
198.1000,30.9202,487.885,2.8767
198.0000,32.2381,490.579,2.89559
197.9000,36.4434,493.855,2.91846
197.8000,30.1341,496.883,2.93948
197.7000,28.808,499.111,2.95487
197.6000,34.566,500.755,2.9662
197.5000,40.7519,503.922,2.98792
197.4000,23.1874,505.86,3.00116
197.3000,39.4173,510,3.0293
197.2000,33.5363,512.468,3.04598
197.1000,21.6419,515.153,3.06404
197.0000,54.0036,517.396,3.07908
196.9000,33.5672,521.224,3.10461
196.8000,30.558,523.772,3.12152
196.7000,41.2986,526.713,3.14095
196.6000,29.1887,529.626,3.1601
196.5000,37.6911,532.742,3.18049
196.4000,33.5246,534.818,3.19401
196.3000,24.5582,537.982,3.21454
196.2000,38.1654,541.791,3.23912
196.1000,46.3061,544.343,3.25551
196.0000,30.929,548.245,3.28044
195.9000,35.0447,551.377,3.30034
195.8000,26.3626,553.601,3.31442
195.7000,18.1843,556.546,3.33298
195.6000,22.6626,557.699,3.34023
195.5000,27.4807,561.579,3.36451
195.4000,28.6352,564.372,3.38191
195.3000,34.9119,566.658,3.39609
195.2000,23.9992,569.075,3.41104
195.1000,27.0329,570.753,3.42138
195.0000,34.3895,573.272,3.43686
194.9000,22.1022,575.338,3.4495
194.8000,22.6117,578.021,3.46588
194.7000,28.2603,579.654,3.47581
194.6000,30.5263,581.323,3.48594
194.5000,29.9257,584.603,3.50577
194.4000,31.6868,587.118,3.52091
194.3000,36.6535,588.52,3.52933
194.2000,20.0698,592.114,3.55083
194.1000,31.9859,593.083,3.55661
194.0000,31.8226,597.341,3.5819
193.9000,26.4746,599.853,3.59675
193.8000,41.5607,602.653,3.61324
193.7000,29.9578,604.46,3.62385
193.6000,28.1449,607.346,3.64073
193.5000,13.9338,610.257,3.6577
193.4000,24.6637,611.52,3.66504
193.3000,37.7184,614.274,3.681
193.2000,22.0344,614.702,3.68347
193.1000,28.8755,617.107,3.69734
193.0000,31.9577,619.765,3.71263
192.9000,22.8687,621.184,3.72076
192.8000,17.5657,624.392,3.7391
192.7000,31.8454,624.959,3.74233
192.6000,18.7079,628.127,3.76035
192.5000,24.1377,631.218,3.77785
192.4000,21.577,633.77,3.79224
192.3000,20.966,635.575,3.8024
192.2000,27.8664,636.867,3.80965
192.1000,29.2049,640.599,3.83052
192.0000,18.1378,641.742,3.8369
191.9000,23.3892,643.195,3.84498
191.8000,34.9094,644.991,3.85496
191.7000,25.5575,647.987,3.87155
191.6000,9.81242,651.147,3.88897
191.5000,29.7269,651.766,3.89238
191.4000,34.1024,655.719,3.91406
191.3000,1.57799,656.363,3.91758
191.2000,18.2613,659.1,3.93251
191.1000,34.7018,661.32,3.94459
191.0000,14.9092,664.5,3.96182
190.9000,21.4742,667.862,3.97996
190.8000,15.439,670.09,3.99195
190.7000,15.7642,672.308,4.00384
190.6000,19.9177,675.125,4.01889
190.5000,14.7651,677.032,4.02906
190.4000,16.8286,679.21,4.04064
190.3000,21.6294,681.109,4.05071
190.2000,27.3417,684.755,4.06997
190.1000,15.5685,685.797,4.07546
190.0000,18.2892,688.242,4.08831

##### Extended Information
[Comments]
Sample name,SL_IM_PA
Comment
User,Lahoff
Division
Company,Saint Mary's College

[Detailed Information]
Creation date,9/27/2022 5:23 PM

Data array type,Linear data array * 3
Horizontal axis,Wavelength [nm]
Vertical axis(1),CD [mdeg]
Vertical axis(2),HT [V]
Vertical axis(3),Abs
Start,320 nm
End,190 nm
Data interval,0.1 nm
Data points,1301    

[Measurement Information]
Instrument name,J-1500
Model name,J-1500
Serial No.,B051061638

Detector,PM-539
Detector S/N,B051061638
  Lock-in amp.,X mode
  HT volt,Auto

Accessory,PTC-517
Accessory S/N,B026561646
  Temperature,21.80 C
  Control sensor,Holder
  Monitor sensor,Holder

Measurement date,9/27/2022 5:23 PM

CD Overload detect,962
Photometric mode,CD, HT, Abs
Measure range,320 - 190 nm
Data pitch,0.1 nm
CD scale,20 mdeg/0.05 dOD
FL scale,20 mdeg/0.05 dOD
D.I.T.,8 msec
Bandwidth,2.00 nm
Start mode,Immediately
Scanning mode,Continuous
Scanning speed,100 nm/min
Baseline correction,None
Shutter control,Auto
No. of cycle,1/1
N2 Flowmeter,Manual

Solvent,KCl buffer

