TITLE,SL_IM_PB
DATA TYPE,
ORIGIN,JASCO
OWNER,
DATE,22/09/27
TIME,17:09:37
SPECTROMETER/DATA SYSTEM,
LOCALE,1033
RESOLUTION,
DELTAX,-0.1
XUNITS,NANOMETERS
YUNITS,CD [mdeg]
Y2UNITS,HT [V]
Y3UNITS,ABSORBANCE
FIRSTX,  320.0000
LASTX,  190.0000
NPOINTS,    1301
FIRSTY,     0.82276
MAXY,    52.79855
MINY,   -62.07966
XYDATA
320.0000,0.822759,206.789,0.126821
319.9000,1.42583,206.88,0.128126
319.8000,1.76909,207.641,0.139065
319.7000,-1.11572,206.699,0.125516
319.6000,1.36031,208.063,0.145107
319.5000,1.27792,206.84,0.127555
319.4000,2.40001,207.158,0.132118
319.3000,0.892753,207.326,0.134544
319.2000,0.742309,207.606,0.138561
319.1000,1.86113,207.547,0.137716
319.0000,1.42881,206.662,0.124994
318.9000,1.31154,207.33,0.134592
318.8000,1.60399,208.279,0.148205
318.7000,0.00544706,207.962,0.143663
318.6000,1.27767,207.922,0.143094
318.5000,0.177068,208.024,0.144555
318.4000,0.557073,206.869,0.127963
318.3000,-1.76326,207.873,0.14238
318.2000,1.16463,207.027,0.130245
318.1000,-2.18952,207.385,0.13539
318.0000,1.63115,207.925,0.143127
317.9000,1.46221,207.629,0.138886
317.8000,1.8911,207.397,0.135553
317.7000,1.90902,207.38,0.135309
317.6000,2.22573,208.436,0.150442
317.5000,1.66436,207.144,0.131922
317.4000,2.09016,206.875,0.12806
317.3000,2.62861,207.482,0.136773
317.2000,0.556987,206.464,0.122137
317.1000,0.869327,208.397,0.149891
317.0000,2.53545,207.222,0.133046
316.9000,1.35652,207.631,0.138919
316.8000,2.80702,207.324,0.134511
316.7000,1.65376,209.023,0.158826
316.6000,1.80545,207.522,0.137358
316.5000,-0.19185,207.545,0.137683
316.4000,-1.55404,208.923,0.157403
316.3000,1.04409,207.78,0.141048
316.2000,0.263473,206.593,0.123998
316.1000,1.88689,206.815,0.127196
316.0000,-0.0189292,206.8,0.126968
315.9000,2.47163,207.194,0.132639
315.8000,1.24477,206.372,0.120814
315.7000,0.232476,207.341,0.134755
315.6000,1.77794,206.724,0.125875
315.5000,1.66178,207.175,0.132362
315.4000,1.45092,207.468,0.136578
315.3000,0.171285,207.951,0.1435
315.2000,0.173142,206.105,0.116957
315.1000,0.407468,207.382,0.135341
315.0000,1.00499,206.786,0.126772
314.9000,1.50929,208.188,0.146892
314.8000,0.852009,207.269,0.133713
314.7000,-0.0156136,206.724,0.125875
314.6000,1.1166,206.107,0.116989
314.5000,1.54093,206.23,0.118755
314.4000,2.70362,207.42,0.135894
314.3000,1.73632,206.999,0.129837
314.2000,0.914955,207.49,0.136886
314.1000,0.832625,207.581,0.138204
314.0000,1.30248,207.156,0.132102
313.9000,1.34652,206.729,0.125956
313.8000,-0.690382,206.792,0.126854
313.7000,1.23135,205.976,0.115092
313.6000,-0.479808,205.516,0.108442
313.5000,1.25785,206.708,0.125646
313.4000,0.72491,205.778,0.112227
313.3000,0.44198,206.565,0.12359
313.2000,0.540719,206.423,0.121549
313.1000,1.52251,206.846,0.127637
313.0000,2.07292,206.018,0.115697
312.9000,-0.440377,206.98,0.12956
312.8000,-0.30607,205.927,0.114388
312.7000,0.527924,207.806,0.141421
312.6000,0.76373,205.937,0.114535
312.5000,0.0837894,206.334,0.120258
312.4000,0.258343,205.727,0.11149
312.3000,1.78336,206.923,0.128745
312.2000,1.21715,206.913,0.128599
312.1000,1.82502,206.497,0.122611
312.0000,-0.541238,206.345,0.120422
311.9000,3.06434,207.698,0.139878
311.8000,1.05054,206.411,0.121369
311.7000,1.07079,207.035,0.130359
311.6000,-1.12103,207.201,0.132737
311.5000,0.562739,207.088,0.131124
311.4000,-0.551319,207.528,0.137439
311.3000,1.37908,205.134,0.102914
311.2000,-0.0963545,205.68,0.110818
311.1000,1.41875,206.793,0.12687
311.0000,1.80601,207.65,0.139195
310.9000,0.923425,206.959,0.129267
310.8000,0.644792,207.513,0.137228
310.7000,1.35999,206.371,0.120798
310.6000,1.89919,205.365,0.106261
310.5000,1.99056,206.98,0.12956
310.4000,2.15968,207.4,0.135602
310.3000,1.2101,206.991,0.129723
310.2000,1.3402,205.661,0.11054
310.1000,0.352795,206.536,0.123166
310.0000,0.841162,206.582,0.123835
309.9000,0.466948,206.976,0.129511
309.8000,1.67067,206.276,0.119425
309.7000,1.21723,208.228,0.147476
309.6000,0.0636294,207.559,0.137879
309.5000,1.82234,206.591,0.123966
309.4000,0.860623,205.926,0.114371
309.3000,2.11246,208.518,0.151625
309.2000,0.364723,206.113,0.117071
309.1000,0.709347,206.538,0.123198
309.0000,2.01517,206.688,0.125369
308.9000,0.469547,207.509,0.137163
308.8000,0.662195,207.22,0.133014
308.7000,1.48792,207.091,0.131157
308.6000,1.21207,206.82,0.127261
308.5000,1.40222,207.279,0.13386
308.4000,1.48025,207.758,0.140739
308.3000,1.77047,205.851,0.113291
308.2000,1.7903,207.024,0.130196
308.1000,2.10441,206.817,0.127213
308.0000,0.511885,207.135,0.131792
307.9000,2.09465,206.044,0.116073
307.8000,1.36993,206.301,0.119785
307.7000,2.52927,207.104,0.131352
307.6000,1.39548,207.086,0.131092
307.5000,1.35536,206.854,0.127751
307.4000,1.20126,208.909,0.157209
307.3000,1.02014,206.943,0.129039
307.2000,1.01803,206.009,0.115566
307.1000,0.881171,207.22,0.133014
307.0000,1.28712,206.156,0.117692
306.9000,1.70412,206.375,0.120847
306.8000,0.923102,207.164,0.132216
306.7000,0.785289,205.875,0.113635
306.6000,1.56109,206.994,0.129772
306.5000,0.179896,206.539,0.123215
306.4000,1.60294,206.963,0.129315
306.3000,2.33117,206.412,0.121386
306.2000,2.61113,206.529,0.123068
306.1000,1.42001,206.985,0.129641
306.0000,0.305217,207.209,0.132851
305.9000,0.0638525,207.444,0.136236
305.8000,0.572244,207.044,0.130489
305.7000,0.696564,207.365,0.135097
305.6000,2.68786,207.469,0.136594
305.5000,-0.216624,207.088,0.131124
305.4000,0.874136,206.404,0.121272
305.3000,0.452816,206.589,0.123933
305.2000,1.20036,206.381,0.120945
305.1000,1.97417,206.042,0.116041
305.0000,0.891406,206.469,0.122202
304.9000,1.10896,207.015,0.130065
304.8000,0.434457,206.223,0.118657
304.7000,1.59425,206.936,0.128925
304.6000,1.20981,206.209,0.118461
304.5000,0.728458,206.087,0.116695
304.4000,0.916866,206.933,0.128892
304.3000,2.18185,206.88,0.128126
304.2000,1.72099,206.513,0.122839
304.1000,1.51401,206.593,0.123998
304.0000,0.852077,206.223,0.118657
303.9000,0.478962,206.938,0.128957
303.8000,1.22189,206.337,0.120308
303.7000,1.70403,207.147,0.131971
303.6000,2.25771,207.159,0.132134
303.5000,0.497104,205.802,0.112587
303.4000,1.32861,205.337,0.105851
303.3000,2.14248,207.331,0.134609
303.2000,1.42047,205.784,0.112325
303.1000,0.279443,205.941,0.114584
303.0000,1.36577,206.698,0.1255
302.9000,2.87387,207.036,0.130375
302.8000,1.35253,207.586,0.138269
302.7000,-0.193516,206.431,0.121664
302.6000,2.83613,206.21,0.118477
302.5000,0.296717,206.199,0.118314
302.4000,1.53534,206.043,0.116057
302.3000,2.10302,205.657,0.110491
302.2000,1.83684,207.026,0.130228
302.1000,0.742557,205.412,0.106934
302.0000,1.06327,206.386,0.12101
301.9000,-0.0356242,206.335,0.120275
301.8000,1.71979,205.228,0.104276
301.7000,1.76869,207.896,0.142721
301.6000,2.72123,205.827,0.112948
301.5000,0.321413,205.389,0.106606
301.4000,1.31126,205.639,0.110229
301.3000,1.55009,207.257,0.133551
301.2000,0.0540336,206.325,0.120128
301.1000,1.50956,206.378,0.120896
301.0000,1.00478,206.914,0.128615
300.9000,1.4879,205.506,0.108295
300.8000,1.10635,206.717,0.125777
300.7000,0.368807,206.56,0.123525
300.6000,0.670852,206.478,0.122333
300.5000,2.18322,206.615,0.124308
300.4000,0.16041,206.334,0.120258
300.3000,2.21592,206.726,0.125908
300.2000,1.6279,207.281,0.133893
300.1000,1.33184,207.144,0.131922
300.0000,2.16332,205.4,0.10677
299.9000,2.13201,206.66,0.124961
299.8000,0.612541,205.972,0.115043
299.7000,0.789391,206.632,0.124553
299.6000,0.523023,205.847,0.113226
299.5000,0.128378,206.167,0.117856
299.4000,0.749619,206.596,0.124031
299.3000,1.27093,206.7,0.125532
299.2000,1.90266,206.487,0.122464
299.1000,0.427598,205.351,0.106065
299.0000,2.66069,206.088,0.116711
298.9000,2.54472,205.629,0.110081
298.8000,0.862413,206.143,0.117513
298.7000,0.100117,206.044,0.116073
298.6000,1.09272,206.76,0.126397
298.5000,-0.236967,206.168,0.117872
298.4000,0.299421,206.284,0.11954
298.3000,2.20123,205.715,0.111326
298.2000,-0.139772,206.04,0.116024
298.1000,1.20698,206.602,0.124129
298.0000,1.29406,206.125,0.117251
297.9000,1.44413,206.449,0.121925
297.8000,1.56452,206.129,0.1173
297.7000,-1.08142,205.933,0.11447
297.6000,0.747882,206.838,0.127522
297.5000,0.0960221,206.602,0.124129
297.4000,0.205406,206.13,0.117316
297.3000,0.537503,206.268,0.119311
297.2000,1.12204,205.11,0.102569
297.1000,1.66811,206.287,0.119589
297.0000,2.20785,205.222,0.104194
296.9000,0.641624,204.681,0.0963406
296.8000,0.464904,205.91,0.114143
296.7000,1.91903,206.928,0.12881
296.6000,2.15819,206.455,0.122007
296.5000,1.38874,206.682,0.125271
296.4000,-0.841731,206.207,0.118428
296.3000,0.700453,206.057,0.11627
296.2000,-0.140169,207.383,0.135357
296.1000,1.94285,205.62,0.10995
296.0000,-0.812897,205.918,0.114257
295.9000,1.37715,206.471,0.122235
295.8000,0.530652,205.623,0.109999
295.7000,2.0231,204.882,0.099267
295.6000,0.727533,206.634,0.124586
295.5000,0.699035,205.619,0.109934
295.4000,1.54521,206.431,0.121664
295.3000,1.87818,204.701,0.0966365
295.2000,-0.823814,205.109,0.102552
295.1000,1.58879,206.572,0.123688
295.0000,1.87908,205.178,0.103554
294.9000,2.19766,206.482,0.122399
294.8000,1.5674,206.054,0.116221
294.7000,1.11925,206.851,0.127702
294.6000,0.124084,206.809,0.127098
294.5000,2.16538,205.041,0.101567
294.4000,1.22146,205.925,0.114355
294.3000,1.36868,205.636,0.110179
294.2000,0.289115,205.85,0.113275
294.1000,3.54353,206,0.115435
294.0000,1.27284,206.211,0.118494
293.9000,1.6625,205.123,0.10275
293.8000,0.677912,205.373,0.106376
293.7000,0.989868,205.745,0.111752
293.6000,2.30493,205.832,0.113013
293.5000,2.2775,205.495,0.108147
293.4000,2.03595,206.055,0.116237
293.3000,2.45514,204.966,0.100483
293.2000,1.52735,206.117,0.117136
293.1000,0.808894,206.36,0.120634
293.0000,2.72067,206.401,0.121222
292.9000,0.62359,205.885,0.113782
292.8000,1.90548,208.13,0.146064
292.7000,0.917938,205.064,0.101896
292.6000,0.574314,206.304,0.119834
292.5000,0.130179,205.796,0.112489
292.4000,1.36715,206.064,0.116368
292.3000,2.39432,206.219,0.118608
292.2000,-0.143267,203.882,0.0847263
292.1000,0.733542,205.569,0.109213
292.0000,0.158078,205.043,0.1016
291.9000,-0.668815,205.362,0.106212
291.8000,2.08721,206.878,0.128093
291.7000,0.949776,205.393,0.106671
291.6000,1.80056,204.899,0.0995135
291.5000,1.84512,205.792,0.11244
291.4000,1.08505,205.764,0.112031
291.3000,0.287914,205.205,0.103948
291.2000,2.22479,205.563,0.109131
291.1000,0.401366,205.317,0.105572
291.0000,1.0355,206.54,0.123231
290.9000,0.264668,205.603,0.109704
290.8000,0.809621,204.874,0.0991521
290.7000,0.7055,205.969,0.114993
290.6000,0.91142,206.661,0.124978
290.5000,1.23557,205.959,0.114846
290.4000,1.43647,206.768,0.126511
290.3000,1.14892,205.567,0.10918
290.2000,1.95813,206.296,0.119719
290.1000,2.33587,206.861,0.127848
290.0000,1.64165,205.542,0.108819
289.9000,1.79888,205.74,0.111687
289.8000,1.99874,205.611,0.109819
289.7000,1.26002,205.757,0.111932
289.6000,0.676384,206.466,0.12217
289.5000,-0.26593,206.713,0.125728
289.4000,1.57924,206.19,0.118183
289.3000,0.858088,206.483,0.122415
289.2000,0.804687,205.749,0.111818
289.1000,-0.765074,208.003,0.144247
289.0000,0.972987,206.452,0.121957
288.9000,1.51821,205.902,0.114028
288.8000,3.23393,206.422,0.121533
288.7000,0.811823,207.187,0.132541
288.6000,0.432385,207.277,0.133828
288.5000,1.0819,205.747,0.111785
288.4000,0.372527,207.023,0.130179
288.3000,0.292924,207.011,0.130016
288.2000,-0.140538,206.498,0.122627
288.1000,0.86888,206.465,0.122154
288.0000,0.682888,206.754,0.126316
287.9000,0.867235,206.811,0.127131
287.8000,0.388369,206.286,0.119572
287.7000,1.05681,206.466,0.12217
287.6000,-0.0171173,206.625,0.124455
287.5000,1.72885,208.208,0.147183
287.4000,1.35613,207.133,0.131759
287.3000,1.98881,206.583,0.123851
287.2000,1.02277,206.022,0.115762
287.1000,1.55985,206.071,0.116466
287.0000,0.990405,205.589,0.109508
286.9000,0.448278,206.819,0.127245
286.8000,1.19451,206.624,0.124439
286.7000,0.695122,206.592,0.123982
286.6000,-0.537735,206.524,0.123003
286.5000,0.0155465,205.291,0.105195
286.4000,0.692542,205.827,0.112948
286.3000,0.906552,206.336,0.120291
286.2000,-0.514794,206.405,0.121288
286.1000,1.19893,206.73,0.125973
286.0000,1.93926,206.979,0.129544
285.9000,1.7741,207.563,0.137943
285.8000,0.0243401,207.033,0.130326
285.7000,0.472778,207.877,0.142445
285.6000,0.698378,207.263,0.133632
285.5000,-0.297937,207.87,0.142347
285.4000,0.710932,206.533,0.123133
285.3000,0.947712,206.363,0.120684
285.2000,0.0595749,205.187,0.103685
285.1000,2.31923,206.105,0.116957
285.0000,0.730746,206.354,0.120553
284.9000,-0.113903,206.494,0.122562
284.8000,0.694297,207.153,0.132053
284.7000,0.627881,206.788,0.126805
284.6000,0.289579,207.163,0.132199
284.5000,-0.168623,207.003,0.129902
284.4000,1.51963,207.171,0.132313
284.3000,0.00407906,207.72,0.140187
284.2000,0.370157,207.201,0.132737
284.1000,0.995373,205.7,0.111113
284.0000,0.461022,206.783,0.126723
283.9000,0.155154,205.418,0.107032
283.8000,-0.448024,206.243,0.118951
283.7000,1.76865,207.128,0.131695
283.6000,0.396572,206.905,0.128484
283.5000,-0.709851,205.619,0.109934
283.4000,0.929525,206.814,0.12718
283.3000,0.347219,207.41,0.135748
283.2000,0.649,206.413,0.121402
283.1000,1.46202,207.027,0.130245
283.0000,-0.0039638,207.718,0.140171
282.9000,-0.108741,206.693,0.125435
282.8000,0.219714,206.863,0.127881
282.7000,0.455885,206.481,0.122382
282.6000,0.46785,208.305,0.148578
282.5000,1.72595,206.754,0.126316
282.4000,2.26109,206.923,0.128745
282.3000,0.795302,207.716,0.140138
282.2000,0.339775,205.611,0.109819
282.1000,0.0276239,207.948,0.143468
282.0000,0.759206,206.734,0.126022
281.9000,1.64449,206.111,0.117038
281.8000,0.95572,206.814,0.12718
281.7000,0.604874,206.97,0.129414
281.6000,1.18037,206.35,0.120487
281.5000,1.72066,206.53,0.123084
281.4000,1.10923,206.002,0.115468
281.3000,-0.953419,206.387,0.121027
281.2000,2.96212,205.686,0.1109
281.1000,0.268573,207.25,0.133453
281.0000,-1.24598,206.976,0.129511
280.9000,-0.815099,207.264,0.133649
280.8000,0.745199,206.011,0.115599
280.7000,-0.142016,207.424,0.135943
280.6000,-0.724558,206.539,0.123215
280.5000,1.49801,207.086,0.131092
280.4000,1.50052,206.015,0.115664
280.3000,1.27247,207.19,0.13259
280.2000,0.177985,205.866,0.113504
280.1000,1.66047,205.814,0.112751
280.0000,0.420733,205.589,0.109508
279.9000,1.39013,207.374,0.135227
279.8000,1.00233,206.502,0.122676
279.7000,-0.396257,206.41,0.121353
279.6000,0.195186,206.349,0.120471
279.5000,1.07703,206.819,0.127245
279.4000,0.355746,207.262,0.133616
279.3000,0.924104,206.806,0.127066
279.2000,-0.321751,207.445,0.136252
279.1000,1.17795,207.882,0.14251
279.0000,0.342391,206.43,0.121647
278.9000,0.728525,206.886,0.128207
278.8000,1.52478,207.402,0.135634
278.7000,1.25972,207.59,0.138334
278.6000,-0.491997,208.45,0.150653
278.5000,-0.843559,206.764,0.126462
278.4000,1.6318,207.095,0.131222
278.3000,0.61825,206.688,0.125369
278.2000,0.00668706,207.205,0.132802
278.1000,1.32799,206.943,0.129039
278.0000,2.47888,208.211,0.147232
277.9000,1.50694,206.114,0.117087
277.8000,1.23247,207.386,0.135406
277.7000,1.384,207.581,0.138204
277.6000,-0.0729969,206.897,0.12837
277.5000,0.996741,206.243,0.118951
277.4000,1.49827,206.631,0.124537
277.3000,0.465841,206.933,0.128892
277.2000,0.978568,206.778,0.126658
277.1000,1.29919,206.673,0.125141
277.0000,1.1017,206.99,0.129707
276.9000,-0.572587,207.057,0.130668
276.8000,0.636544,206.278,0.119458
276.7000,1.13842,208.909,0.157209
276.6000,2.74412,207.427,0.135992
276.5000,0.986924,206.483,0.122415
276.4000,2.58449,207.82,0.141633
276.3000,1.70599,206.925,0.128778
276.2000,-0.770706,206.556,0.12346
276.1000,0.788522,206.582,0.123835
276.0000,-0.153016,206.614,0.124292
275.9000,0.536737,207.168,0.132265
275.8000,1.53017,207.222,0.133046
275.7000,-0.391743,207.624,0.138821
275.6000,-1.3988,207.386,0.135406
275.5000,-0.0372312,207.289,0.134007
275.4000,0.798988,207.074,0.130913
275.3000,-1.31946,206.885,0.128191
275.2000,-0.608239,207.236,0.133242
275.1000,-0.971266,207.139,0.131857
275.0000,-0.283617,207.811,0.141503
274.9000,1.66261,206.721,0.125842
274.8000,-0.954597,206.779,0.126674
274.7000,-0.0766019,207.071,0.13088
274.6000,0.554186,206.712,0.125712
274.5000,2.0209,206.729,0.125956
274.4000,1.05763,205.858,0.113389
274.3000,-0.548352,206.675,0.125174
274.2000,1.5329,206.837,0.127506
274.1000,0.715286,206.642,0.1247
274.0000,-0.62856,206.475,0.1223
273.9000,-0.545416,206.705,0.125614
273.8000,1.07183,206.599,0.12408
273.7000,1.83772,207.587,0.138285
273.6000,-0.808176,206.739,0.126103
273.5000,1.33288,206.974,0.129478
273.4000,0.676853,206.846,0.127637
273.3000,0.701255,206.813,0.127164
273.2000,0.621091,207.335,0.134674
273.1000,0.239263,207.636,0.138984
273.0000,2.00697,208.37,0.149502
272.9000,0.831401,207.109,0.131417
272.8000,1.49315,206.838,0.127522
272.7000,1.31031,207.343,0.134788
272.6000,0.39403,207.841,0.141925
272.5000,0.751717,207.544,0.137667
272.4000,1.3828,207.161,0.132167
272.3000,0.483507,207.449,0.136301
272.2000,0.949325,207.212,0.132899
272.1000,0.383662,207.694,0.139813
272.0000,-0.589088,207.155,0.132085
271.9000,0.437147,207.427,0.135992
271.8000,0.59435,207.281,0.133893
271.7000,2.29187,207.081,0.13101
271.6000,-0.0582409,208.609,0.15292
271.5000,0.316198,207.671,0.139488
271.4000,2.00422,207.839,0.141893
271.3000,-0.441705,207.09,0.131141
271.2000,1.09315,207.556,0.137846
271.1000,0.164947,206.916,0.128647
271.0000,0.325101,207.568,0.138009
270.9000,0.100689,207.748,0.140593
270.8000,2.34223,206.397,0.121174
270.7000,1.16473,207.207,0.132835
270.6000,0.544668,208.127,0.146032
270.5000,0.195061,206.89,0.128272
270.4000,0.0131568,207.257,0.133551
270.3000,-1.63754,206.568,0.123639
270.2000,-0.192428,207.312,0.134332
270.1000,0.465254,207.654,0.139244
270.0000,0.0155067,208.069,0.145188
269.9000,-0.364895,207.372,0.135195
269.8000,-1.35643,207.098,0.131255
269.7000,-0.518878,207.67,0.139472
269.6000,-2.00632,207.44,0.136171
269.5000,0.577824,207.23,0.13316
269.4000,1.94317,207.58,0.138187
269.3000,-0.825668,207.002,0.129886
269.2000,1.07626,207.9,0.14277
269.1000,1.15747,208.164,0.146551
269.0000,0.418736,207.771,0.140918
268.9000,-0.0564777,207.887,0.142591
268.8000,2.134,208.155,0.146421
268.7000,0.509857,207.585,0.138252
268.6000,0.115475,207.445,0.136252
268.5000,0.367044,208.004,0.144263
268.4000,2.12951,207.52,0.137326
268.3000,0.385025,207.952,0.143516
268.2000,-1.06041,208.693,0.154118
268.1000,0.368318,208.189,0.146908
268.0000,1.22995,207.181,0.13246
267.9000,0.219445,207.705,0.139975
267.8000,-0.0506804,207.572,0.138074
267.7000,1.43812,207.779,0.141031
267.6000,0.559112,207.904,0.142835
267.5000,0.168865,207.853,0.142104
267.4000,-1.9288,208.227,0.147459
267.3000,-1.06384,208.665,0.153714
267.2000,-1.25284,208.142,0.146243
267.1000,0.634741,207.899,0.142753
267.0000,1.74226,209.249,0.162058
266.9000,-0.422747,206.679,0.125239
266.8000,-0.664446,208.253,0.147832
266.7000,0.638949,208.669,0.153779
266.6000,0.126869,207.449,0.136301
266.5000,3.57181,208.785,0.155429
266.4000,0.144354,209.036,0.15902
266.3000,-0.607262,208.254,0.147848
266.2000,0.730265,208.482,0.151106
266.1000,1.24966,208.207,0.147167
266.0000,-1.01273,208.896,0.157015
265.9000,-0.382918,208.427,0.150312
265.8000,1.6128,208.367,0.149453
265.7000,1.83789,208.322,0.148821
265.6000,0.186907,208.713,0.15441
265.5000,-2.14285,209.035,0.159004
265.4000,-0.336484,208.214,0.147265
265.3000,-0.639628,208.324,0.148838
265.2000,0.482472,208.144,0.146275
265.1000,-0.540599,208.334,0.148983
265.0000,-0.657685,208.723,0.154555
264.9000,0.753783,208.785,0.155429
264.8000,2.49401,208.875,0.156724
264.7000,0.155155,209.058,0.159327
264.6000,-0.551467,208.277,0.148173
264.5000,-0.0964527,209.034,0.158987
264.4000,-0.330524,208.061,0.145075
264.3000,1.29849,208.194,0.146989
264.2000,0.877824,209.266,0.1623
264.1000,0.638141,208.577,0.152467
264.0000,-0.0299336,208.396,0.149875
263.9000,0.833883,209.441,0.164786
263.8000,-0.71367,209.094,0.159844
263.7000,0.654305,207.802,0.141373
263.6000,-0.0708186,209.47,0.165206
263.5000,0.726073,209.416,0.164431
263.4000,-0.215101,208.623,0.153114
263.3000,-0.581053,209.123,0.160264
263.2000,-0.00256708,208.762,0.155106
263.1000,0.696997,210.117,0.174409
263.0000,0.642925,209.254,0.162122
262.9000,-0.880183,208.924,0.157419
262.8000,-0.706871,209.68,0.16819
262.7000,0.221668,209.953,0.172074
262.6000,1.38174,209.894,0.171237
262.5000,1.49536,209.499,0.165609
262.4000,-0.501626,207.87,0.142347
262.3000,0.253536,210.465,0.179348
262.2000,0.374643,210.373,0.178045
262.1000,-0.761404,209.086,0.159731
262.0000,-0.40709,209.898,0.171301
261.9000,0.767694,210.323,0.177338
261.8000,1.29564,209.962,0.172203
261.7000,-0.411971,209.394,0.164125
261.6000,0.987168,209.725,0.168835
261.5000,-1.23033,209.74,0.169045
261.4000,0.948803,208.981,0.158228
261.3000,0.877492,209.514,0.165835
261.2000,1.00941,209.007,0.158599
261.1000,0.974462,209.024,0.158842
261.0000,-1.29671,208.47,0.150928
260.9000,1.98216,208.492,0.151252
260.8000,0.83092,208.78,0.155365
260.7000,0.562019,209.825,0.170254
260.6000,-0.295525,210.042,0.173346
260.5000,0.599926,209.918,0.171575
260.4000,-0.205475,209.879,0.171027
260.3000,1.02721,209.146,0.160588
260.2000,1.52792,209.879,0.171027
260.1000,-0.554663,209.976,0.172396
260.0000,-0.230099,209.429,0.164625
259.9000,0.620397,209.495,0.165561
259.8000,0.0708434,209.554,0.1664
259.7000,2.45223,209.364,0.163689
259.6000,0.722981,209.679,0.168174
259.5000,1.61591,209.75,0.16919
259.4000,1.34553,209.648,0.167739
259.3000,1.05469,210.23,0.176018
259.2000,1.04296,210.28,0.176726
259.1000,-0.635768,210.206,0.175664
259.0000,1.32372,210.686,0.182481
258.9000,0.458577,209.746,0.169125
258.8000,0.330074,210.38,0.178142
258.7000,0.406785,209.854,0.170673
258.6000,0.706723,209.832,0.17035
258.5000,-1.73446,209.854,0.170673
258.4000,0.203724,210.339,0.177562
258.3000,1.29095,212.498,0.208072
258.2000,0.512801,210.311,0.17716
258.1000,0.956676,209.542,0.166223
258.0000,1.22883,209.709,0.168609
257.9000,0.468212,210.633,0.181726
257.8000,0.418407,210.983,0.186686
257.7000,-0.615027,209.302,0.162817
257.6000,-0.395675,210.096,0.174103
257.5000,-0.401204,210.726,0.183043
257.4000,0.662444,211.509,0.194122
257.3000,0.0362682,212.634,0.209985
257.2000,-1.2259,211.393,0.192489
257.1000,1.57081,211.047,0.1876
257.0000,1.02342,210.343,0.177611
256.9000,2.20432,211.046,0.187584
256.8000,0.606572,210.152,0.174908
256.7000,0.948965,210.492,0.179733
256.6000,0.283594,210.734,0.183155
256.5000,-0.0301796,209.961,0.172187
256.4000,0.684529,210.998,0.186895
256.3000,-0.0440744,212.542,0.208694
256.2000,0.712368,210.823,0.184424
256.1000,-0.179317,212.296,0.205232
256.0000,1.65813,211.421,0.192889
255.9000,-0.0175451,211.115,0.188563
255.8000,2.38624,210.975,0.186574
255.7000,1.14612,210.567,0.180794
255.6000,-0.447925,211.556,0.194795
255.5000,-0.751494,210.425,0.178785
255.4000,-0.476069,211.558,0.194827
255.3000,-1.06209,211.045,0.187569
255.2000,0.0189282,211.207,0.189861
255.1000,1.19857,211.714,0.197019
255.0000,-0.341879,211.146,0.188996
254.9000,1.82487,211.858,0.19905
254.8000,-0.524228,211.268,0.190727
254.7000,-0.751514,211.759,0.197659
254.6000,-0.019149,211.472,0.19361
254.5000,-1.86982,211.16,0.189188
254.4000,0.389071,211.929,0.200057
254.3000,-1.4865,211.313,0.191352
254.2000,0.396038,211.173,0.189381
254.1000,0.844174,211.421,0.192889
254.0000,1.09468,212.151,0.203189
253.9000,1.74192,211.088,0.188178
253.8000,0.411157,212.145,0.203109
253.7000,-0.0127398,211.68,0.196539
253.6000,-0.394957,212.227,0.204259
253.5000,-0.752015,211.069,0.187905
253.4000,-0.422779,211.818,0.19849
253.3000,0.293656,211.24,0.190326
253.2000,1.11863,212.471,0.20769
253.1000,0.14876,211.606,0.195499
253.0000,-0.761905,211.31,0.19132
252.9000,-0.309676,211.348,0.191848
252.8000,-0.974631,212.092,0.202358
252.7000,1.29594,212.271,0.204881
252.6000,-0.268873,210.643,0.18187
252.5000,1.57417,210.684,0.182448
252.4000,-0.647654,212.014,0.201256
252.3000,0.0560308,212.621,0.20981
252.2000,-0.0947041,211.758,0.197643
252.1000,0.696549,212.86,0.213172
252.0000,-0.858886,211.672,0.196427
251.9000,-0.376423,212.426,0.207067
251.8000,-0.539687,212.549,0.20879
251.7000,0.533478,212.634,0.209985
251.6000,0.530729,212.724,0.21126
251.5000,0.684385,211.74,0.197387
251.4000,0.746954,213.694,0.224875
251.3000,0.0723421,211.914,0.199849
251.2000,1.43729,212.441,0.207275
251.1000,-1.21201,212.613,0.209699
251.0000,-0.47938,212.049,0.201751
250.9000,-0.125974,211.771,0.197835
250.8000,-1.56083,212.898,0.213698
250.7000,-1.37102,212.728,0.211308
250.6000,-0.150605,213.602,0.223589
250.5000,-1.36619,214.346,0.233992
250.4000,1.53155,211.961,0.200505
250.3000,-0.33478,212.755,0.211691
250.2000,0.0165568,213.578,0.223239
250.1000,1.87115,213.643,0.22416
250.0000,-1.51711,213.19,0.217804
249.9000,0.070825,213.231,0.218376
249.8000,-0.278271,212.439,0.207243
249.7000,-0.49724,213.165,0.217454
249.6000,0.585249,213.276,0.219012
249.5000,1.88907,213.353,0.220093
249.4000,-1.05411,213.248,0.218615
249.3000,2.14127,212.265,0.204801
249.2000,0.367298,213.878,0.227446
249.1000,1.59034,213.336,0.219855
249.0000,0.396827,213.405,0.220825
248.9000,-0.775014,212.891,0.213602
248.8000,-0.0982474,213.332,0.219791
248.7000,-0.856383,213.327,0.219728
248.6000,-0.124247,213.505,0.222223
248.5000,0.688196,213.418,0.220999
248.4000,0.591071,213.164,0.217438
248.3000,-1.88933,213.695,0.224891
248.2000,-0.796726,213.871,0.227351
248.1000,-2.14548,213.856,0.227144
248.0000,-0.993458,213.571,0.223144
247.9000,1.7438,213.919,0.228017
247.8000,-0.5444,213.924,0.228096
247.7000,0.224387,213.196,0.217883
247.6000,2.22177,213.434,0.221222
247.5000,0.923521,213.77,0.225938
247.4000,0.70736,213.712,0.225129
247.3000,-0.817472,213.472,0.221762
247.2000,-1.55787,213.508,0.22227
247.1000,-1.95449,213.87,0.227335
247.0000,-0.302081,214.409,0.234878
246.9000,-1.3849,214.875,0.241379
246.8000,-0.16932,213.579,0.223255
246.7000,-2.36272,214.141,0.231124
246.6000,-0.254969,213.758,0.225764
246.5000,-1.0446,214.349,0.234039
246.4000,-0.200052,213.171,0.217533
246.3000,-0.721366,214.175,0.231599
246.2000,-0.569879,214.234,0.232423
246.1000,-1.50296,214.474,0.23578
246.0000,-0.806342,215.06,0.243954
245.9000,-1.28094,214.95,0.242422
245.8000,-0.569017,215.449,0.249382
245.7000,-1.6694,214.903,0.241774
245.6000,-1.22939,214.287,0.233168
245.5000,-0.222669,216.209,0.259932
245.4000,-1.63497,214.612,0.237711
245.3000,-0.555403,215.833,0.254724
245.2000,-0.840845,214.184,0.231726
245.1000,-1.57569,215.209,0.246038
245.0000,-3.02655,215.483,0.249855
244.9000,-1.87391,214.943,0.242327
244.8000,-1.70283,215.481,0.249824
244.7000,-2.22924,215.82,0.254535
244.6000,-1.45223,215.39,0.248562
244.5000,-2.00456,215.17,0.245485
244.4000,0.223348,215.773,0.253889
244.3000,-0.83971,214.992,0.243006
244.2000,-2.85221,215.551,0.250801
244.1000,-0.91863,215.402,0.24872
244.0000,-1.46266,215.482,0.249839
243.9000,-2.74649,215.31,0.247442
243.8000,-2.10415,215.355,0.248073
243.7000,-0.989341,215.747,0.253527
243.6000,-2.91755,215.358,0.248105
243.5000,-4.32276,216.151,0.25913
243.4000,-1.99574,216.768,0.26769
243.3000,-3.76771,215.691,0.252739
243.2000,-2.99679,216.156,0.259208
243.1000,-2.04327,216.113,0.258611
243.0000,-3.13763,216.076,0.258092
242.9000,-3.31332,216.44,0.263138
242.8000,-2.78363,216.246,0.260451
242.7000,-4.41757,216.828,0.268522
242.6000,-3.31542,216.272,0.260812
242.5000,-2.5228,216.434,0.263059
242.4000,-3.49778,217.104,0.272331
242.3000,-5.13954,216.456,0.263358
242.2000,-4.33941,216.606,0.265446
242.1000,-3.84819,216.824,0.268459
242.0000,-2.7656,216.335,0.261692
241.9000,-6.69351,216.491,0.263845
241.8000,-4.0164,216.893,0.269416
241.7000,-3.55434,216.709,0.266875
241.6000,-3.58671,216.691,0.266624
241.5000,-3.1091,218.29,0.288701
241.4000,-5.20931,217.001,0.270905
241.3000,-5.74215,217.319,0.275307
241.2000,-4.15689,217.583,0.278954
241.1000,-4.26732,217.978,0.284408
241.0000,-5.069,218.502,0.291616
240.9000,-6.48299,218.368,0.289777
240.8000,-4.85847,219.213,0.301392
240.7000,-7.376,218.251,0.28817
240.6000,-5.58757,217.386,0.276231
240.5000,-5.00715,218.858,0.296507
240.4000,-4.99573,218.74,0.294888
240.3000,-6.62301,218.46,0.29104
240.2000,-6.19801,218.409,0.290338
240.1000,-5.19832,219.246,0.301842
240.0000,-6.19805,219.573,0.306316
239.9000,-5.64701,219.511,0.305477
239.8000,-8.04457,219.141,0.300397
239.7000,-5.41601,219.06,0.299292
239.6000,-9.07148,219.593,0.306595
239.5000,-6.45206,219.886,0.310614
239.4000,-6.96062,219.798,0.309404
239.3000,-7.39103,220.685,0.321529
239.2000,-9.00838,221.027,0.326195
239.1000,-7.65464,219.769,0.309001
239.0000,-9.04316,220.186,0.314705
238.9000,-8.31181,220.145,0.314147
238.8000,-10.3484,220.054,0.312908
238.7000,-9.07205,223.238,0.356194
238.6000,-9.63614,220.301,0.316284
238.5000,-8.97886,221.834,0.337171
238.4000,-11.1816,221.993,0.339325
238.3000,-9.14506,221.153,0.327908
238.2000,-10.9478,221.528,0.333012
238.1000,-10.9705,222.248,0.342785
238.0000,-9.54727,221.519,0.332889
237.9000,-9.40745,223.273,0.356668
237.8000,-9.20237,222.079,0.340495
237.7000,-10.7518,222.647,0.348192
237.6000,-9.03745,222.504,0.346257
237.5000,-13.7237,222.783,0.350033
237.4000,-13.2378,221.998,0.339402
237.3000,-12.2317,222.73,0.349327
237.2000,-11.7287,223.214,0.355872
237.1000,-13.2939,223.588,0.360923
237.0000,-12.961,223.289,0.356883
236.9000,-12.8605,223.95,0.365798
236.8000,-15.2597,223.901,0.365141
236.7000,-13.0416,223.291,0.356914
236.6000,-14.3071,223.766,0.363323
236.5000,-14.2822,224.673,0.375529
236.4000,-15.7701,224.44,0.372405
236.3000,-15.1075,225.59,0.387847
236.2000,-11.8047,225.13,0.381678
236.1000,-15.7905,224.915,0.378788
236.0000,-16.3046,224.756,0.376657
235.9000,-16.9202,224.489,0.373061
235.8000,-15.5748,224.818,0.377479
235.7000,-16.5569,225.64,0.388515
235.6000,-17.4145,225.692,0.389213
235.5000,-15.8076,225.951,0.392672
235.4000,-16.9583,225.093,0.381177
235.3000,-17.4801,226.112,0.394824
235.2000,-18.7899,226.361,0.398156
235.1000,-18.0768,226.356,0.398096
235.0000,-18.9812,227.205,0.409417
234.9000,-20.1854,227.144,0.408603
234.8000,-19.6134,227.555,0.414078
234.7000,-20.3116,227.931,0.419079
234.6000,-17.1422,227.866,0.418206
234.5000,-18.9993,226.575,0.401016
234.4000,-20.6733,228.232,0.423066
234.3000,-21.0118,227.5,0.413339
234.2000,-20.5881,228.128,0.421697
234.1000,-21.3179,228.058,0.420765
234.0000,-23.3001,228.042,0.420554
233.9000,-20.329,228.696,0.429226
233.8000,-22.0579,229.213,0.436065
233.7000,-25.0632,229.28,0.436949
233.6000,-21.148,229.554,0.440572
233.5000,-23.6062,230.068,0.44736
233.4000,-22.4152,229.795,0.443758
233.3000,-24.042,230.553,0.453747
233.2000,-24.1956,230.736,0.456147
233.1000,-25.9316,231.225,0.462579
233.0000,-24.7743,231.555,0.466905
232.9000,-25.328,230.825,0.457324
232.8000,-25.3646,231.065,0.460481
232.7000,-26.6734,231.455,0.465598
232.6000,-27.0175,231.146,0.461538
232.5000,-23.8188,231.597,0.467455
232.4000,-26.0067,232.249,0.476002
232.3000,-29.7942,231.972,0.472369
232.2000,-27.6425,232.434,0.478417
232.1000,-30.0564,232.802,0.483228
232.0000,-29.9268,232.586,0.480401
231.9000,-30.8205,233.109,0.487235
231.8000,-28.9731,233.687,0.494763
231.7000,-29.094,234.265,0.502276
231.6000,-30.1475,233.764,0.495765
231.5000,-30.6886,232.689,0.481748
231.4000,-32.6516,234.026,0.499169
231.3000,-29.666,234.033,0.499258
231.2000,-33.4874,234.841,0.509744
231.1000,-32.1702,234.785,0.509024
231.0000,-34.7973,234.564,0.506158
230.9000,-33.15,234.492,0.505218
230.8000,-30.4209,235.383,0.516772
230.7000,-35.0621,234.687,0.507746
230.6000,-34.4379,235.291,0.51557
230.5000,-33.7737,235.164,0.513927
230.4000,-37.6236,236.132,0.526448
230.3000,-33.772,235.953,0.524137
230.2000,-34.4734,236.102,0.526053
230.1000,-33.5014,236.32,0.528874
230.0000,-32.3165,237.004,0.537673
229.9000,-34.7229,236.864,0.53588
229.8000,-36.179,236.134,0.526462
229.7000,-36.0514,236.745,0.534349
229.6000,-37.4699,236.767,0.534626
229.5000,-36.4674,237.435,0.543222
229.4000,-36.1371,237.635,0.545783
229.3000,-37.881,238.003,0.550506
229.2000,-39.368,238.167,0.552612
229.1000,-40.5584,238.06,0.551233
229.0000,-38.3721,237.799,0.547891
228.9000,-41.0112,237.407,0.542859
228.8000,-41.7506,238.676,0.559124
228.7000,-40.0135,238.599,0.558139
228.6000,-39.9535,239.226,0.566145
228.5000,-40.095,239.572,0.570569
228.4000,-42.1026,240.628,0.584008
228.3000,-42.655,239.903,0.574785
228.2000,-43.2723,240.884,0.587259
228.1000,-42.1813,241.419,0.594041
228.0000,-44.1326,240.73,0.585303
227.9000,-42.1198,241.854,0.599549
227.8000,-44.3725,241.258,0.592002
227.7000,-44.8007,240.756,0.585634
227.6000,-45.5054,242.137,0.603116
227.5000,-42.0293,241.921,0.600395
227.4000,-44.2421,242.36,0.605936
227.3000,-44.9304,242.496,0.607653
227.2000,-48.3495,243.025,0.614326
227.1000,-45.3719,242.832,0.611898
227.0000,-44.0517,242.759,0.610969
226.9000,-45.6395,243.146,0.615853
226.8000,-43.5019,243.098,0.615254
226.7000,-48.6367,243.514,0.620488
226.6000,-45.3341,244.309,0.630465
226.5000,-47.9521,243.958,0.626071
226.4000,-48.4012,244.91,0.638005
226.3000,-48.5228,244.498,0.632838
226.2000,-46.9188,244.536,0.633321
226.1000,-46.1011,245.395,0.644071
226.0000,-48.8966,245.435,0.644567
225.9000,-47.2661,245.577,0.646336
225.8000,-46.9357,245.2,0.641635
225.7000,-50.0658,245.983,0.651414
225.6000,-50.4009,246.44,0.657106
225.5000,-50.5885,246.418,0.656838
225.4000,-51.18,246.801,0.661605
225.3000,-48.8637,247.168,0.666169
225.2000,-49.9193,247.364,0.668603
225.1000,-48.8511,248.055,0.677161
225.0000,-49.0958,248.417,0.68165
224.9000,-53.9037,248.269,0.679813
224.8000,-52.6016,248.143,0.678256
224.7000,-53.6157,248.041,0.676993
224.6000,-50.0733,248.459,0.682169
224.5000,-51.6837,248.892,0.687519
224.4000,-48.1773,248.535,0.683108
224.3000,-51.3064,249.406,0.693869
224.2000,-52.5812,249.056,0.689548
224.1000,-51.0452,250.347,0.705448
224.0000,-53.1892,250.568,0.708163
223.9000,-51.4637,250.278,0.704598
223.8000,-55.3291,250.107,0.702494
223.7000,-51.2578,250.969,0.713088
223.6000,-52.7025,250.638,0.709026
223.5000,-50.5891,250.874,0.71192
223.4000,-54.536,251.979,0.725467
223.3000,-54.1136,251.64,0.721308
223.2000,-50.3212,251.289,0.71702
223.1000,-54.708,252.804,0.735539
223.0000,-50.4752,251.943,0.725023
222.9000,-53.134,252.984,0.737736
222.8000,-54.9515,253.326,0.74189
222.7000,-53.3312,252.995,0.73786
222.6000,-52.0277,252.911,0.736838
222.5000,-52.7108,253.753,0.747086
222.4000,-53.5768,254.371,0.7546
222.3000,-52.0831,254.456,0.755631
222.2000,-55.7544,254.379,0.754696
222.1000,-56.1836,254.717,0.75879
222.0000,-54.5458,254.933,0.761412
221.9000,-51.4126,255.846,0.772442
221.8000,-52.3669,255.578,0.769211
221.7000,-52.8403,256.131,0.775887
221.6000,-50.993,256.089,0.775382
221.5000,-54.559,256.357,0.778607
221.4000,-54.2059,256.81,0.784066
221.3000,-56.1267,257.656,0.79424
221.2000,-56.5594,257.34,0.790443
221.1000,-53.3003,256.969,0.785988
221.0000,-54.8955,257.769,0.7956
220.9000,-52.4083,256.699,0.782729
220.8000,-51.8228,258.26,0.801482
220.7000,-54.2182,257.938,0.797625
220.6000,-53.2729,258.419,0.803383
220.5000,-56.0366,258.743,0.807261
220.4000,-51.8762,259.457,0.81579
220.3000,-51.4731,259.246,0.813274
220.2000,-54.0118,258.995,0.810282
220.1000,-53.5745,259.146,0.812083
220.0000,-53.1741,260.753,0.831229
219.9000,-52.3426,260.448,0.827604
219.8000,-54.0894,261.242,0.837042
219.7000,-56.9982,261.583,0.841087
219.6000,-51.5395,261.642,0.841785
219.5000,-56.1876,261.374,0.838602
219.4000,-52.1516,261.514,0.840268
219.3000,-55.2273,261.64,0.841759
219.2000,-53.915,262.499,0.851924
219.1000,-54.8612,262.456,0.851415
219.0000,-55.9804,262.078,0.846952
218.9000,-56.1416,261.889,0.844712
218.8000,-53.5054,262.874,0.856355
218.7000,-54.5304,263.7,0.866094
218.6000,-56.6966,263.273,0.861061
218.5000,-55.5112,263.673,0.865774
218.4000,-54.0987,263.862,0.868001
218.3000,-52.9221,264.37,0.873971
218.2000,-53.0084,264.212,0.87212
218.1000,-54.9725,264.826,0.879333
218.0000,-56.1188,265.726,0.889874
217.9000,-49.6786,265.018,0.881579
217.8000,-54.5126,265.687,0.889423
217.7000,-50.9004,265.22,0.883957
217.6000,-51.9703,266.034,0.893479
217.5000,-56.904,266.842,0.902911
217.4000,-56.258,266.812,0.902567
217.3000,-55.5998,267.634,0.912134
217.2000,-54.5921,267.037,0.905182
217.1000,-53.9505,267.322,0.908508
217.0000,-54.4278,268.485,0.922019
216.9000,-52.6401,269.439,0.93307
216.8000,-56.8037,268.714,0.924673
216.7000,-53.4134,268.86,0.926367
216.6000,-54.9299,269.739,0.936542
216.5000,-50.087,269.338,0.931904
216.4000,-52.2608,269.905,0.938453
216.3000,-47.0738,269.268,0.931091
216.2000,-51.1789,270.342,0.943501
216.1000,-54.7258,270.283,0.942822
216.0000,-55.2323,270.996,0.951035
215.9000,-51.6743,271.013,0.951231
215.8000,-55.8935,272.545,0.968823
215.7000,-53.7003,271.968,0.96221
215.6000,-49.8345,272.647,0.969991
215.5000,-53.8661,272.737,0.971029
215.4000,-53.9316,272.93,0.973234
215.3000,-51.9689,273.575,0.980605
215.2000,-50.7939,273.555,0.980385
215.1000,-53.2001,273.105,0.975244
215.0000,-53.7675,273.954,0.984938
214.9000,-52.8583,274.266,0.988491
214.8000,-58.039,275.124,0.998254
214.7000,-57.7141,275.269,0.999903
214.6000,-56.7945,274.721,0.993679
214.5000,-55.1513,275.113,0.998138
214.4000,-54.67,275.731,1.00515
214.3000,-52.8743,276.066,1.00896
214.2000,-53.6213,276.599,1.01499
214.1000,-48.8649,277.413,1.0242
214.0000,-52.3525,277.918,1.02988
213.9000,-48.1122,277.681,1.02721
213.8000,-54.8851,277.412,1.02418
213.7000,-50.5702,277.719,1.02765
213.6000,-54.8239,277.986,1.03065
213.5000,-54.9522,278.839,1.04025
213.4000,-59.8632,278.992,1.04197
213.3000,-55.2241,279.603,1.04883
213.2000,-54.0858,280.094,1.05434
213.1000,-50.2577,281.172,1.06639
213.0000,-48.5478,280.376,1.0575
212.9000,-56.1539,281.13,1.06592
212.8000,-50.4283,280.844,1.06273
212.7000,-58.2401,281.052,1.06505
212.6000,-56.4855,281.827,1.0737
212.5000,-55.2313,282.526,1.08148
212.4000,-54.2226,282.567,1.08193
212.3000,-57.7683,283.229,1.08929
212.2000,-53.864,282.525,1.08147
212.1000,-53.3988,283.422,1.09143
212.0000,-55.9881,283.61,1.09352
211.9000,-57.0029,285.772,1.1174
211.8000,-53.0222,284.708,1.10567
211.7000,-57.8122,285.715,1.11678
211.6000,-53.5229,286.128,1.12132
211.5000,-53.9381,286.534,1.12578
211.4000,-54.4756,287.851,1.14024
211.3000,-58.6491,287.29,1.13409
211.2000,-59.3394,287.363,1.13489
211.1000,-55.2147,287.739,1.13901
211.0000,-57.7714,288.714,1.14967
210.9000,-53.2411,289.75,1.16097
210.8000,-58.3822,289.756,1.16103
210.7000,-57.2128,290.06,1.16434
210.6000,-56.6591,290.7,1.1713
210.5000,-55.8403,291.428,1.1792
210.4000,-57.2292,292.716,1.19312
210.3000,-55.6008,292.946,1.1956
210.2000,-57.3791,293.347,1.19993
210.1000,-56.0969,293.621,1.20288
210.0000,-54.8036,293.569,1.20232
209.9000,-58.2843,293.642,1.20312
209.8000,-50.9172,294.292,1.2101
209.7000,-53.6268,294.831,1.21589
209.6000,-59.7439,296.529,1.23408
209.5000,-54.5725,296.038,1.22882
209.4000,-57.5656,297.75,1.24709
209.3000,-58.7569,298.313,1.25308
209.2000,-58.5061,298.907,1.25938
209.1000,-54.5242,299.247,1.26299
209.0000,-62.0797,298.688,1.25706
208.9000,-58.3628,300.356,1.27473
208.8000,-57.7162,301.037,1.28192
208.7000,-58.2133,301.667,1.28856
208.6000,-60.3276,301.127,1.28287
208.5000,-58.1171,303.994,1.31298
208.4000,-60.3175,302.137,1.29351
208.3000,-56.3849,303.446,1.30724
208.2000,-56.9128,305.397,1.32763
208.1000,-52.8319,305.647,1.33024
208.0000,-61.45,305.623,1.32999
207.9000,-56.2839,307.513,1.34963
207.8000,-53.0013,308.092,1.35562
207.7000,-51.1841,309.208,1.36715
207.6000,-53.154,308.833,1.36328
207.5000,-58.8796,309.879,1.37406
207.4000,-52.8702,311.215,1.38779
207.3000,-52.7728,311.773,1.39351
207.2000,-47.9012,312.712,1.40312
207.1000,-60.676,313.558,1.41176
207.0000,-44.2204,314.717,1.42355
206.9000,-50.2137,315.398,1.43047
206.8000,-48.9113,314.319,1.4195
206.7000,-49.4809,315.299,1.42946
206.6000,-51.3051,317.829,1.45505
206.5000,-52.5873,318,1.45677
206.4000,-50.6518,319.344,1.47029
206.3000,-48.2916,319.771,1.47458
206.2000,-52.1304,321.574,1.49261
206.1000,-47.0985,322.036,1.49723
206.0000,-47.0777,323.435,1.51115
205.9000,-51.0111,323.942,1.51618
205.8000,-45.2112,325.709,1.53368
205.7000,-41.5026,325.46,1.53122
205.6000,-38.5874,326.525,1.54173
205.5000,-43.9248,327.674,1.55303
205.4000,-48.4078,328.878,1.56485
205.3000,-41.3076,329.295,1.56894
205.2000,-37.1214,330.255,1.57832
205.1000,-45.4996,331.92,1.59453
205.0000,-37.3083,333.007,1.60509
204.9000,-30.5891,333.737,1.61216
204.8000,-33.6631,335.332,1.62757
204.7000,-30.8622,335.804,1.63211
204.6000,-25.1467,337.587,1.64924
204.5000,-38.0933,338.338,1.65643
204.4000,-31.8534,339.579,1.66829
204.3000,-37.3086,339.815,1.67053
204.2000,-27.8376,341.25,1.68419
204.1000,-35.9944,343.495,1.70546
204.0000,-28.293,344.23,1.7124
203.9000,-22.5933,346.068,1.72969
203.8000,-18.9668,347.4,1.74217
203.7000,-22.9138,349.541,1.76216
203.6000,-27.3206,350.701,1.77294
203.5000,-25.8683,351.328,1.77876
203.4000,-24.7005,352.237,1.78717
203.3000,-23.9572,353.961,1.80309
203.2000,-18.4196,355.186,1.81436
203.1000,-18.9803,356.223,1.82387
203.0000,-16.5652,357.437,1.83499
202.9000,-8.11092,359.035,1.84956
202.8000,-5.56787,360.046,1.85875
202.7000,-20.1744,360.499,1.86286
202.6000,-16.3666,362.211,1.87836
202.5000,-2.89453,363.166,1.88698
202.4000,-11.1376,365.405,1.90712
202.3000,-6.20486,367.597,1.92673
202.2000,-5.43708,368.241,1.93248
202.1000,1.09551,371.339,1.95999
202.0000,1.62566,372.065,1.96641
201.9000,-3.45778,374.116,1.98449
201.8000,-0.0319917,374.82,1.99067
201.7000,-1.48383,377.251,2.01196
201.6000,-2.12792,379.056,2.02769
201.5000,14.3627,381.52,2.04906
201.4000,7.18776,380.958,2.0442
201.3000,5.20636,382.196,2.05491
201.2000,-1.05843,384.662,2.07615
201.1000,-3.50973,386.092,2.08841
201.0000,11.549,388.916,2.11253
200.9000,5.20672,390.202,2.12347
200.8000,10.6866,391.196,2.13189
200.7000,7.01303,392.847,2.14585
200.6000,16.0689,394.397,2.15891
200.5000,17.1329,396.271,2.17465
200.4000,13.3864,399.214,2.19923
200.3000,19.7369,400.838,2.21274
200.2000,22.3755,402.259,2.22451
200.1000,27.7739,406.25,2.25739
200.0000,22.8071,406.624,2.26046
199.9000,18.1461,408.772,2.27804
199.8000,20.1211,410.014,2.28816
199.7000,29.1958,412.033,2.30457
199.6000,35.2796,414.388,2.32362
199.5000,40.3648,415.328,2.3312
199.4000,29.5309,417.437,2.34815
199.3000,28.0738,419.236,2.36255
199.2000,16.4473,421.105,2.37746
199.1000,27.4198,421.959,2.38425
199.0000,29.0958,424.932,2.40781
198.9000,27.2366,426.182,2.41768
198.8000,32.4029,429.464,2.44346
198.7000,27.747,431.166,2.45677
198.6000,41.8302,433.944,2.47839
198.5000,23.1422,435.497,2.49043
198.4000,29.5913,437.952,2.50938
198.3000,50.4971,439.745,2.52317
198.2000,34.781,441.816,2.53904
198.1000,35.6836,443.719,2.55356
198.0000,30.8594,445.702,2.56864
197.9000,46.6516,447.982,2.58591
197.8000,46.4044,449.895,2.60033
197.7000,24.9078,451.839,2.61495
197.6000,34.3548,453.668,2.62865
197.5000,45.1822,456.543,2.65009
197.4000,40.7998,457.605,2.65798
197.3000,26.2955,461.535,2.68704
197.2000,35.4975,462.116,2.69132
197.1000,40.6687,465.125,2.71342
197.0000,29.7326,467.04,2.72741
196.9000,47.9276,469.301,2.74387
196.8000,37.0287,472.205,2.76491
196.7000,36.2155,473.577,2.77482
196.6000,35.7075,476.496,2.79581
196.5000,51.4194,478.81,2.81238
196.4000,39.3898,480.876,2.82711
196.3000,31.5711,483.267,2.8441
196.2000,31.75,486.122,2.86428
196.1000,43.1005,488.031,2.87773
196.0000,35.373,490.539,2.89532
195.9000,49.1482,493.197,2.91388
195.8000,35.9301,495.037,2.92668
195.7000,39.951,497.385,2.94295
195.6000,38.2495,500.494,2.9644
195.5000,47.308,501.64,2.97228
195.4000,44.1186,504.784,2.99382
195.3000,32.4053,505.746,3.00038
195.2000,25.6342,508.328,3.01796
195.1000,25.771,507.689,3.01362
195.0000,38.7685,510.632,3.03357
194.9000,28.4336,513.051,3.04991
194.8000,32.8114,514.13,3.05718
194.7000,42.285,517.236,3.07801
194.6000,39.6291,519.005,3.08983
194.5000,28.3321,520.426,3.0993
194.4000,25.7332,521.133,3.10401
194.3000,37.0635,524.648,3.12731
194.2000,29.3051,526.645,3.1405
194.1000,45.2558,528.443,3.15233
194.0000,33.3052,529.629,3.16011
193.9000,44.5731,533.225,3.18364
193.8000,35.07,535.615,3.19919
193.7000,42.8482,537.864,3.21378
193.6000,34.9222,540.155,3.22858
193.5000,35.8331,541.585,3.2378
193.4000,52.7985,543.301,3.24883
193.3000,23.1073,544.743,3.25807
193.2000,23.6756,544.987,3.25964
193.1000,37.9958,548.486,3.28198
193.0000,36.7279,550.089,3.29217
192.9000,29.9695,550.835,3.29691
192.8000,25.5366,554.199,3.3182
192.7000,19.6814,556.258,3.33117
192.6000,34.1769,558.302,3.34401
192.5000,32.0132,560.575,3.35824
192.4000,21.0993,563.055,3.37372
192.3000,31.5255,562.968,3.37317
192.2000,21.9543,566.611,3.3958
192.1000,35.4684,568.573,3.40794
192.0000,27.5299,570.894,3.42224
191.9000,10.7566,572.904,3.4346
191.8000,23.1651,574.513,3.44446
191.7000,28.9059,576.423,3.45614
191.6000,25.8015,577.921,3.46527
191.5000,40.4006,579.951,3.47762
191.4000,39.2501,582.198,3.49124
191.3000,26.0788,584.842,3.50721
191.2000,27.7665,586.35,3.51629
191.1000,30.2056,589.688,3.53633
191.0000,29.2226,592.566,3.55353
190.9000,19.7608,595.19,3.56914
190.8000,19.5139,598.044,3.58606
190.7000,33.3583,601.598,3.60703
190.6000,27.1049,603.545,3.61848
190.5000,24.0476,605.347,3.62905
190.4000,18.2864,608.522,3.64759
190.3000,14.7505,610.387,3.65845
190.2000,27.7065,612.384,3.67005
190.1000,12.0965,614.774,3.68388
190.0000,29.4382,617.572,3.70002

##### Extended Information
[Comments]
Sample name,SL_IM_PB
Comment
User,Lahoff
Division
Company,Saint Mary's College

[Detailed Information]
Creation date,9/27/2022 5:09 PM

Data array type,Linear data array * 3
Horizontal axis,Wavelength [nm]
Vertical axis(1),CD [mdeg]
Vertical axis(2),HT [V]
Vertical axis(3),Abs
Start,320 nm
End,190 nm
Data interval,0.1 nm
Data points,1301    

[Measurement Information]
Instrument name,J-1500
Model name,J-1500
Serial No.,B051061638

Detector,PM-539
Detector S/N,B051061638
  Lock-in amp.,X mode
  HT volt,Auto

Accessory,PTC-517
Accessory S/N,B026561646
  Temperature,21.82 C
  Control sensor,Holder
  Monitor sensor,Holder

Measurement date,9/27/2022 5:09 PM

CD Overload detect,988
Photometric mode,CD, HT, Abs
Measure range,320 - 190 nm
Data pitch,0.1 nm
CD scale,20 mdeg/0.05 dOD
FL scale,20 mdeg/0.05 dOD
D.I.T.,8 msec
Bandwidth,2.00 nm
Start mode,Immediately
Scanning mode,Continuous
Scanning speed,100 nm/min
Baseline correction,None
Shutter control,Auto
No. of cycle,1/1
N2 Flowmeter,Manual

Solvent,KCl buffer

