TITLE,SL_IM_PA
DATA TYPE,
ORIGIN,JASCO
OWNER,
DATE,22/09/27
TIME,17:25:20
SPECTROMETER/DATA SYSTEM,
LOCALE,1033
RESOLUTION,
DELTAX,-0.1
XUNITS,NANOMETERS
YUNITS,CD [mdeg]
Y2UNITS,HT [V]
Y3UNITS,ABSORBANCE
FIRSTX,  320.0000
LASTX,  190.0000
NPOINTS,    1301
FIRSTY,     0.70609
MAXY,    49.78313
MINY,   -76.42562
XYDATA
320.0000,0.706091,207.095,0.131222
319.9000,1.24763,206.8,0.126968
319.8000,2.35013,206.436,0.121729
319.7000,-0.467629,206.274,0.119393
319.6000,1.88006,207.273,0.133779
319.5000,1.34047,206.98,0.12956
319.4000,1.21078,206.67,0.125108
319.3000,1.54035,206.506,0.122741
319.2000,2.15198,207.331,0.134609
319.1000,2.7176,205.953,0.114764
319.0000,2.13393,206.035,0.115943
318.9000,-0.350656,207.409,0.135731
318.8000,3.94877,207.532,0.137488
318.7000,1.76082,206.26,0.119196
318.6000,2.037,206.712,0.125712
318.5000,1.52925,206.839,0.127539
318.4000,1.71903,206.579,0.123786
318.3000,1.0005,206.67,0.125108
318.2000,1.15,206.451,0.121941
318.1000,1.74424,206.575,0.123737
318.0000,1.92404,207.007,0.129951
317.9000,0.801419,206.173,0.117938
317.8000,2.07159,206.687,0.125353
317.7000,0.594122,207.442,0.136203
317.6000,2.56925,206.726,0.125908
317.5000,2.72807,206.358,0.120602
317.4000,1.76785,206.858,0.127816
317.3000,1.52409,206.998,0.129821
317.2000,2.09233,206.79,0.126837
317.1000,0.744387,206.708,0.125646
317.0000,2.12213,206.677,0.125206
316.9000,1.17565,207.252,0.133469
316.8000,1.38099,206.363,0.120684
316.7000,2.10935,206.507,0.122758
316.6000,1.46222,206.613,0.124276
316.5000,0.0559419,207.099,0.131271
316.4000,0.892198,206.409,0.121337
316.3000,2.96923,207.083,0.131043
316.2000,0.35854,206.99,0.129707
316.1000,0.932731,206.644,0.124733
316.0000,1.58112,206.452,0.121957
315.9000,2.74534,206.319,0.120046
315.8000,1.49828,207.078,0.130978
315.7000,0.430996,206.056,0.116253
315.6000,2.04795,206.768,0.126511
315.5000,-0.13122,207.252,0.133469
315.4000,1.96118,207.119,0.131564
315.3000,1.54288,206.815,0.127196
315.2000,0.328502,205.89,0.113848
315.1000,2.11899,207.2,0.13272
315.0000,2.25196,206.742,0.126136
314.9000,2.91903,207.831,0.141779
314.8000,1.09586,205.532,0.108672
314.7000,1.85524,207.231,0.133176
314.6000,0.429827,206.334,0.120258
314.5000,1.53327,206.475,0.1223
314.4000,2.72676,205.584,0.109426
314.3000,2.31808,206.698,0.1255
314.2000,2.34211,206.405,0.121288
314.1000,0.870908,206.224,0.118673
314.0000,0.0456141,206.404,0.121272
313.9000,1.74967,206.715,0.125745
313.8000,1.11372,206.355,0.120569
313.7000,0.197934,205.923,0.114323
313.6000,0.649895,205.652,0.110409
313.5000,2.67707,205.943,0.114617
313.4000,1.29393,206.379,0.120912
313.3000,1.20957,206.579,0.123786
313.2000,1.55412,205.414,0.106967
313.1000,0.43454,206.554,0.123427
313.0000,0.670387,205.694,0.111015
312.9000,2.6724,206.491,0.122529
312.8000,1.49855,206.835,0.127473
312.7000,1.33958,205.534,0.108704
312.6000,0.420417,206.996,0.129788
312.5000,2.13275,207.613,0.138659
312.4000,1.19251,206.568,0.123639
312.3000,2.24929,206.598,0.124064
312.2000,3.17682,204.879,0.0992179
312.1000,1.15141,206.338,0.120324
312.0000,0.492704,206.141,0.11748
311.9000,0.392959,206.741,0.12612
311.8000,0.825906,207.125,0.131646
311.7000,2.40737,205.886,0.113799
311.6000,1.72804,206.338,0.120324
311.5000,0.509255,206.571,0.123672
311.4000,0.444378,206.679,0.125239
311.3000,1.98793,205.353,0.106081
311.2000,1.03645,207.048,0.130538
311.1000,1.15227,206.532,0.123117
311.0000,2.27314,206.887,0.128223
310.9000,0.814457,207.064,0.130766
310.8000,1.53776,206.837,0.127506
310.7000,4.52222,206.454,0.12199
310.6000,1.2319,206.394,0.121124
310.5000,0.70606,206.362,0.120667
310.4000,2.15326,206.315,0.119981
310.3000,1.55023,205.883,0.11375
310.2000,2.6508,206.376,0.120863
310.1000,1.64626,206.617,0.124341
310.0000,0.725681,206.445,0.121859
309.9000,1.77452,206.251,0.119066
309.8000,2.7502,205.294,0.105228
309.7000,2.90603,206.839,0.127539
309.6000,-0.124842,206.507,0.122758
309.5000,1.48148,206.405,0.121288
309.4000,0.949213,205.924,0.114339
309.3000,1.14158,206.958,0.129251
309.2000,0.51681,206.505,0.122725
309.1000,1.27766,206.807,0.127082
309.0000,0.188114,206.534,0.12315
308.9000,-0.610858,206.054,0.116221
308.8000,2.19103,207.439,0.136154
308.7000,1.5977,206.699,0.125516
308.6000,1.74058,206.481,0.122382
308.5000,2.46957,206.405,0.121288
308.4000,1.88864,206.509,0.12279
308.3000,1.95216,206.472,0.122252
308.2000,0.330446,206.266,0.119278
308.1000,0.83472,206.737,0.126071
308.0000,1.58521,205.639,0.110229
307.9000,0.350024,205.555,0.109016
307.8000,2.41762,206.055,0.116237
307.7000,1.91727,205.305,0.105392
307.6000,2.71885,206.139,0.117447
307.5000,1.98128,206.519,0.122921
307.4000,0.826842,206.809,0.127098
307.3000,1.13362,206.794,0.126886
307.2000,-0.00420194,207.03,0.130277
307.1000,1.59452,205.636,0.110179
307.0000,0.390029,205.816,0.112784
306.9000,1.06475,206.43,0.121647
306.8000,1.84814,205.774,0.112178
306.7000,1.10056,206.528,0.123052
306.6000,0.873677,206.352,0.12052
306.5000,1.8285,206.057,0.11627
306.4000,1.13636,204.865,0.0990205
306.3000,1.10593,206.137,0.117415
306.2000,1.40006,205.859,0.113406
306.1000,-0.308085,206.286,0.119572
306.0000,1.17451,207.311,0.134316
305.9000,0.556027,205.453,0.107541
305.8000,2.74235,206.351,0.120504
305.7000,1.20291,205.71,0.111244
305.6000,0.933099,206.772,0.126576
305.5000,2.46968,206.537,0.123182
305.4000,0.666536,205.772,0.112145
305.3000,1.74739,206.409,0.121337
305.2000,0.695335,206.139,0.117447
305.1000,3.26897,205.93,0.114437
305.0000,1.41173,206.863,0.127881
304.9000,2.07691,205.737,0.111637
304.8000,0.394637,206.039,0.116008
304.7000,2.85729,206.326,0.120144
304.6000,1.21886,206.843,0.127587
304.5000,2.19993,205.957,0.114814
304.4000,1.46321,206.83,0.127408
304.3000,3.4737,205.512,0.108393
304.2000,-0.310739,206.701,0.125549
304.1000,1.25808,205.725,0.111474
304.0000,1.62518,206.801,0.126984
303.9000,2.26615,205.569,0.109213
303.8000,2.49801,205.873,0.113602
303.7000,0.719191,207.189,0.132574
303.6000,0.103692,206.231,0.118771
303.5000,1.19636,206.625,0.124455
303.4000,1.37251,206.051,0.116171
303.3000,0.739059,206.453,0.121974
303.2000,2.31921,205.467,0.107737
303.1000,0.948549,205.567,0.10918
303.0000,2.01635,206.52,0.122937
302.9000,2.26936,205.808,0.112669
302.8000,1.88148,205.291,0.105195
302.7000,1.55302,206.015,0.115664
302.6000,0.209439,205.465,0.107705
302.5000,0.975204,205.972,0.115043
302.4000,0.803646,206.594,0.124015
302.3000,0.152867,206.523,0.122986
302.2000,0.319424,205.189,0.103718
302.1000,1.05599,205.853,0.113324
302.0000,3.37786,205.8,0.112554
301.9000,1.77752,206.369,0.120765
301.8000,0.297332,206.608,0.124211
301.7000,1.17149,206.035,0.115943
301.6000,1.93893,206.015,0.115664
301.5000,1.70382,206.713,0.125728
301.4000,0.916725,205.16,0.103291
301.3000,3.10923,205.022,0.101288
301.2000,1.86409,205.868,0.113537
301.1000,1.27913,206.308,0.119883
301.0000,1.68039,206.911,0.128566
300.9000,1.21467,205.493,0.108114
300.8000,2.20789,206.651,0.124831
300.7000,-0.16469,206.268,0.119311
300.6000,1.09208,206.012,0.115615
300.5000,0.98224,206.23,0.118755
300.4000,1.43146,205.97,0.11501
300.3000,-0.87968,205.468,0.107754
300.2000,0.729495,206.215,0.118542
300.1000,0.840645,205.904,0.114061
300.0000,0.851438,205.96,0.114862
299.9000,1.70129,206.392,0.121092
299.8000,0.546722,206.642,0.1247
299.7000,0.0509442,205.323,0.105654
299.6000,1.04301,205.998,0.115419
299.5000,1.65788,204.655,0.0959622
299.4000,2.25413,205.557,0.109032
299.3000,0.63286,205.745,0.111752
299.2000,1.32333,205.64,0.110245
299.1000,-0.496189,206.209,0.118461
299.0000,0.372369,205.676,0.110753
298.9000,1.20607,205.945,0.11465
298.8000,0.711892,206.507,0.122758
298.7000,0.856839,205.681,0.110835
298.6000,1.10386,205.618,0.109917
298.5000,1.66959,205.71,0.111244
298.4000,1.26484,205.775,0.112194
298.3000,0.789943,206.265,0.119262
298.2000,0.279524,205.762,0.111998
298.1000,-0.375112,205.661,0.11054
298.0000,2.32823,205.993,0.115337
297.9000,0.968639,205.442,0.107377
297.8000,2.06576,205.294,0.105228
297.7000,2.11253,205.652,0.110409
297.6000,3.55419,206.069,0.116433
297.5000,1.85933,206.049,0.116155
297.4000,1.2494,205.388,0.106589
297.3000,0.53162,205.887,0.113815
297.2000,-0.251196,205.472,0.107803
297.1000,0.942663,205.997,0.115403
297.0000,0.222547,205.46,0.107639
296.9000,1.75842,205.79,0.112407
296.8000,2.02617,205.898,0.113962
296.7000,1.23311,205.395,0.106688
296.6000,0.416172,205.784,0.112325
296.5000,1.36028,204.464,0.0931975
296.4000,2.83415,206.574,0.123721
296.3000,1.11448,204.41,0.0924074
296.2000,0.539187,206.266,0.119278
296.1000,1.77608,206.849,0.127685
296.0000,-0.591438,205.508,0.108328
295.9000,0.410981,205.385,0.106557
295.8000,1.10426,205.768,0.112096
295.7000,0.578078,206.41,0.121353
295.6000,1.30954,205.35,0.106048
295.5000,1.15492,205.592,0.10954
295.4000,1.57314,205.073,0.102027
295.3000,1.29838,205.695,0.111032
295.2000,0.653039,205.49,0.108065
295.1000,0.674285,205.976,0.115092
295.0000,2.34917,206.631,0.124537
294.9000,0.101948,205.382,0.106507
294.8000,1.77634,206.159,0.117742
294.7000,0.877718,205.514,0.10841
294.6000,1.6046,205.746,0.111769
294.5000,0.239495,205.229,0.104292
294.4000,0.604413,206.013,0.115632
294.3000,-0.580313,206.293,0.11967
294.2000,-0.0486977,206.005,0.115517
294.1000,1.41612,205.457,0.10759
294.0000,0.642974,205.295,0.105244
293.9000,1.76363,205.753,0.111867
293.8000,1.80063,205.321,0.105622
293.7000,1.79304,206.543,0.12328
293.6000,1.52261,205.804,0.112604
293.5000,2.07543,206.949,0.12912
293.4000,1.3339,206.548,0.123345
293.3000,0.113637,206.116,0.11712
293.2000,2.73841,206.317,0.120013
293.1000,1.3386,205.324,0.105671
293.0000,0.625455,205.302,0.105343
292.9000,2.57586,205.928,0.114404
292.8000,1.7771,205.221,0.104178
292.7000,1.79589,204.422,0.0925885
292.6000,1.70891,204.927,0.0999079
292.5000,1.0215,205.22,0.104161
292.4000,1.61815,205.554,0.109
292.3000,0.205327,206.993,0.129756
292.2000,-0.798453,204.97,0.100532
292.1000,1.54454,204.721,0.0969327
292.0000,-0.224392,205.389,0.106606
291.9000,0.637695,205.878,0.113684
291.8000,0.757888,204.738,0.0971793
291.7000,2.47552,204.488,0.0935434
291.6000,-0.503642,205.477,0.107885
291.5000,1.0269,204.989,0.100812
291.4000,-0.0802936,205.413,0.10695
291.3000,1.28901,204.913,0.0997109
291.2000,3.35398,205.546,0.108885
291.1000,-0.0660613,204.988,0.100795
291.0000,1.59674,206.116,0.11712
290.9000,0.00690301,206.547,0.123329
290.8000,1.32949,205.118,0.102684
290.7000,0.29073,205.216,0.104096
290.6000,2.06178,205.296,0.105261
290.5000,0.571117,205.533,0.108688
290.4000,2.80612,205.647,0.110343
290.3000,1.33234,205.256,0.104686
290.2000,1.23908,205.33,0.105753
290.1000,0.881317,206.397,0.121174
290.0000,3.18159,205.749,0.111818
289.9000,0.800274,205.579,0.10936
289.8000,0.920033,206.315,0.119981
289.7000,1.95144,205.961,0.114879
289.6000,1.4111,206.122,0.117202
289.5000,-0.636141,204.584,0.0949423
289.4000,-0.77214,205.603,0.109704
289.3000,1.2902,206.238,0.118869
289.2000,0.844053,206.581,0.123819
289.1000,1.15807,204.887,0.0993328
289.0000,2.02072,206.55,0.123378
288.9000,1.71363,206.688,0.125369
288.8000,0.820345,205.268,0.10485
288.7000,1.79674,206.4,0.121206
288.6000,1.93117,206.102,0.116907
288.5000,0.0737974,207.46,0.136464
288.4000,1.61486,205.996,0.115386
288.3000,1.29829,207.396,0.135536
288.2000,1.59373,205.932,0.114453
288.1000,0.230426,206.98,0.12956
288.0000,1.83508,206.455,0.122007
287.9000,1.07629,205.935,0.114503
287.8000,0.371314,206.404,0.121272
287.7000,1.84089,205.617,0.109901
287.6000,1.80207,205.242,0.104473
287.5000,-0.472521,206.608,0.124211
287.4000,2.87245,205.696,0.111048
287.3000,0.266119,205.585,0.109442
287.2000,1.32803,205.783,0.112309
287.1000,0.581739,206.216,0.118559
287.0000,1.80328,206.009,0.115566
286.9000,0.774842,207,0.129853
286.8000,1.39582,206.624,0.124439
286.7000,3.11871,206.963,0.129315
286.6000,-0.331628,206.651,0.124831
286.5000,2.93709,206.319,0.120046
286.4000,-0.57629,206.843,0.127587
286.3000,2.00774,206.259,0.11918
286.2000,1.06889,204.941,0.100122
286.1000,1.6392,205.62,0.10995
286.0000,2.81931,206.409,0.121337
285.9000,0.25155,206.031,0.115893
285.8000,-0.110182,206.491,0.122529
285.7000,0.86312,206.988,0.129674
285.6000,0.613196,206.258,0.119164
285.5000,0.611103,206.964,0.129332
285.4000,-1.32173,206.819,0.127245
285.3000,1.11735,207.372,0.135195
285.2000,0.808022,205.668,0.110638
285.1000,0.971846,206.345,0.120422
285.0000,0.225556,205.395,0.106688
284.9000,2.61808,206.126,0.117267
284.8000,2.1472,206.324,0.120112
284.7000,0.609899,206.174,0.117954
284.6000,0.0884743,206.499,0.122643
284.5000,-0.221126,206.545,0.123297
284.4000,0.87094,205.944,0.114634
284.3000,1.46103,205.08,0.102126
284.2000,2.07735,206.42,0.1215
284.1000,-0.118478,207.611,0.138626
284.0000,1.80403,207.718,0.140171
283.9000,1.86261,206.8,0.126968
283.8000,0.814805,206.386,0.12101
283.7000,0.616901,206.358,0.120602
283.6000,1.03315,206.604,0.124145
283.5000,1.18814,206.762,0.12643
283.4000,2.66367,206.888,0.12824
283.3000,-0.230548,206.73,0.125973
283.2000,0.656551,206.251,0.119066
283.1000,0.574801,205.656,0.110474
283.0000,0.215276,205.772,0.112145
282.9000,2.08028,206.621,0.12439
282.8000,-0.367742,206.604,0.124145
282.7000,1.06972,207.196,0.132672
282.6000,-0.087374,206.187,0.118134
282.5000,0.963201,207.754,0.140674
282.4000,0.999464,207.603,0.138512
282.3000,2.48874,207.99,0.144068
282.2000,-0.625905,207.008,0.129967
282.1000,0.208386,206.853,0.127734
282.0000,0.807677,206.764,0.126462
281.9000,0.266477,206.475,0.1223
281.8000,0.815737,206.963,0.129315
281.7000,2.27057,206.165,0.117823
281.6000,0.11374,206.642,0.1247
281.5000,2.00064,206.928,0.12881
281.4000,1.01995,205.853,0.113324
281.3000,1.023,206.039,0.116008
281.2000,0.220555,206.761,0.126413
281.1000,0.133598,206.715,0.125745
281.0000,0.829208,206.129,0.1173
280.9000,0.412623,206.583,0.123851
280.8000,1.33629,207.641,0.139065
280.7000,-0.340491,205.84,0.113128
280.6000,2.00486,207.071,0.13088
280.5000,1.90161,206.242,0.118935
280.4000,0.939015,206.992,0.129739
280.3000,0.318113,206.411,0.121369
280.2000,0.600193,207.292,0.134056
280.1000,1.94081,207.415,0.135813
280.0000,2.29349,206.642,0.1247
279.9000,0.105128,206.506,0.122741
279.8000,1.07952,205.439,0.107327
279.7000,0.894973,208.09,0.145496
279.6000,1.51898,207.155,0.132085
279.5000,0.302789,206.028,0.115844
279.4000,1.80662,206.702,0.125565
279.3000,1.99314,207.033,0.130326
279.2000,-0.731073,206.755,0.126332
279.1000,0.571265,207.32,0.134446
279.0000,-0.565294,206.639,0.124651
278.9000,0.958166,206.583,0.123851
278.8000,2.01378,206.882,0.128158
278.7000,0.133286,206.661,0.124978
278.6000,1.86294,206.878,0.128093
278.5000,0.737504,206.658,0.124929
278.4000,2.23595,206.418,0.121467
278.3000,1.64463,205.998,0.115419
278.2000,0.377998,207.614,0.138675
278.1000,0.0953917,207.235,0.133225
278.0000,0.0468444,206.619,0.124374
277.9000,0.397893,206.333,0.120242
277.8000,0.854213,207.388,0.135422
277.7000,-0.0506177,206.749,0.126234
277.6000,2.35372,206.811,0.127131
277.5000,-1.2444,206.598,0.124064
277.4000,0.624427,206.747,0.126217
277.3000,0.814165,206.622,0.124406
277.2000,-0.711893,207.197,0.132688
277.1000,0.106049,206.594,0.124015
277.0000,-0.165956,206.63,0.124521
276.9000,1.04284,208.037,0.144734
276.8000,0.392505,207.2,0.13272
276.7000,0.114732,207.049,0.130554
276.6000,1.63769,205.793,0.112456
276.5000,0.518824,207.859,0.142185
276.4000,-0.113684,206.097,0.116842
276.3000,0.921551,207.151,0.13202
276.2000,1.96978,206.076,0.116531
276.1000,-0.92124,207.178,0.132411
276.0000,-0.167893,206.683,0.125288
275.9000,1.02082,206.734,0.126022
275.8000,1.07713,206.413,0.121402
275.7000,1.09485,206.83,0.127408
275.6000,-1.05814,206.081,0.116613
275.5000,1.2532,206.82,0.127261
275.4000,1.3666,206.579,0.123786
275.3000,0.531873,207.752,0.140658
275.2000,0.419009,206.687,0.125353
275.1000,-0.845355,207.315,0.134381
275.0000,-0.574792,207.501,0.137049
274.9000,1.47037,205.628,0.110065
274.8000,0.189488,207.247,0.133404
274.7000,2.43607,205.001,0.100992
274.6000,1.88903,207.689,0.139748
274.5000,0.609843,207.057,0.130668
274.4000,0.892874,208.384,0.149696
274.3000,0.236003,206.649,0.124798
274.2000,0.223916,206.914,0.128615
274.1000,-0.226691,207.146,0.131955
274.0000,1.49463,206.481,0.122382
273.9000,2.35942,205.882,0.113733
273.8000,-0.715669,205.423,0.107098
273.7000,1.96593,206.699,0.125516
273.6000,-0.725748,206.355,0.120569
273.5000,0.163287,205.889,0.113832
273.4000,1.02529,206.23,0.118755
273.3000,0.590811,206.189,0.118167
273.2000,0.356786,206.767,0.126495
273.1000,1.30226,207.488,0.13687
273.0000,0.143649,207.127,0.131678
272.9000,1.89763,206.712,0.125712
272.8000,0.689643,207.188,0.132557
272.7000,0.909632,207.078,0.130978
272.6000,1.04916,205.976,0.115092
272.5000,0.388711,207.122,0.131613
272.4000,-0.00845562,205.903,0.114044
272.3000,1.43473,206.53,0.123084
272.2000,2.2011,206.029,0.115861
272.1000,2.64916,206.905,0.128484
272.0000,-0.232126,207.985,0.143987
271.9000,0.798135,207.185,0.132509
271.8000,0.54897,205.532,0.108672
271.7000,1.09789,205.167,0.10339
271.6000,0.342729,206.792,0.126854
271.5000,-0.280275,206.989,0.12969
271.4000,0.851011,205.823,0.112882
271.3000,2.14502,205.408,0.106885
271.2000,-0.805091,207.834,0.141827
271.1000,-0.637632,207.04,0.130424
271.0000,-0.149087,207.812,0.141519
270.9000,0.828029,206.946,0.129071
270.8000,0.723699,207.49,0.136886
270.7000,1.45397,207.204,0.132786
270.6000,-0.181753,207.306,0.134251
270.5000,0.448701,206.264,0.119245
270.4000,0.691489,207.136,0.131808
270.3000,0.692235,207.161,0.132167
270.2000,0.60152,207.371,0.135178
270.1000,0.0489293,207.118,0.131548
270.0000,0.223336,207.252,0.133469
269.9000,2.09531,205.532,0.108672
269.8000,0.737895,207.397,0.135553
269.7000,0.395695,208.206,0.147151
269.6000,1.07376,207.526,0.137407
269.5000,0.343551,207.229,0.133144
269.4000,0.579512,207.128,0.131695
269.3000,0.205408,205.819,0.112833
269.2000,1.77155,205.555,0.109016
269.1000,0.0598868,207.118,0.131548
269.0000,0.654859,207.406,0.135683
268.9000,-0.255021,207.107,0.131385
268.8000,1.26248,208.646,0.153455
268.7000,-0.211682,207.127,0.131678
268.6000,0.58287,207.584,0.138236
268.5000,0.178352,207.483,0.136789
268.4000,0.759952,208.974,0.15813
268.3000,-0.490836,206.801,0.126984
268.2000,0.0312286,207.313,0.134348
268.1000,-0.189951,207.469,0.136594
268.0000,0.429293,208.044,0.144831
267.9000,1.42084,208.006,0.144296
267.8000,0.550214,208.822,0.155963
267.7000,0.682588,208.737,0.15475
267.6000,-0.497557,206.979,0.129544
267.5000,3.03889,207.947,0.143451
267.4000,1.06538,206.977,0.129527
267.3000,1.95089,207.283,0.133925
267.2000,-0.517694,208.08,0.145351
267.1000,-0.391307,208.438,0.150474
267.0000,2.18456,207.032,0.13031
266.9000,0.574177,208.103,0.145675
266.8000,1.32196,209.585,0.166835
266.7000,1.40682,207.407,0.135699
266.6000,0.787585,208.845,0.156287
266.5000,0.876704,208.322,0.148821
266.4000,2.53555,208.058,0.145042
266.3000,0.167679,207.904,0.142835
266.2000,1.36828,207.68,0.139618
266.1000,0.0237877,208.569,0.152354
266.0000,0.150297,207.929,0.143192
265.9000,-0.565108,207.589,0.138318
265.8000,1.14212,208.222,0.147378
265.7000,0.844159,208.375,0.149567
265.6000,-2.21004,207.388,0.135422
265.5000,0.878737,208.072,0.145237
265.4000,0.852038,207.973,0.143825
265.3000,0.592835,207.764,0.14082
265.2000,0.781641,208.692,0.154102
265.1000,1.12956,208.019,0.144474
265.0000,0.538473,207.737,0.14043
264.9000,-0.744881,207.841,0.141925
264.8000,0.429452,207.678,0.139586
264.7000,0.500079,208.479,0.151058
264.6000,0.0829786,208.756,0.155025
264.5000,-0.271471,208.603,0.152839
264.4000,-0.375296,208.343,0.149113
264.3000,1.61134,208.224,0.147411
264.2000,-0.17428,208.334,0.148983
264.1000,0.17965,208.404,0.149988
264.0000,-0.0202437,208.367,0.149453
263.9000,0.834155,208.453,0.150685
263.8000,1.37175,208.921,0.157371
263.7000,0.905369,208.763,0.155122
263.6000,1.36214,208.804,0.155704
263.5000,-0.202684,208.086,0.145432
263.4000,-0.201104,208.219,0.147346
263.3000,-0.930621,208.35,0.14921
263.2000,-0.196951,209.196,0.161299
263.1000,0.0123989,208.651,0.153519
263.0000,-0.17537,208.335,0.149
262.9000,-0.64215,208.708,0.154329
262.8000,0.841755,208.777,0.155316
262.7000,-0.00163836,208.461,0.150798
262.6000,-0.409864,208.594,0.15271
262.5000,-0.149247,208.288,0.148335
262.4000,0.658202,208.808,0.155769
262.3000,-1.04814,208.495,0.151285
262.2000,1.04039,208.467,0.150896
262.1000,-0.28132,209.296,0.16272
262.0000,1.3673,208.776,0.1553
261.9000,1.65423,209.23,0.161783
261.8000,2.47818,209.25,0.162074
261.7000,-0.264863,208.504,0.151414
261.6000,-0.175258,209.387,0.164028
261.5000,0.926004,208.815,0.155866
261.4000,0.960672,208.586,0.152596
261.3000,1.49307,210.099,0.174151
261.2000,-0.385581,208.982,0.158244
261.1000,1.5565,208.646,0.153455
261.0000,1.54285,209.426,0.164576
260.9000,1.69693,208.956,0.157872
260.8000,1.17359,208.856,0.156449
260.7000,0.194274,208.591,0.152661
260.6000,0.258487,209.36,0.16364
260.5000,0.344211,209.5,0.165625
260.4000,1.56292,208.49,0.15122
260.3000,1.3674,209.025,0.158858
260.2000,0.402547,209.934,0.1718
260.1000,-1.3066,209.394,0.164125
260.0000,-0.157322,209.866,0.170834
259.9000,0.225162,209.918,0.171575
259.8000,1.45095,208.246,0.147735
259.7000,-1.26485,209.458,0.165028
259.6000,-1.96247,209.375,0.16385
259.5000,-1.52021,209.157,0.160749
259.4000,0.642409,209.765,0.169399
259.3000,0.0737377,209.989,0.17259
259.2000,1.38898,209.078,0.159618
259.1000,-0.704926,209.695,0.1684
259.0000,0.0579787,210.317,0.177241
258.9000,0.733635,210.061,0.173604
258.8000,0.284454,208.887,0.156885
258.7000,0.289713,208.691,0.154086
258.6000,-0.789279,209.482,0.165367
258.5000,0.385508,209.621,0.167352
258.4000,0.910871,209.9,0.171317
258.3000,-1.73772,210.007,0.172847
258.2000,0.547077,209.429,0.164625
258.1000,1.28515,209.135,0.160426
258.0000,-0.557191,210.927,0.1859
257.9000,0.686782,210.051,0.173475
257.8000,1.20527,211.302,0.191207
257.7000,0.0308996,209.284,0.162558
257.6000,0.544134,209.93,0.171752
257.5000,0.324953,210.97,0.18651
257.4000,0.652525,210.683,0.182432
257.3000,-0.777073,210.831,0.184536
257.2000,-1.085,209.58,0.166771
257.1000,0.985432,209.878,0.171011
257.0000,2.99896,210.555,0.180617
256.9000,0.554829,210.255,0.176372
256.8000,1.14029,210.789,0.183942
256.7000,2.292,210,0.172751
256.6000,2.00031,210.283,0.176758
256.5000,0.989696,210.502,0.179878
256.4000,1.43702,210.479,0.17954
256.3000,-0.457538,209.408,0.164318
256.2000,1.06932,209.383,0.163963
256.1000,1.04675,210.762,0.183557
256.0000,2.01506,212.011,0.201208
255.9000,-1.23785,208.753,0.154976
255.8000,0.621115,210.473,0.17946
255.7000,-0.665066,209.793,0.169802
255.6000,1.69296,211.1,0.188338
255.5000,0.577737,211.352,0.191912
255.4000,-0.604029,210.897,0.185467
255.3000,0.370761,210.637,0.18179
255.2000,0.571704,209.934,0.1718
255.1000,1.36965,210.598,0.181228
255.0000,-1.55073,211.131,0.188787
254.9000,1.34811,210.312,0.177177
254.8000,1.34338,210.982,0.18667
254.7000,0.433367,210.658,0.182079
254.6000,0.107199,212.17,0.20346
254.5000,-0.114293,209.25,0.162074
254.4000,-0.361626,210.334,0.177482
254.3000,1.91173,211.166,0.189284
254.2000,-0.266576,210.865,0.185017
254.1000,-0.624548,211.57,0.194987
254.0000,-0.270042,211.56,0.194843
253.9000,0.787711,211.55,0.194715
253.8000,-0.731264,210.16,0.175021
253.7000,0.0624684,211.523,0.19433
253.6000,-0.461703,211.228,0.19015
253.5000,1.50786,212.09,0.202326
253.4000,0.279421,211.258,0.190583
253.3000,0.105081,211.075,0.187985
253.2000,-0.108898,212.331,0.205727
253.1000,0.457202,209.646,0.167706
253.0000,0.922016,213.123,0.216865
252.9000,0.27569,212.273,0.204913
252.8000,0.745919,211.408,0.192697
252.7000,0.262969,213.01,0.215274
252.6000,-0.153184,210.65,0.181967
252.5000,-0.470442,212.533,0.208567
252.4000,0.818627,213.227,0.218328
252.3000,0.21327,211.015,0.187136
252.2000,-0.384876,211.299,0.191159
252.1000,0.446531,211.794,0.198155
252.0000,-0.562078,212.204,0.203939
251.9000,1.58366,212.744,0.211531
251.8000,0.00439018,212.301,0.205296
251.7000,-1.13628,212.069,0.202039
251.6000,-0.788142,212.099,0.202454
251.5000,1.41881,211.632,0.195867
251.4000,2.37967,212.602,0.209539
251.3000,-0.753275,212.241,0.20445
251.2000,-0.138231,211.009,0.187055
251.1000,0.302191,211.587,0.195227
251.0000,1.14923,211.876,0.199306
250.9000,-0.137693,213.527,0.222525
250.8000,-0.911438,212.083,0.20223
250.7000,-0.00524214,212.686,0.210719
250.6000,0.592651,212.987,0.214955
250.5000,1.86491,212.14,0.203029
250.4000,0.113129,212.45,0.207402
250.3000,-0.803889,212.451,0.207418
250.2000,1.39315,212.197,0.203843
250.1000,2.0238,211.953,0.200393
250.0000,-0.839531,210.454,0.179187
249.9000,0.310147,212.847,0.212981
249.8000,0.27263,211.628,0.195803
249.7000,-0.554146,212.631,0.209954
249.6000,0.0586111,213.425,0.221095
249.5000,-1.2922,212.451,0.207418
249.4000,-0.11696,213.575,0.223208
249.3000,0.134271,212.883,0.21349
249.2000,-0.205125,214.217,0.232186
249.1000,1.12102,214.754,0.239688
249.0000,-0.0529722,211.81,0.198379
248.9000,0.437,213.084,0.216308
248.8000,2.29564,213.361,0.220205
248.7000,-0.241447,211.403,0.192633
248.6000,0.274506,213.112,0.216706
248.5000,-1.32447,211.63,0.195835
248.4000,0.105771,213.44,0.221317
248.3000,-0.373336,211.499,0.193994
248.2000,0.739025,214.254,0.232708
248.1000,0.558531,213.425,0.221095
248.0000,-0.255092,211.915,0.199866
247.9000,-0.745166,213.175,0.217597
247.8000,0.0894541,212.918,0.213984
247.7000,1.5875,212.832,0.212774
247.6000,-1.3309,211.419,0.192857
247.5000,-0.0160519,213.515,0.222366
247.4000,-1.99815,213.008,0.215242
247.3000,0.332936,212.378,0.206381
247.2000,1.17018,212.765,0.211834
247.1000,0.0044829,213.235,0.21844
247.0000,-0.449892,213.609,0.223684
246.9000,-1.77943,213.553,0.22289
246.8000,-1.66937,213.384,0.220523
246.7000,-1.76312,214.226,0.232312
246.6000,-0.15319,212.942,0.214319
246.5000,-0.516362,212.565,0.209013
246.4000,-1.32474,214.252,0.232677
246.3000,0.331382,214.266,0.232883
246.2000,-1.47086,213.481,0.221889
246.1000,-1.26782,214.4,0.234751
246.0000,0.594948,214.082,0.2303
245.9000,-1.62124,213.443,0.221349
245.8000,0.833928,214.431,0.235179
245.7000,-1.37188,214.851,0.241047
245.6000,-1.94615,214.385,0.234546
245.5000,0.639326,214.408,0.234862
245.4000,-0.659278,213.794,0.226271
245.3000,-0.843038,213.647,0.224208
245.2000,-1.76297,215.224,0.246243
245.1000,-3.57699,214.672,0.238549
245.0000,-1.09006,214.608,0.237648
244.9000,-2.56699,214.561,0.236999
244.8000,-1.69525,213.544,0.222763
244.7000,-3.00796,215.772,0.253873
244.6000,-0.918935,215.964,0.256534
244.5000,-0.705894,213.464,0.221651
244.4000,-1.84197,215.926,0.256015
244.3000,-1.87193,215.465,0.249603
244.2000,-1.11316,215.652,0.252204
244.1000,-2.93963,214.009,0.229285
244.0000,-2.50975,216.683,0.266514
243.9000,-3.77609,215.102,0.244538
243.8000,-0.845967,215.571,0.251069
243.7000,-3.5412,215.945,0.256267
243.6000,-2.76094,214.197,0.231916
243.5000,-2.11745,215.325,0.247647
243.4000,-3.007,215.159,0.245343
243.3000,-4.45349,216.323,0.261519
243.2000,-3.58084,216.484,0.26375
243.1000,-2.90619,215.973,0.25666
243.0000,-2.12667,216.219,0.260073
242.9000,-3.8219,216.056,0.257808
242.8000,-2.78092,215.333,0.247758
242.7000,-4.92002,215.803,0.254299
242.6000,-3.41161,216.919,0.269777
242.5000,-3.45313,215.52,0.25036
242.4000,-4.82301,216.067,0.257966
242.3000,-5.80125,217.612,0.27936
242.2000,-4.64532,217.464,0.277311
242.1000,-4.636,216.68,0.266467
242.0000,-4.84072,216.885,0.269306
241.9000,-3.78006,217.321,0.275339
241.8000,-3.0935,216.561,0.264818
241.7000,-4.35896,217.737,0.28108
241.6000,-5.75696,216.905,0.269588
241.5000,-4.92177,217.769,0.281518
241.4000,-5.50688,217.015,0.271109
241.3000,-5.66664,218.886,0.296896
241.2000,-5.41048,218.159,0.286891
241.1000,-5.86777,218.725,0.294686
241.0000,-5.37367,218.727,0.294717
240.9000,-4.39857,217.823,0.282268
240.8000,-6.76487,217.07,0.271861
240.7000,-6.6976,218.5,0.291585
240.6000,-5.55006,218.365,0.28973
240.5000,-7.61006,218.053,0.285439
240.4000,-5.87643,217.577,0.278875
240.3000,-7.90337,218.016,0.284923
240.2000,-8.17034,218.691,0.294218
240.1000,-7.41822,218.809,0.295838
240.0000,-8.19157,219.565,0.306207
239.9000,-8.22948,218.594,0.292878
239.8000,-9.76488,219.232,0.30164
239.7000,-7.93066,218.572,0.292583
239.6000,-8.94749,219.207,0.301298
239.5000,-9.72963,219.764,0.308939
239.4000,-9.39432,219.218,0.301454
239.3000,-10.3384,219.718,0.308303
239.2000,-10.5585,220.276,0.315944
239.1000,-8.37936,220.248,0.315556
239.0000,-9.04129,220.15,0.314225
238.9000,-11.0661,220.146,0.314163
238.8000,-10.9135,219.885,0.310598
238.7000,-10.252,220.102,0.313559
238.6000,-10.4997,221.013,0.325994
238.5000,-13.3007,221.268,0.329466
238.4000,-12.406,220.925,0.324805
238.3000,-12.1559,220.447,0.318281
238.2000,-13.6592,221.753,0.336063
238.1000,-10.8358,221.484,0.332412
238.0000,-12.5233,222.289,0.343339
237.9000,-10.8888,222.129,0.341171
237.8000,-13.0037,222.123,0.341094
237.7000,-14.5759,222.334,0.343953
237.6000,-13.5124,222.829,0.350661
237.5000,-15.3275,223.481,0.359469
237.4000,-14.4626,222.648,0.348207
237.3000,-15.576,222.64,0.348099
237.2000,-15.5406,223.176,0.355351
237.1000,-13.6982,223.285,0.356822
237.0000,-14.6434,223.843,0.364362
236.9000,-17.1126,223.702,0.362452
236.8000,-14.9855,223.364,0.357893
236.7000,-16.5343,224.197,0.369126
236.6000,-18.6392,224.915,0.378788
236.5000,-17.0367,225.5,0.386633
236.4000,-17.4784,224.236,0.36966
236.3000,-17.1767,224.217,0.369401
236.2000,-18.0694,224.897,0.378544
236.1000,-18.0872,225.494,0.386557
236.0000,-19.4575,225.382,0.385053
235.9000,-17.3098,225.793,0.390564
235.8000,-18.3705,225.683,0.389092
235.7000,-20.1364,225.896,0.391944
235.6000,-20.4276,226.543,0.400593
235.5000,-20.1956,226.405,0.398747
235.4000,-22.5682,227.447,0.412646
235.3000,-21.9265,226.655,0.40209
235.2000,-23.0383,225.916,0.392202
235.1000,-21.8406,226.762,0.403512
235.0000,-22.1076,227.098,0.407999
234.9000,-23.2826,227.359,0.41147
234.8000,-22.9452,227.119,0.40827
234.7000,-23.864,228.591,0.42783
234.6000,-25.2317,227.323,0.410987
234.5000,-23.876,228.842,0.431162
234.4000,-24.2347,228.454,0.426012
234.3000,-26.9541,228.697,0.429241
234.2000,-26.1551,230.148,0.448405
234.1000,-26.4545,229.503,0.439898
234.0000,-25.4767,228.59,0.427815
233.9000,-27.188,229.726,0.442846
233.8000,-26.8499,229.447,0.439165
233.7000,-27.3497,228.59,0.427815
233.6000,-29.6814,231.154,0.461642
233.5000,-30.2585,230.831,0.457399
233.4000,-28.9188,230.791,0.456877
233.3000,-28.8646,229.968,0.446045
233.2000,-31.9982,230.677,0.455372
233.1000,-30.3109,232.92,0.484766
233.0000,-30.0597,232.164,0.47489
232.9000,-29.9235,231.645,0.468094
232.8000,-33.947,232.365,0.477514
232.7000,-31.1962,231.142,0.461493
232.6000,-30.5782,232.825,0.483524
232.5000,-32.5932,233.223,0.488712
232.4000,-32.9519,233.473,0.491975
232.3000,-34.4719,234.28,0.502467
232.2000,-34.2517,233.412,0.491178
232.1000,-33.717,233.798,0.496207
232.0000,-34.3369,234.471,0.504953
231.9000,-36.8392,234.324,0.503041
231.8000,-37.6247,234.949,0.511153
231.7000,-36.7344,234.315,0.502923
231.6000,-35.808,235.791,0.522045
231.5000,-38.7845,236.017,0.524956
231.4000,-37.4873,235.246,0.514998
231.3000,-35.9282,237.193,0.540107
231.2000,-39.4672,235.552,0.518955
231.1000,-39.1858,236.252,0.527997
231.0000,-39.77,236.366,0.529458
230.9000,-38.7015,236.013,0.524912
230.8000,-43.6572,236.871,0.535968
230.7000,-40.2754,236.92,0.536595
230.6000,-39.4403,236.791,0.534932
230.5000,-41.4998,236.812,0.535209
230.4000,-44.1469,239.048,0.563874
230.3000,-43.0973,238.416,0.55579
230.2000,-43.106,238.775,0.560385
230.1000,-44.0281,237.231,0.540602
230.0000,-44.7789,237.469,0.543659
229.9000,-46.0453,238.147,0.552351
229.8000,-42.2951,238.735,0.559878
229.7000,-48.0937,238.661,0.558936
229.6000,-47.244,239.068,0.564134
229.5000,-47.0223,238.531,0.557269
229.4000,-49.0567,239.436,0.568835
229.3000,-47.307,239.322,0.567375
229.2000,-47.936,239.662,0.57171
229.1000,-46.4904,240.704,0.584972
229.0000,-48.428,241.189,0.591126
228.9000,-47.5974,240.735,0.585361
228.8000,-48.7892,240.89,0.587331
228.7000,-45.6219,240.822,0.586468
228.6000,-52.5001,242.331,0.605578
228.5000,-52.3205,241.258,0.592002
228.4000,-49.4238,242.078,0.602372
228.3000,-49.7083,241.284,0.592332
228.2000,-51.3917,242.638,0.609454
228.1000,-50.5642,243.169,0.616138
228.0000,-51.9508,243.275,0.617479
227.9000,-51.3498,243.066,0.614839
227.8000,-54.2594,245.126,0.640699
227.7000,-54.7943,245.054,0.639806
227.6000,-56.5665,244.846,0.637196
227.5000,-53.9749,245.311,0.643023
227.4000,-57.6296,245.52,0.645629
227.3000,-56.4868,245.319,0.643122
227.2000,-56.1087,246.286,0.655186
227.1000,-58.5022,245.075,0.640061
227.0000,-55.4563,245.05,0.639749
226.9000,-56.4054,246.6,0.659095
226.8000,-58.7906,245.846,0.649704
226.7000,-57.3357,246.244,0.654663
226.6000,-58.8274,246.841,0.662098
226.5000,-57.2596,247.102,0.665338
226.4000,-58.8653,247.352,0.668449
226.3000,-58.6012,247.342,0.668322
226.2000,-59.6802,247.174,0.666239
226.1000,-57.6087,248.5,0.682673
226.0000,-60.1897,248.379,0.681173
225.9000,-57.6596,248.876,0.687324
225.8000,-59.7675,248.442,0.681958
225.7000,-62.7015,249.605,0.696313
225.6000,-60.728,250.202,0.703665
225.5000,-62.7864,249.274,0.692233
225.4000,-59.6575,250.082,0.702187
225.3000,-62.248,250.313,0.70503
225.2000,-64.2018,249.802,0.698742
225.1000,-63.2049,250.982,0.713254
225.0000,-62.4698,250.497,0.7073
224.9000,-61.1426,250.249,0.70425
224.8000,-66.1985,251.294,0.717075
224.7000,-61.6075,252.476,0.73153
224.6000,-63.6605,250.682,0.709569
224.5000,-62.5298,251.825,0.723582
224.4000,-59.5319,252.411,0.730742
224.3000,-65.1723,253.384,0.742607
224.2000,-63.296,252.416,0.730797
224.1000,-60.7623,252.213,0.72832
224.0000,-65.7961,253.241,0.740855
223.9000,-66.0597,253.263,0.741131
223.8000,-64.2098,254.639,0.757843
223.7000,-64.3475,253.046,0.738481
223.6000,-67.1697,254.593,0.757293
223.5000,-63.9323,255.878,0.772838
223.4000,-66.2243,255.69,0.770567
223.3000,-63.1533,255.567,0.769074
223.2000,-64.2479,255.816,0.772086
223.1000,-64.9853,254.502,0.75618
223.0000,-66.3417,256.333,0.77832
222.9000,-61.302,256.508,0.780436
222.8000,-66.8325,256.112,0.775655
222.7000,-67.2788,256.924,0.785443
222.6000,-63.9008,259.041,0.810824
222.5000,-69.1063,258.624,0.805837
222.4000,-66.1243,257.899,0.797149
222.3000,-67.8695,257.009,0.786465
222.2000,-69.8653,257.677,0.794485
222.1000,-66.5399,258.873,0.808819
222.0000,-67.3572,259.168,0.81234
221.9000,-67.8271,259.689,0.818561
221.8000,-65.3416,259.566,0.817102
221.7000,-66.6689,260.47,0.82786
221.6000,-65.966,259.746,0.819237
221.5000,-66.5641,260.46,0.827752
221.4000,-68.0208,260.474,0.827914
221.3000,-65.0464,262.253,0.849017
221.2000,-65.8142,261.498,0.84008
221.1000,-68.4639,261.044,0.834688
221.0000,-66.8605,261.056,0.834836
220.9000,-68.0707,260.999,0.83415
220.8000,-66.1654,261.938,0.845289
220.7000,-66.9355,262.827,0.855806
220.6000,-67.0824,262.459,0.851455
220.5000,-67.5774,263.468,0.863358
220.4000,-65.4687,263.318,0.861595
220.3000,-67.1558,265.293,0.884806
220.2000,-67.5472,264.018,0.869841
220.1000,-68.7374,264.773,0.878708
220.0000,-70.7095,264.431,0.87469
219.9000,-64.8069,264.474,0.875196
219.8000,-65.0931,265.4,0.886054
219.7000,-68.1571,265.596,0.888349
219.6000,-67.3611,265.525,0.887527
219.5000,-66.3845,266.198,0.895399
219.4000,-66.8122,266.661,0.900796
219.3000,-68.1809,267.233,0.907466
219.2000,-66.1683,267.31,0.908363
219.1000,-65.9456,267.147,0.906463
219.0000,-63.7798,267.379,0.909168
218.9000,-65.4315,267.702,0.912925
218.8000,-66.1487,267.623,0.912003
218.7000,-66.1604,268.227,0.919021
218.6000,-67.7858,269.603,0.93497
218.5000,-69.3992,269.661,0.935638
218.4000,-66.8411,270.093,0.940625
218.3000,-67.0959,268.962,0.927549
218.2000,-64.5986,270.494,0.945252
218.1000,-64.5007,269.77,0.936895
218.0000,-62.8988,270.086,0.940546
217.9000,-60.7924,270.83,0.94913
217.8000,-68.5989,270.887,0.949783
217.7000,-65.8782,269.628,0.935259
217.6000,-67.3297,271.238,0.953825
217.5000,-64.4903,271.69,0.959022
217.4000,-62.352,271.816,0.960467
217.3000,-65.9832,272.584,0.969277
217.2000,-66.0369,273.094,0.975114
217.1000,-67.5765,272.9,0.972897
217.0000,-62.6583,273.927,0.984628
216.9000,-64.6299,274.165,0.987341
216.8000,-67.5432,273.179,0.976086
216.7000,-66.092,275.576,1.00339
216.6000,-64.0018,275.768,1.00558
216.5000,-66.0401,274.557,0.991809
216.4000,-66.0335,275.255,0.999748
216.3000,-68.8431,276.723,1.0164
216.2000,-63.5847,276.253,1.01107
216.1000,-66.0127,277.351,1.02349
216.0000,-65.171,277.16,1.02133
215.9000,-68.2961,276.402,1.01276
215.8000,-66.4222,275.949,1.00763
215.7000,-68.8939,279.025,1.04234
215.6000,-65.7276,278.247,1.0336
215.5000,-63.829,278.677,1.03843
215.4000,-70.5245,280.1,1.05441
215.3000,-63.1637,279.404,1.04661
215.2000,-66.1322,280.685,1.06095
215.1000,-64.2643,279.793,1.05097
215.0000,-67.8097,280.823,1.06249
214.9000,-65.6266,279.851,1.05161
214.8000,-64.6481,280.197,1.0555
214.7000,-62.1118,281.823,1.07366
214.6000,-63.191,282.21,1.07796
214.5000,-60.3947,282.729,1.08373
214.4000,-62.6895,282.678,1.08317
214.3000,-61.2713,283.41,1.09129
214.2000,-63.5116,283.606,1.09347
214.1000,-70.5423,284.341,1.10161
214.0000,-65.5078,283.626,1.09369
213.9000,-65.4963,284.191,1.09995
213.8000,-69.1884,284.855,1.10729
213.7000,-62.2349,285.898,1.11879
213.6000,-68.9022,285.311,1.11232
213.5000,-67.6206,286.264,1.12282
213.4000,-67.9512,286.213,1.12226
213.3000,-67.0598,286.203,1.12214
213.2000,-66.1565,286.89,1.1297
213.1000,-67.7682,287.276,1.13393
213.0000,-65.916,288.981,1.15258
212.9000,-69.229,288.163,1.14365
212.8000,-67.4111,289.13,1.15422
212.7000,-66.0011,289.077,1.15364
212.6000,-62.4671,289.502,1.15827
212.5000,-70.1101,290.376,1.16778
212.4000,-58.3782,290.745,1.17179
212.3000,-65.1444,290.71,1.17141
212.2000,-63.8564,291.128,1.17594
212.1000,-70.9556,291.605,1.18111
212.0000,-67.4939,293.138,1.19768
211.9000,-67.7035,293.268,1.19909
211.8000,-64.86,293.668,1.2034
211.7000,-66.4313,292.641,1.19231
211.6000,-65.4885,294.38,1.21105
211.5000,-69.3135,295.572,1.22384
211.4000,-68.489,295.484,1.22289
211.3000,-69.1901,296.243,1.23101
211.2000,-68.8044,297.276,1.24204
211.1000,-67.1928,297.983,1.24957
211.0000,-69.5352,298.343,1.2534
210.9000,-67.6746,298.905,1.25937
210.8000,-69.0974,300.374,1.27492
210.7000,-66.6552,299.639,1.26714
210.6000,-64.9294,300.937,1.28087
210.5000,-64.8689,300.176,1.27282
210.4000,-70.6926,301.336,1.28507
210.3000,-72.5967,301.173,1.28335
210.2000,-69.6492,303.069,1.3033
210.1000,-70.0928,303.54,1.30823
210.0000,-70.2681,302.835,1.30084
209.9000,-67.5979,304.423,1.31747
209.8000,-71.9166,305.487,1.32858
209.7000,-71.8193,305.841,1.33226
209.6000,-74.4598,306.074,1.33469
209.5000,-70.7442,307.326,1.34769
209.4000,-70.4308,307.7,1.35156
209.3000,-67.7346,309.063,1.36565
209.2000,-66.289,309.637,1.37157
209.1000,-70.7432,309.8,1.37325
209.0000,-76.4256,310.135,1.3767
208.9000,-72.1939,310.228,1.37765
208.8000,-67.3047,312.686,1.40285
208.7000,-67.4804,313.224,1.40835
208.6000,-64.7732,313.159,1.40769
208.5000,-73.212,313.672,1.41291
208.4000,-70.0846,313.912,1.41536
208.3000,-64.3659,315.802,1.43456
208.2000,-68.653,316.343,1.44005
208.1000,-71.2991,316.976,1.44644
208.0000,-68.7343,317.316,1.44987
207.9000,-70.6917,319.905,1.47592
207.8000,-64.4343,320.756,1.48444
207.7000,-68.521,321.517,1.49205
207.6000,-68.2343,322.043,1.49729
207.5000,-59.6042,323.618,1.51296
207.4000,-66.4403,324.345,1.52018
207.3000,-64.8891,325.198,1.52863
207.2000,-59.1546,325.846,1.53503
207.1000,-64.9529,325.885,1.53541
207.0000,-62.8345,326.458,1.54107
206.9000,-63.7251,328.416,1.56032
206.8000,-62.2946,329.635,1.57226
206.7000,-61.9528,329.906,1.57491
206.6000,-63.0341,332.592,1.60106
206.5000,-54.9251,332.254,1.59778
206.4000,-55.415,333.178,1.60675
206.3000,-64.5517,335.132,1.62563
206.2000,-58.2829,336.475,1.63856
206.1000,-53.9396,337.209,1.64561
206.0000,-50.9899,337.941,1.65263
205.9000,-59.0685,338.784,1.66069
205.8000,-57.5515,340.533,1.67738
205.7000,-48.9016,340.898,1.68085
205.6000,-62.4221,342.679,1.69774
205.5000,-46.8554,344.045,1.71065
205.4000,-42.5529,344.476,1.71472
205.3000,-48.5591,345.38,1.72323
205.2000,-58.9973,348.075,1.74848
205.1000,-53.429,348.946,1.75662
205.0000,-46.7952,350.717,1.77309
204.9000,-46.2559,351.176,1.77735
204.8000,-36.077,353.745,1.8011
204.7000,-43.0407,354.738,1.81025
204.6000,-45.1909,355.39,1.81623
204.5000,-40.773,356.72,1.82843
204.4000,-41.2263,358.822,1.84762
204.3000,-31.1504,359.343,1.85236
204.2000,-37.1765,361.171,1.86895
204.1000,-39.3472,362.275,1.87893
204.0000,-34.8178,364,1.89449
203.9000,-31.6138,366.053,1.91293
203.8000,-33.01,367.393,1.9249
203.7000,-41.8486,369.008,1.93931
203.6000,-33.5883,370.914,1.95622
203.5000,-37.1344,371.927,1.96519
203.4000,-18.3789,373.512,1.97917
203.3000,-23.1721,374.718,1.98977
203.2000,-22.6492,376.402,2.00453
203.1000,-22.2119,378.379,2.02179
203.0000,-21.4652,379.553,2.03201
202.9000,-22.7483,380.868,2.04342
202.8000,-14.5078,382.646,2.05879
202.7000,-20.5446,383.93,2.06985
202.6000,-4.051,386.513,2.09202
202.5000,-12.0018,387.714,2.10229
202.4000,-23.7082,390.733,2.12796
202.3000,-17.8615,392.687,2.1445
202.2000,-8.10468,394.421,2.15911
202.1000,-14.8701,395.036,2.16429
202.0000,-6.9785,397.762,2.18712
201.9000,-3.78714,400.329,2.2085
201.8000,8.79763,402.471,2.22626
201.7000,1.36025,404.081,2.23956
201.6000,-3.59492,405.995,2.2553
201.5000,7.01958,408.491,2.27574
201.4000,7.46533,410.355,2.29094
201.3000,7.24746,412.663,2.30968
201.2000,6.74004,413.793,2.31881
201.1000,5.94867,416.064,2.33712
201.0000,13.3799,418.41,2.35595
200.9000,14.3689,420.095,2.36941
200.8000,2.60294,421.335,2.37929
200.7000,22.9971,423.843,2.3992
200.6000,0.901711,426.422,2.41957
200.5000,23.0051,428.202,2.43357
200.4000,10.4212,431.571,2.45993
200.3000,7.80812,433.719,2.47664
200.2000,24.2599,436.673,2.49952
200.1000,6.449,438.527,2.51381
200.0000,12.7739,441.226,2.53452
199.9000,26.7981,443.908,2.555
199.8000,29.8242,446.032,2.57114
199.7000,10.2545,447.553,2.58266
199.6000,27.869,450.29,2.60331
199.5000,31.5559,452.276,2.61823
199.4000,21.2566,453.638,2.62843
199.3000,35.0237,455.378,2.64141
199.2000,28.1155,459.213,2.6699
199.1000,34.1529,461.561,2.68723
199.0000,32.1644,462.893,2.69704
198.9000,26.8089,465.432,2.71566
198.8000,29.9836,469.317,2.74398
198.7000,31.2957,472.306,2.76564
198.6000,22.8143,474.71,2.78298
198.5000,20.3301,477.164,2.80061
198.4000,34.1103,480.844,2.82689
198.3000,24.3913,483.277,2.84417
198.2000,30.8124,486.676,2.86819
198.1000,19.1357,488.787,2.88304
198.0000,35.794,490.081,2.89211
197.9000,38.0212,493.818,2.9182
197.8000,35.6714,496.401,2.93614
197.7000,34.5747,498.351,2.94963
197.6000,29.8487,500.51,2.96451
197.5000,25.247,504.375,2.99102
197.4000,31.3888,506.554,3.00589
197.3000,37.4557,509.171,3.02368
197.2000,36.2807,512.336,3.04508
197.1000,32.8297,515.931,3.06927
197.0000,39.5704,518.547,3.08678
196.9000,46.3552,520.092,3.09708
196.8000,39.8628,523.99,3.12296
196.7000,35.8885,525.678,3.13412
196.6000,36.338,529.915,3.16199
196.5000,46.4492,532.779,3.18072
196.4000,21.3992,534.966,3.19498
196.3000,36.5015,539.108,3.22182
196.2000,31.5397,541.581,3.23778
196.1000,34.8574,544.473,3.25634
196.0000,40.4746,547.845,3.27789
195.9000,31.9021,551.984,3.30419
195.8000,35.4087,552.421,3.30696
195.7000,36.2611,556.858,3.33495
195.6000,39.9065,558.965,3.34817
195.5000,32.652,561.298,3.36276
195.4000,21.1797,563.811,3.37842
195.3000,23.9454,565.862,3.39116
195.2000,32.6326,568.35,3.40656
195.1000,40.1155,570.299,3.41858
195.0000,33.719,574.297,3.44314
194.9000,17.4994,574.815,3.44631
194.8000,32.2026,577.762,3.4643
194.7000,29.1537,580.936,3.48359
194.6000,28.693,581.922,3.48957
194.5000,29.1668,584.496,3.50513
194.4000,29.9198,586.512,3.51727
194.3000,26.7013,589.035,3.53242
194.2000,18.1452,591.86,3.54931
194.1000,26.842,594.067,3.56247
194.0000,26.3482,597.72,3.58415
193.9000,25.2033,600.917,3.60302
193.8000,32.5256,602.424,3.61189
193.7000,23.4333,605.589,3.63047
193.6000,23.7708,607.362,3.64083
193.5000,49.7831,610.034,3.6564
193.4000,23.9405,611.274,3.66361
193.3000,19.888,611.649,3.66579
193.2000,30.7877,615.29,3.68686
193.1000,30.9065,617.978,3.70236
193.0000,19.4107,619.219,3.70949
192.9000,19.3418,621.489,3.72251
192.8000,13.3265,623.309,3.73292
192.7000,29.4079,625.459,3.74518
192.6000,26.7398,628.016,3.75972
192.5000,28.3037,630.261,3.77244
192.4000,33.6452,633.628,3.79145
192.3000,19.9813,635.841,3.80389
192.2000,20.2671,636.855,3.80958
192.1000,17.9205,639.29,3.82322
192.0000,26.413,642.567,3.84149
191.9000,12.7452,643.033,3.84408
191.8000,23.9287,646.805,3.86501
191.7000,28.4941,647.527,3.869
191.6000,26.1004,650.058,3.88298
191.5000,30.0476,650.974,3.88802
191.4000,26.5915,654.769,3.90886
191.3000,25.2918,656.062,3.91593
191.2000,16.2432,658.208,3.92765
191.1000,16.9687,661.954,3.94803
191.0000,20.7555,663.261,3.95512
190.9000,24.5381,666.253,3.97129
190.8000,32.5985,669.686,3.98977
190.7000,15.1878,672.124,4.00286
190.6000,9.3905,675.134,4.01894
190.5000,12.7271,677.326,4.03063
190.4000,7.11476,678.344,4.03604
190.3000,5.04941,681.979,4.05531
190.2000,19.0019,684.551,4.06889
190.1000,20.4946,686.051,4.0768
190.0000,12.2308,689.184,4.09325

##### Extended Information
[Comments]
Sample name,SL_IM_PA
Comment
User,Lahoff
Division
Company,Saint Mary's College

[Detailed Information]
Creation date,9/27/2022 5:25 PM

Data array type,Linear data array * 3
Horizontal axis,Wavelength [nm]
Vertical axis(1),CD [mdeg]
Vertical axis(2),HT [V]
Vertical axis(3),Abs
Start,320 nm
End,190 nm
Data interval,0.1 nm
Data points,1301    

[Measurement Information]
Instrument name,J-1500
Model name,J-1500
Serial No.,B051061638

Detector,PM-539
Detector S/N,B051061638
  Lock-in amp.,X mode
  HT volt,Auto

Accessory,PTC-517
Accessory S/N,B026561646
  Temperature,21.74 C
  Control sensor,Holder
  Monitor sensor,Holder

Measurement date,9/27/2022 5:25 PM

CD Overload detect,961
Photometric mode,CD, HT, Abs
Measure range,320 - 190 nm
Data pitch,0.1 nm
CD scale,20 mdeg/0.05 dOD
FL scale,20 mdeg/0.05 dOD
D.I.T.,8 msec
Bandwidth,2.00 nm
Start mode,Immediately
Scanning mode,Continuous
Scanning speed,100 nm/min
Baseline correction,None
Shutter control,Auto
No. of cycle,1/1
N2 Flowmeter,Manual

Solvent,KCl buffer

