TITLE,SL_IM_Buff
DATA TYPE,
ORIGIN,JASCO
OWNER,
DATE,22/09/27
TIME,17:02:27
SPECTROMETER/DATA SYSTEM,
LOCALE,1033
RESOLUTION,
DELTAX,-0.1
XUNITS,NANOMETERS
YUNITS,CD [mdeg]
Y2UNITS,HT [V]
Y3UNITS,ABSORBANCE
FIRSTX,  320.0000
LASTX,  190.0000
NPOINTS,    1301
FIRSTY,     0.48808
MAXY,     7.36503
MINY,    -3.94157
XYDATA
320.0000,0.488077,207.198,0.132704
319.9000,0.360189,207.212,0.132899
319.8000,0.0752406,206.676,0.12519
319.7000,1.03943,207.742,0.140512
319.6000,-0.166755,207.104,0.131352
319.5000,2.66964,207.252,0.133469
319.4000,1.10678,206.667,0.125059
319.3000,1.25137,206.852,0.127718
319.2000,2.10404,206.966,0.129365
319.1000,1.05805,206.625,0.124455
319.0000,-0.150686,207.228,0.133127
318.9000,1.8639,207.13,0.131727
318.8000,0.4378,206.395,0.121141
318.7000,2.11227,206.911,0.128566
318.6000,1.14651,207.749,0.140609
318.5000,0.990845,206.566,0.123606
318.4000,1.57523,206.669,0.125092
318.3000,1.32295,206.567,0.123623
318.2000,1.85135,206.462,0.122104
318.1000,-0.205253,207.684,0.139683
318.0000,0.224948,206.845,0.12762
317.9000,1.16569,206.905,0.128484
317.8000,2.05291,207.141,0.131874
317.7000,1.71632,207.357,0.134983
317.6000,2.06962,207.464,0.136512
317.5000,0.816346,207.324,0.134511
317.4000,1.19206,207.023,0.130179
317.3000,1.84399,207.295,0.134088
317.2000,-0.271812,206.505,0.122725
317.1000,-0.078785,207.033,0.130326
317.0000,0.242327,207.451,0.136334
316.9000,2.36772,206.924,0.128762
316.8000,1.04167,207.534,0.137521
316.7000,1.49381,207.227,0.133111
316.6000,0.879143,206.746,0.126201
316.5000,0.0327643,207.563,0.137943
316.4000,1.95168,206.666,0.125043
316.3000,0.70468,206.685,0.12532
316.2000,1.36386,205.998,0.115419
316.1000,1.71936,207.505,0.137114
316.0000,0.266247,207.328,0.13456
315.9000,1.82654,206.798,0.126951
315.8000,3.32696,206.892,0.128305
315.7000,0.734562,206.258,0.119164
315.6000,1.18499,207.781,0.141064
315.5000,0.861169,206.839,0.127539
315.4000,1.03623,206.252,0.119082
315.3000,1.42866,205.788,0.112374
315.2000,1.45869,206.722,0.125859
315.1000,1.19826,207.271,0.133746
315.0000,0.838162,206.023,0.115779
314.9000,2.35293,206.533,0.123133
314.8000,0.688337,205.998,0.115419
314.7000,2.02575,207.721,0.140203
314.6000,1.40313,206.726,0.125908
314.5000,-0.228047,206.734,0.126022
314.4000,0.542526,206.846,0.127637
314.3000,0.979238,206.49,0.122513
314.2000,1.03508,206.818,0.127229
314.1000,2.12743,206.426,0.121582
314.0000,1.62793,205.938,0.114552
313.9000,2.6329,207.61,0.13861
313.8000,1.79292,206.193,0.118232
313.7000,2.66792,206.277,0.119441
313.6000,1.00597,206.454,0.12199
313.5000,2.32738,206.091,0.11676
313.4000,0.476674,206.551,0.123394
313.3000,0.177495,205.703,0.111146
313.2000,1.08326,206.202,0.118363
313.1000,0.902788,206.638,0.124635
313.0000,-0.935581,206.375,0.120847
312.9000,0.208975,206.823,0.12731
312.8000,1.35479,206.192,0.118215
312.7000,2.24027,206.396,0.121157
312.6000,1.11907,206.844,0.127604
312.5000,1.53582,207.009,0.129984
312.4000,1.70878,206.709,0.125663
312.3000,1.18848,206.932,0.128876
312.2000,1.44505,206.316,0.119997
312.1000,2.57523,206.609,0.124227
312.0000,0.118802,206.228,0.118739
311.9000,1.66885,206.452,0.121957
311.8000,-0.567188,206.866,0.12793
311.7000,1.6711,206.542,0.123264
311.6000,-0.131298,206.592,0.123982
311.5000,0.675592,205.45,0.107491
311.4000,1.49821,207.146,0.131955
311.3000,1.0944,206.344,0.120406
311.2000,-1.09197,206.298,0.119736
311.1000,2.38791,205.967,0.114961
311.0000,1.12483,206.072,0.116482
310.9000,0.424279,206.682,0.125271
310.8000,1.29489,206.243,0.118951
310.7000,1.59922,206.967,0.129381
310.6000,1.35407,206.404,0.121272
310.5000,0.271718,206.677,0.125206
310.4000,0.22678,206.953,0.129169
310.3000,0.234606,206.841,0.127571
310.2000,2.12138,206.638,0.124635
310.1000,1.80409,206.676,0.12519
310.0000,0.527034,206.615,0.124308
309.9000,-0.163096,206.485,0.122431
309.8000,0.182322,206.758,0.126364
309.7000,2.20974,206.728,0.12594
309.6000,1.53358,206.304,0.119834
309.5000,0.723965,206.511,0.122807
309.4000,2.9957,206.989,0.12969
309.3000,-0.410666,206.324,0.120112
309.2000,1.57188,206.422,0.121533
309.1000,3.66984,206.472,0.122252
309.0000,1.06661,206.678,0.125222
308.9000,0.904357,207.047,0.130521
308.8000,0.869472,207.026,0.130228
308.7000,2.18439,206.341,0.120357
308.6000,1.82351,206.513,0.122839
308.5000,1.08195,206.863,0.127881
308.4000,3.50173,206.012,0.115615
308.3000,1.42311,206.346,0.120438
308.2000,1.21148,205.848,0.113242
308.1000,-0.714843,206.017,0.115681
308.0000,-0.549907,206.649,0.124798
307.9000,1.84951,207.125,0.131646
307.8000,1.93152,206.325,0.120128
307.7000,0.948729,205.901,0.114012
307.6000,2.72438,206.477,0.122317
307.5000,1.13325,206.87,0.127979
307.4000,1.68061,206.285,0.119556
307.3000,0.785523,205.459,0.107623
307.2000,1.83975,206.031,0.115893
307.1000,1.33806,206.317,0.120013
307.0000,-0.0318937,207.087,0.131108
306.9000,0.023664,206.037,0.115975
306.8000,0.667879,206.538,0.123198
306.7000,1.41881,206.608,0.124211
306.6000,0.955537,206.2,0.11833
306.5000,1.80295,206.364,0.1207
306.4000,0.87149,206.545,0.123297
306.3000,1.23438,206.384,0.120977
306.2000,2.80777,207.116,0.131515
306.1000,2.09841,206.264,0.119245
306.0000,2.53671,206.264,0.119245
305.9000,1.07317,206.415,0.121435
305.8000,0.182508,206.539,0.123215
305.7000,0.525037,206.282,0.119507
305.6000,2.69581,207.118,0.131548
305.5000,-0.244422,205.968,0.114977
305.4000,0.952125,206.696,0.125483
305.3000,0.690367,206.091,0.11676
305.2000,1.16557,206.465,0.122154
305.1000,0.554624,207.084,0.131059
305.0000,1.50905,205.747,0.111785
304.9000,0.0957392,206.526,0.123035
304.8000,0.0768402,206.276,0.119425
304.7000,0.834287,206.566,0.123606
304.6000,2.41587,206.613,0.124276
304.5000,0.76895,206.269,0.119327
304.4000,1.60366,206.718,0.125793
304.3000,1.33542,205.316,0.105556
304.2000,3.36128,206.137,0.117415
304.1000,1.87396,206.096,0.116826
304.0000,-0.660058,205.455,0.107557
303.9000,-0.450514,206.955,0.129202
303.8000,2.90309,206.141,0.11748
303.7000,0.747253,205.762,0.111998
303.6000,-0.412053,206.327,0.12016
303.5000,1.01403,206.342,0.120373
303.4000,-0.153352,205.686,0.1109
303.3000,1.0285,206.531,0.1231
303.2000,2.76694,206.953,0.129169
303.1000,1.30952,206.819,0.127245
303.0000,0.863054,205.765,0.112047
302.9000,1.95307,206.177,0.118003
302.8000,3.15923,206.722,0.125859
302.7000,0.30501,205.874,0.113619
302.6000,0.165809,206.333,0.120242
302.5000,0.914461,206.209,0.118461
302.4000,0.290095,206.239,0.118886
302.3000,1.76012,206.424,0.121565
302.2000,1.31802,206.035,0.115943
302.1000,1.26356,206.813,0.127164
302.0000,0.882184,206.491,0.122529
301.9000,1.80734,205.382,0.106507
301.8000,0.430851,206.415,0.121435
301.7000,-0.139399,206.291,0.119638
301.6000,0.130438,207.346,0.13482
301.5000,1.29523,205.447,0.107442
301.4000,0.139546,206.257,0.119147
301.3000,1.5444,206.686,0.125337
301.2000,1.73858,206.022,0.115762
301.1000,1.39825,205.935,0.114503
301.0000,0.935025,205.728,0.111506
300.9000,1.24194,205.909,0.114126
300.8000,0.298852,205.762,0.111998
300.7000,0.50483,205.957,0.114814
300.6000,1.20756,206.964,0.129332
300.5000,0.719882,206.104,0.11694
300.4000,-0.0126951,206.183,0.118085
300.3000,0.66773,205.913,0.114192
300.2000,2.08731,206.292,0.119654
300.1000,-0.762305,206.226,0.118706
300.0000,1.04209,205.474,0.107836
299.9000,0.708589,205.619,0.109934
299.8000,0.966502,205.849,0.113259
299.7000,0.768477,205.568,0.109196
299.6000,-1.78565,206.285,0.119556
299.5000,0.560562,206.094,0.116793
299.4000,0.476294,205.849,0.113259
299.3000,1.53798,204.967,0.100499
299.2000,1.27494,205.555,0.109016
299.1000,1.21145,205.169,0.103423
299.0000,0.900369,205.393,0.106671
298.9000,2.72637,206.682,0.125271
298.8000,2.45118,206.001,0.115452
298.7000,0.766447,205.737,0.111637
298.6000,0.598093,206.107,0.116989
298.5000,1.19631,206.542,0.123264
298.4000,2.43291,206.574,0.123721
298.3000,0.469176,205.257,0.104703
298.2000,1.80232,205.655,0.110458
298.1000,0.706211,205.729,0.111523
298.0000,0.351737,204.87,0.0990863
297.9000,0.471307,204.918,0.0997763
297.8000,1.54294,205.991,0.115304
297.7000,-0.607438,205.537,0.108754
297.6000,1.19446,205.552,0.108967
297.5000,2.03217,205.116,0.102651
297.4000,1.09488,206.358,0.120602
297.3000,1.90618,205.942,0.114601
297.2000,-0.41272,205.429,0.10718
297.1000,1.44055,206.226,0.118706
297.0000,0.828161,205.038,0.101518
296.9000,0.444835,206.244,0.118968
296.8000,-0.0980565,205.732,0.111572
296.7000,-0.874492,205.942,0.114601
296.6000,-0.115379,205.873,0.113602
296.5000,0.175873,205.561,0.109098
296.4000,0.801504,205.584,0.109426
296.3000,3.09411,206.17,0.117888
296.2000,-0.524003,205.94,0.114568
296.1000,0.609182,205.627,0.110049
296.0000,1.42809,204.956,0.100335
295.9000,2.03555,205.552,0.108967
295.8000,1.95147,205.069,0.101978
295.7000,0.713388,205.704,0.111162
295.6000,0.64468,206.004,0.115501
295.5000,1.06574,206.037,0.115975
295.4000,2.03868,205.951,0.114732
295.3000,0.0518663,205.439,0.107327
295.2000,0.456173,205.202,0.103899
295.1000,1.42262,205.749,0.111818
295.0000,1.06712,205.603,0.109704
294.9000,0.581313,205.881,0.113717
294.8000,1.00367,205.363,0.106229
294.7000,-0.108245,205.714,0.11131
294.6000,0.879466,205.597,0.109622
294.5000,-0.99397,205.23,0.104309
294.4000,1.86307,205.815,0.112767
294.3000,0.845805,205.238,0.104424
294.2000,-0.544287,205.37,0.106327
294.1000,0.679186,206.231,0.118771
294.0000,1.15592,205.978,0.115125
293.9000,0.770201,204.99,0.100828
293.8000,2.42001,205.421,0.107065
293.7000,0.0725812,205.669,0.110655
293.6000,0.663737,205.438,0.107311
293.5000,1.38168,205.712,0.111277
293.4000,0.358463,204.828,0.0984782
293.3000,2.50164,205.613,0.109852
293.2000,0.164255,205.055,0.101764
293.1000,0.0794129,205.055,0.101764
293.0000,0.56331,205.129,0.102848
292.9000,1.42604,206.805,0.12705
292.8000,0.997738,205.439,0.107327
292.7000,1.29596,204.857,0.0989055
292.6000,-0.152024,205.104,0.102487
292.5000,1.65462,204.868,0.0990535
292.4000,0.36991,205.864,0.113471
292.3000,3.06961,204.762,0.0975246
292.2000,0.841117,204.623,0.0955015
292.1000,0.603356,205.195,0.1038
292.0000,-0.143953,205.125,0.102782
291.9000,2.22436,204.673,0.0962253
291.8000,-0.453682,205.273,0.104932
291.7000,0.784558,205.135,0.10293
291.6000,0.772605,204.533,0.0942018
291.5000,0.106547,204.461,0.0931483
291.4000,-0.0593459,204.596,0.0951068
291.3000,-0.263602,204.908,0.0996451
291.2000,-0.633249,204.268,0.0903486
291.1000,0.309864,205.282,0.105064
291.0000,1.80509,205.044,0.101616
290.9000,1.95213,204.961,0.100401
290.8000,-0.454165,204.848,0.0987739
290.7000,-0.47187,204.799,0.0980506
290.6000,1.74858,205.125,0.102782
290.5000,0.944913,205.031,0.101419
290.4000,1.9452,204.981,0.100697
290.3000,0.691111,205.067,0.101945
290.2000,0.859099,204.268,0.0903486
290.1000,0.81174,204.895,0.0994477
290.0000,1.90695,206.027,0.115828
289.9000,0.922412,205.1,0.102421
289.8000,2.47794,204.769,0.0976232
289.7000,0.656014,205.526,0.10859
289.6000,-0.152933,205.585,0.109442
289.5000,0.882229,205.111,0.102585
289.4000,1.03171,204.481,0.0934444
289.3000,1.21899,205.063,0.101879
289.2000,2.04081,205.253,0.104637
289.1000,1.1948,205.132,0.102881
289.0000,-0.0461887,205.52,0.108508
288.9000,-0.208243,205.532,0.108672
288.8000,1.04483,204.843,0.0986917
288.7000,3.10193,205.347,0.105999
288.6000,0.471031,205.501,0.108229
288.5000,1.83354,206.095,0.116809
288.4000,1.49808,205.501,0.108229
288.3000,-0.189034,204.795,0.0980014
288.2000,1.14758,204.981,0.100697
288.1000,-0.807012,204.987,0.100779
288.0000,1.84913,204.71,0.0967682
287.9000,0.307195,205.373,0.106376
287.8000,0.12171,204.869,0.0990699
287.7000,0.568272,204.978,0.100647
287.6000,0.919149,204.666,0.0961267
287.5000,2.55893,205.053,0.101748
287.4000,-0.292664,205.277,0.104982
287.3000,1.20136,204.94,0.100105
287.2000,2.30201,204.037,0.0869861
287.1000,-0.386264,204.626,0.0955509
287.0000,0.49882,204.589,0.0950079
286.9000,0.273648,205.252,0.104621
286.8000,1.57687,204.903,0.0995629
286.7000,1.91536,205.253,0.104637
286.6000,-0.360131,205.37,0.106327
286.5000,1.21378,205.075,0.10206
286.4000,0.939262,204.716,0.0968504
286.3000,-0.63522,204.589,0.0950079
286.2000,0.826547,204.936,0.10004
286.1000,0.658523,204.657,0.095995
286.0000,1.02248,204.675,0.0962584
285.9000,0.990679,205.589,0.109508
285.8000,0.510174,205.96,0.114862
285.7000,1.08112,205.906,0.114077
285.6000,2.02284,205.819,0.112833
285.5000,2.51554,204.638,0.0957154
285.4000,1.31401,204.709,0.0967518
285.3000,0.754859,205.434,0.107262
285.2000,0.77047,205.129,0.102848
285.1000,0.519486,204.459,0.0931152
285.0000,1.66234,205.801,0.112571
284.9000,1.32723,205.422,0.107081
284.8000,0.187545,205.006,0.101058
284.7000,-0.0430578,204.596,0.0951068
284.6000,1.56955,205.199,0.103849
284.5000,2.1433,205.631,0.110114
284.4000,1.19642,205.375,0.106409
284.3000,1.17203,205.543,0.108836
284.2000,0.716652,205.489,0.108049
284.1000,0.619282,205.58,0.109376
284.0000,-0.206708,205.093,0.102322
283.9000,0.310852,205.303,0.105359
283.8000,1.59124,205.283,0.10508
283.7000,0.769637,205.269,0.104867
283.6000,0.50508,205.086,0.102224
283.5000,2.69318,204.953,0.100286
283.4000,0.305664,205.55,0.108934
283.3000,1.48177,204.457,0.0930988
283.2000,0.150492,205.455,0.107557
283.1000,3.10058,204.712,0.096801
283.0000,0.86003,206.177,0.118003
282.9000,0.938253,205.073,0.102027
282.8000,0.219947,205.45,0.107491
282.7000,0.0914747,205.456,0.107573
282.6000,1.26299,205.199,0.103849
282.5000,1.68202,205.082,0.102158
282.4000,1.2512,205.339,0.105884
282.3000,0.298857,204.962,0.100417
282.2000,-0.319359,205.5,0.108213
282.1000,0.363901,205.497,0.108164
282.0000,0.050985,204.695,0.0965543
281.9000,0.149348,204.052,0.0872006
281.8000,0.231904,204.759,0.0974751
281.7000,0.838706,205.516,0.108442
281.6000,1.3461,204.451,0.0930001
281.5000,0.96259,205.429,0.10718
281.4000,0.856352,205.416,0.106999
281.3000,0.279803,204.649,0.0958799
281.2000,1.04233,205.992,0.115321
281.1000,-0.192892,205.025,0.101337
281.0000,1.77662,204.8,0.0980673
280.9000,0.562539,205.992,0.115321
280.8000,-0.00973736,205.012,0.10114
280.7000,0.0340859,204.981,0.100697
280.6000,0.840424,205.552,0.108967
280.5000,0.80344,206.291,0.119638
280.4000,1.1501,205.964,0.114928
280.3000,0.467899,205.316,0.105556
280.2000,-0.0846739,205.844,0.113193
280.1000,-0.0360172,205.414,0.106967
280.0000,0.532104,204.921,0.0998258
279.9000,-0.0964928,205.421,0.107065
279.8000,1.36802,205.483,0.107967
279.7000,2.21932,204.988,0.100795
279.6000,0.0431472,205.57,0.109229
279.5000,2.63693,205.37,0.106327
279.4000,-0.522486,205.485,0.108
279.3000,1.51579,205.568,0.109196
279.2000,0.958479,205.421,0.107065
279.1000,-0.175078,205.567,0.10918
279.0000,1.05928,205.448,0.107459
278.9000,0.68458,204.812,0.098248
278.8000,0.814915,205.283,0.10508
278.7000,-0.73315,205.958,0.11483
278.6000,0.804827,204.788,0.0979028
278.5000,1.3276,205.169,0.103423
278.4000,1.29847,205.153,0.103193
278.3000,1.67334,205.287,0.10513
278.2000,0.840651,205.861,0.113439
278.1000,0.495072,205.206,0.103964
278.0000,1.15061,204.596,0.0951068
277.9000,1.50046,204.216,0.0895907
277.8000,2.05961,206.611,0.124259
277.7000,1.39532,205.646,0.110327
277.6000,-0.154776,205.497,0.108164
277.5000,0.0983875,204.659,0.0960281
277.4000,-0.241388,205.66,0.110523
277.3000,0.359873,205.626,0.110032
277.2000,0.881564,205.031,0.101419
277.1000,0.905009,204.979,0.100664
277.0000,1.84741,206.236,0.118853
276.9000,1.21683,205.291,0.105195
276.8000,0.318882,205.097,0.102372
276.7000,1.47107,205.84,0.113128
276.6000,1.0297,206.031,0.115893
276.5000,0.833731,205.189,0.103718
276.4000,-0.625856,204.787,0.0978862
276.3000,0.385089,204.601,0.0951891
276.2000,1.87567,205.455,0.107557
276.1000,1.93969,205.383,0.106524
276.0000,1.82481,205.475,0.107852
275.9000,0.623331,205.575,0.109294
275.8000,1.93604,205.184,0.103636
275.7000,0.000224097,204.953,0.100286
275.6000,0.275242,205.425,0.107131
275.5000,1.87389,206.089,0.116727
275.4000,0.229469,205.486,0.108016
275.3000,2.1871,205.696,0.111048
275.2000,-1.3284,205.815,0.112767
275.1000,1.20115,205.421,0.107065
275.0000,1.38656,205.654,0.110442
274.9000,-0.410188,205.436,0.107295
274.8000,0.219464,205.549,0.108918
274.7000,-0.107937,204.742,0.0972285
274.6000,-0.503171,205.409,0.106901
274.5000,-0.586928,204.272,0.0903978
274.4000,1.88555,206.138,0.117431
274.3000,1.01139,205.674,0.110737
274.2000,-0.138298,206.018,0.115697
274.1000,2.11752,204.503,0.0937572
274.0000,0.687381,205.656,0.110474
273.9000,-0.0488374,205.333,0.105802
273.8000,1.92451,205.961,0.114879
273.7000,2.68071,205.733,0.111588
273.6000,0.791964,205.257,0.104703
273.5000,0.57809,205.455,0.107557
273.4000,1.37725,205.725,0.111474
273.3000,0.64358,205.146,0.103094
273.2000,1.30758,206.342,0.120373
273.1000,0.650793,205.07,0.101994
273.0000,1.27502,205.324,0.105671
272.9000,0.368521,205.536,0.108737
272.8000,-1.26882,205.621,0.109967
272.7000,1.39368,205.728,0.111506
272.6000,0.79033,206.051,0.116171
272.5000,-1.3112,206.419,0.121484
272.4000,-0.807703,205.576,0.109311
272.3000,0.155782,205.858,0.113389
272.2000,0.476301,205.74,0.111687
272.1000,1.61282,206.357,0.120585
272.0000,0.0818972,205.435,0.107278
271.9000,0.354868,205.106,0.102503
271.8000,-0.766881,206.019,0.115713
271.7000,1.77321,206.215,0.118542
271.6000,0.854357,205.421,0.107065
271.5000,-0.422353,205.251,0.104604
271.4000,0.439204,206.168,0.117872
271.3000,0.618091,205.185,0.103653
271.2000,1.61904,205.823,0.112882
271.1000,0.178912,205.346,0.105983
271.0000,-0.0845991,205.792,0.11244
270.9000,-0.157042,205.524,0.108557
270.8000,0.269049,205.517,0.108459
270.7000,-0.727731,205.901,0.114012
270.6000,1.75244,205.559,0.109065
270.5000,0.907797,205.97,0.11501
270.4000,0.44305,206.491,0.122529
270.3000,2.52995,205.417,0.107016
270.2000,0.492198,205.41,0.106917
270.1000,1.22178,206.09,0.116744
270.0000,1.09362,205.609,0.109786
269.9000,-0.927801,206.528,0.123052
269.8000,1.33677,205.569,0.109213
269.7000,-0.541426,206.181,0.118052
269.6000,0.699109,206.726,0.125908
269.5000,1.30955,205.737,0.111637
269.4000,0.00234167,206.289,0.119605
269.3000,-0.390665,205.459,0.107623
269.2000,1.01407,206.133,0.117365
269.1000,0.949339,205.85,0.113275
269.0000,0.925884,206.67,0.125108
268.9000,0.107514,206.223,0.118657
268.8000,-0.0691611,206.827,0.127359
268.7000,-0.92274,206.541,0.123247
268.6000,-1.22919,206.593,0.123998
268.5000,0.321283,206.749,0.126234
268.4000,0.857295,206.977,0.129527
268.3000,0.243529,206.547,0.123329
268.2000,1.13038,206.057,0.11627
268.1000,1.41394,207.079,0.130994
268.0000,1.17493,206.538,0.123198
267.9000,0.691837,205.954,0.114781
267.8000,3.24733,206.538,0.123198
267.7000,0.778469,206.678,0.125222
267.6000,0.290213,207.474,0.136659
267.5000,1.10459,206.756,0.126348
267.4000,0.0275178,207.088,0.131124
267.3000,2.31797,206.608,0.124211
267.2000,1.35207,206.29,0.119621
267.1000,0.749083,207.104,0.131352
267.0000,-0.0339522,206.656,0.124896
266.9000,-0.494216,205.768,0.112096
266.8000,0.363949,206.625,0.124455
266.7000,0.390076,206.396,0.121157
266.6000,-0.426957,206.283,0.119523
266.5000,1.73086,207.592,0.13835
266.4000,0.605635,206.737,0.126071
266.3000,-0.0701355,206.444,0.121843
266.2000,0.642323,207.039,0.130408
266.1000,1.67769,207.297,0.13412
266.0000,1.4144,207.725,0.140268
265.9000,1.06107,206.906,0.1285
265.8000,-0.617159,206.728,0.12594
265.7000,0.13916,207.238,0.133274
265.6000,0.661482,206.959,0.129267
265.5000,-0.00234007,207.426,0.135976
265.4000,0.849398,207.095,0.131222
265.3000,1.17501,206.447,0.121892
265.2000,-0.021242,207.424,0.135943
265.1000,1.05553,207.081,0.13101
265.0000,0.125185,207.159,0.132134
264.9000,1.45254,207.269,0.133713
264.8000,-0.186144,207.511,0.137195
264.7000,0.728584,207.195,0.132655
264.6000,0.466268,207.495,0.136968
264.5000,0.8399,206.911,0.128566
264.4000,-1.02872,207.492,0.136919
264.3000,-0.119214,207.695,0.139829
264.2000,-0.663775,207.067,0.130815
264.1000,-0.630836,207.228,0.133127
264.0000,-0.681424,207.332,0.134625
263.9000,0.936452,207.241,0.133323
263.8000,0.220646,207.428,0.136008
263.7000,-0.49491,207.81,0.141486
263.6000,2.36069,208.334,0.148983
263.5000,-0.022797,207.703,0.139943
263.4000,0.292608,207.831,0.141779
263.3000,1.649,208.531,0.151803
263.2000,0.0167465,208.302,0.148529
263.1000,-0.33221,207.622,0.138789
263.0000,0.422551,208.109,0.145772
262.9000,-0.826545,207.619,0.13874
262.8000,0.603029,207.649,0.139179
262.7000,1.15409,207.671,0.139488
262.6000,0.850464,207.473,0.136642
262.5000,0.344981,208.244,0.147703
262.4000,-0.266158,207.607,0.138578
262.3000,0.785758,207.703,0.139943
262.2000,1.24855,207.238,0.133274
262.1000,0.760577,208.39,0.149794
262.0000,-0.77129,208.682,0.153957
261.9000,-0.334365,208.066,0.145156
261.8000,1.34003,208.527,0.151754
261.7000,0.692863,208.067,0.145172
261.6000,1.63059,208.094,0.145545
261.5000,1.64499,207.586,0.138269
261.4000,1.55066,208.129,0.146048
261.3000,-0.986804,208.191,0.14694
261.2000,-0.7955,207.774,0.140967
261.1000,1.50132,210.494,0.179765
261.0000,2.59645,210.079,0.173861
260.9000,1.00331,208.359,0.14934
260.8000,0.422779,208.293,0.1484
260.7000,1.11775,208.302,0.148529
260.6000,0.899064,208.232,0.147524
260.5000,1.37837,208.435,0.150426
260.4000,1.01796,208.009,0.144328
260.3000,2.57036,207.696,0.139846
260.2000,0.936663,209.049,0.159198
260.1000,0.119908,208.466,0.15088
260.0000,1.74209,209.233,0.161831
259.9000,1.64845,208.405,0.150004
259.8000,-1.16457,208.575,0.152434
259.7000,-1.75297,208.428,0.150329
259.6000,1.41491,209.531,0.166077
259.5000,0.837385,209.127,0.160313
259.4000,0.680591,209.697,0.168432
259.3000,2.25466,209.929,0.171736
259.2000,1.22226,208.65,0.153503
259.1000,2.18054,209.59,0.166916
259.0000,0.431684,209.357,0.163592
258.9000,-0.443441,209.07,0.159505
258.8000,1.34878,209.023,0.158826
258.7000,1.33433,209.089,0.15978
258.6000,0.979139,208.876,0.15674
258.5000,2.60708,209.783,0.169657
258.4000,-0.190023,209.198,0.161331
258.3000,2.00946,209.211,0.161508
258.2000,-0.591704,208.971,0.158082
258.1000,0.912571,208.801,0.155656
258.0000,-0.243581,209.287,0.162591
257.9000,-0.702566,210.306,0.177096
257.8000,0.156995,209.389,0.164044
257.7000,0.558419,209.949,0.172026
257.6000,-0.393589,209.963,0.172219
257.5000,-0.151583,209.378,0.163899
257.4000,-1.28609,209.489,0.16548
257.3000,-0.143256,208.377,0.149599
257.2000,-1.81933,208.785,0.155429
257.1000,1.32389,209.223,0.161686
257.0000,-1.4338,208.342,0.149097
256.9000,0.994753,208.997,0.158454
256.8000,0.433697,209.471,0.165222
256.7000,-1.34739,209.761,0.169351
256.6000,-0.246147,210.965,0.18643
256.5000,0.329794,209.649,0.167755
256.4000,-0.429877,209.58,0.166771
256.3000,2.0469,208.743,0.154831
256.2000,1.79676,209.936,0.171832
256.1000,0.26746,209.506,0.165722
256.0000,0.108915,210.713,0.182866
255.9000,0.0460267,210.215,0.175793
255.8000,0.298272,209.912,0.171494
255.7000,2.37503,210.371,0.178013
255.6000,-0.0501265,210.061,0.173604
255.5000,1.71078,211.051,0.187649
255.4000,1.20691,210.543,0.180456
255.3000,0.0196606,209.438,0.164754
255.2000,1.48162,210.318,0.177257
255.1000,0.88358,210.904,0.185563
255.0000,0.603838,211.225,0.190118
254.9000,0.257649,210.652,0.181999
254.8000,-0.76244,210.688,0.182513
254.7000,1.53831,210.235,0.176083
254.6000,0.741342,210.457,0.179235
254.5000,-0.209154,210.446,0.179074
254.4000,-0.784613,211.248,0.190438
254.3000,1.08428,210.809,0.184231
254.2000,0.405796,211.005,0.187007
254.1000,1.19702,211.505,0.194074
254.0000,-1.4121,210.853,0.184841
253.9000,-0.714328,209.999,0.172734
253.8000,-0.0101095,212.452,0.207434
253.7000,0.0794196,211.742,0.197419
253.6000,1.14652,211.655,0.196187
253.5000,0.326344,210.608,0.181372
253.4000,0.479938,211.158,0.189172
253.3000,0.266996,211.296,0.191111
253.2000,-0.017698,210.686,0.182481
253.1000,1.42419,210.999,0.186911
253.0000,-0.896597,211.249,0.190454
252.9000,0.189824,211.503,0.194042
252.8000,0.45962,211.792,0.198123
252.7000,1.79444,210.866,0.185033
252.6000,0.125318,211.735,0.197323
252.5000,-0.742627,211.769,0.197803
252.4000,0.409617,210.964,0.186414
252.3000,0.712937,210.483,0.179605
252.2000,0.745812,211.428,0.192986
252.1000,0.591127,211.635,0.195915
252.0000,1.50273,211.124,0.188691
251.9000,0.865081,211.078,0.188034
251.8000,0.312501,211.292,0.191063
251.7000,-0.529022,211.811,0.198394
251.6000,0.0491566,212.29,0.205152
251.5000,-1.59753,211.165,0.189268
251.4000,2.36574,212.446,0.207338
251.3000,1.84054,212.309,0.205408
251.2000,-0.360133,211.254,0.190518
251.1000,-1.12395,211.416,0.192809
251.0000,1.09904,211.651,0.196139
250.9000,1.77007,212.101,0.202486
250.8000,0.384852,211.839,0.198794
250.7000,0.966013,212.863,0.213204
250.6000,0.279643,212.298,0.205264
250.5000,-0.917153,214.004,0.229206
250.4000,-1.40108,211.864,0.199146
250.3000,0.0248989,212.048,0.201735
250.2000,1.39889,212.333,0.205759
250.1000,0.504665,212.779,0.212025
250.0000,1.30785,213.184,0.217724
249.9000,0.757964,212.648,0.210193
249.8000,-0.0905686,210.322,0.177321
249.7000,0.185314,212.18,0.203604
249.6000,-0.435046,212.358,0.20611
249.5000,-0.929477,212.302,0.205312
249.4000,-0.573265,212.851,0.213045
249.3000,0.580181,212.536,0.208614
249.2000,0.767452,212.769,0.211882
249.1000,3.20023,212.461,0.207562
249.0000,-0.722409,211.54,0.194571
248.9000,-0.389055,212.018,0.20132
248.8000,0.636692,212.655,0.210288
248.7000,1.86329,212.799,0.212312
248.6000,2.04448,213.991,0.229032
248.5000,0.204401,212.003,0.201096
248.4000,0.210926,212.02,0.201336
248.3000,1.15652,213.631,0.223986
248.2000,0.54633,212.792,0.212216
248.1000,0.9662,212.962,0.214605
248.0000,2.0169,213.448,0.221428
247.9000,1.89623,213.596,0.223493
247.8000,1.27969,213.346,0.219998
247.7000,0.462581,212.788,0.212153
247.6000,0.15453,212.438,0.207227
247.5000,0.656422,212.519,0.208375
247.4000,2.67641,212.919,0.214
247.3000,0.693641,212.792,0.212216
247.2000,1.05058,213.408,0.220856
247.1000,3.43364,213.284,0.219123
247.0000,1.69986,212.781,0.212057
246.9000,0.730529,213.318,0.2196
246.8000,1.57078,213.821,0.226652
246.7000,0.863602,212.97,0.214717
246.6000,-0.894964,213.476,0.22181
246.5000,0.569159,213.42,0.221031
246.4000,-0.866141,213.325,0.219696
246.3000,-1.41699,212.98,0.21486
246.2000,-0.0392282,212.892,0.213618
246.1000,1.59722,213.615,0.223764
246.0000,1.74703,212.856,0.213109
245.9000,-0.327262,213.05,0.215831
245.8000,0.127288,214.336,0.233849
245.7000,0.618986,214.36,0.234197
245.6000,-0.942874,214.598,0.237521
245.5000,0.805082,213.846,0.227001
245.4000,-1.07572,213.384,0.220523
245.3000,-1.25689,213.614,0.223747
245.2000,0.452673,213.974,0.228794
245.1000,1.34395,214.089,0.230395
245.0000,-0.290466,213.746,0.225605
244.9000,0.94915,213.911,0.227906
244.8000,-0.87325,213.267,0.218885
244.7000,0.284044,214.027,0.229539
244.6000,2.69495,214.321,0.233643
244.5000,0.670494,213.832,0.226811
244.4000,1.06317,215.106,0.244601
244.3000,0.466382,214.099,0.230538
244.2000,2.14113,214.635,0.238027
244.1000,0.554883,213.607,0.223652
244.0000,0.233481,213.932,0.228207
243.9000,0.669813,214.589,0.237395
243.8000,0.541623,213.225,0.218297
243.7000,0.719665,214.193,0.231853
243.6000,-0.0817503,213.842,0.226938
243.5000,-0.491096,214.058,0.229967
243.4000,0.287652,213.967,0.228699
243.3000,1.58529,214.536,0.236651
243.2000,2.68159,214.585,0.237331
243.1000,1.0672,215.164,0.245406
243.0000,0.992751,214.68,0.23866
242.9000,1.33663,214.074,0.230189
242.8000,-0.00628175,214.995,0.243054
242.7000,1.00479,214.891,0.2416
242.6000,0.395969,213.821,0.226652
242.5000,0.00476803,214.388,0.234577
242.4000,0.0348814,214.712,0.239103
242.3000,2.55087,214.577,0.23722
242.2000,0.852029,214.262,0.23282
242.1000,0.554629,214.971,0.242722
242.0000,-0.94575,215.879,0.255353
241.9000,-0.525082,215.66,0.252314
241.8000,0.475497,214.453,0.235496
241.7000,0.326088,215.656,0.252251
241.6000,-0.878386,216.109,0.258548
241.5000,-0.181846,215.541,0.250659
241.4000,0.90407,215.184,0.245691
241.3000,1.57488,215.25,0.246606
241.2000,-1.83103,215.523,0.250407
241.1000,-0.00320042,215.565,0.25099
241.0000,4.42395,216.153,0.259161
240.9000,1.72561,215.711,0.253023
240.8000,-0.544029,215.52,0.25036
240.7000,1.69953,215.955,0.256408
240.6000,1.09466,216.109,0.258548
240.5000,0.59606,216.201,0.259822
240.4000,0.153476,215.884,0.255432
240.3000,1.40544,216.049,0.257714
240.2000,-0.490811,215.799,0.254251
240.1000,0.78527,215.931,0.256078
240.0000,1.57524,215.811,0.254409
239.9000,2.57436,217.856,0.282721
239.8000,1.13189,217.166,0.273193
239.7000,0.0975666,217.073,0.271908
239.6000,0.15514,215.61,0.251621
239.5000,0.78318,215.879,0.255353
239.4000,0.884795,216.504,0.264033
239.3000,1.26057,217.03,0.271313
239.2000,0.71662,216.95,0.2702
239.1000,0.143803,216.919,0.269777
239.0000,-1.33066,216.921,0.269808
238.9000,2.13705,217.435,0.276904
238.8000,0.945038,217.238,0.274196
238.7000,0.89023,217.414,0.276622
238.6000,0.782002,216.807,0.268224
238.5000,0.30173,216.933,0.269965
238.4000,-1.02867,217.708,0.280674
238.3000,0.182403,217.219,0.27393
238.2000,-0.194662,217.956,0.284096
238.1000,0.494748,217.966,0.284237
238.0000,0.558214,218.05,0.285392
237.9000,0.810402,217.403,0.276466
237.8000,-0.478633,217.644,0.279798
237.7000,0.645355,218.032,0.285142
237.6000,1.38527,219.111,0.299992
237.5000,-0.414878,219.373,0.303583
237.4000,0.760341,219.015,0.29867
237.3000,0.550066,218.275,0.288498
237.2000,-1.71711,218.28,0.28856
237.1000,1.07313,218.134,0.286547
237.0000,2.47195,218.744,0.29495
236.9000,1.27206,217.61,0.279329
236.8000,0.222571,219.507,0.305416
236.7000,2.82176,218.645,0.29358
236.6000,-0.18738,218.408,0.290323
236.5000,-0.258203,219.689,0.307915
236.4000,0.88305,219.281,0.302324
236.3000,0.82105,219.011,0.298608
236.2000,1.62727,218.79,0.295573
236.1000,-0.723866,218.227,0.287827
236.0000,0.392976,220.073,0.313171
235.9000,0.649949,218.265,0.288357
235.8000,-0.0640396,219.834,0.3099
235.7000,1.11599,220.537,0.319503
235.6000,0.449661,220.001,0.312179
235.5000,2.04342,219.855,0.310179
235.4000,1.4827,220.135,0.314008
235.3000,1.24992,219.659,0.307496
235.2000,0.40784,217.616,0.279407
235.1000,1.04504,219.609,0.306813
235.0000,-0.499016,220.669,0.321312
234.9000,-0.67732,219.906,0.310877
234.8000,-0.103291,220.238,0.315417
234.7000,0.906694,220.787,0.32292
234.6000,0.735424,220.302,0.3163
234.5000,-0.0454322,220.649,0.321034
234.4000,0.356647,220.47,0.31859
234.3000,1.97028,221.192,0.328433
234.2000,2.30816,220.976,0.3255
234.1000,1.8634,221.171,0.328155
234.0000,0.276445,221.14,0.327723
233.9000,-0.594021,222.113,0.340956
233.8000,0.334518,221.034,0.326287
233.7000,2.74337,220.93,0.324867
233.6000,-0.440872,220.732,0.322163
233.5000,0.0808026,221.166,0.328078
233.4000,0.704875,220.248,0.315556
233.3000,1.35929,221.154,0.327923
233.2000,2.24638,222.434,0.345305
233.1000,-0.946171,223.16,0.355137
233.0000,2.09272,221.698,0.335323
232.9000,1.05091,222.136,0.341264
232.8000,0.0641206,223.34,0.357572
232.7000,-0.0275379,221.728,0.335724
232.6000,1.75929,222.093,0.340679
232.5000,-0.356733,221.452,0.33198
232.4000,0.904815,221.79,0.336571
232.3000,-0.12038,222.465,0.345735
232.2000,-0.473242,221.591,0.33386
232.1000,-0.719035,222.087,0.340602
232.0000,-0.072484,222.673,0.348544
231.9000,2.97947,223.273,0.356668
231.8000,-0.28841,222.57,0.347148
231.7000,1.50595,223.635,0.36155
231.6000,1.47086,223.861,0.364607
231.5000,0.717287,222.738,0.349434
231.4000,0.295904,222.273,0.343123
231.3000,-1.01421,222.627,0.34793
231.2000,1.20066,223.525,0.360066
231.1000,1.0659,222.831,0.350692
231.0000,0.555473,223.793,0.36369
230.9000,0.0440156,223.95,0.365798
230.8000,0.52604,222.885,0.351413
230.7000,1.25225,222.202,0.34217
230.6000,2.86807,224.241,0.369721
230.5000,1.95958,222.628,0.347946
230.4000,-0.860037,224.192,0.369065
230.3000,-1.58492,223.745,0.363033
230.2000,-1.39349,223.589,0.360938
230.1000,1.41589,223.247,0.356316
230.0000,-0.203461,224.354,0.371247
229.9000,0.682241,224.785,0.377037
229.8000,0.564209,224.482,0.37297
229.7000,2.27146,223.759,0.363231
229.6000,-0.736919,223.902,0.365156
229.5000,0.684113,225.163,0.382119
229.4000,-0.304827,224.183,0.368943
229.3000,0.457055,224.814,0.377433
229.2000,4.16168,224.532,0.37364
229.1000,2.25999,224.356,0.371277
229.0000,0.889174,223.853,0.3645
228.9000,0.691149,224.418,0.3721
228.8000,0.372383,226.515,0.400215
228.7000,-0.416225,224.45,0.372543
228.6000,0.561236,226.858,0.404796
228.5000,-0.284101,224.321,0.370804
228.4000,0.312929,224.666,0.375438
228.3000,1.45794,225.027,0.380294
228.2000,0.197095,226.02,0.393597
228.1000,-0.625457,226.216,0.396218
228.0000,1.12744,226.627,0.401712
227.9000,1.25295,226.028,0.393703
227.8000,0.71576,225.493,0.386541
227.7000,1.96183,226.336,0.397823
227.6000,-1.13844,226.936,0.405839
227.5000,0.723514,226.599,0.401334
227.4000,1.57008,226.829,0.404403
227.3000,0.398496,227.317,0.410911
227.2000,-1.35627,226.986,0.406504
227.1000,-0.714218,227.078,0.407727
227.0000,0.222982,227.556,0.414093
226.9000,-1.1295,226.913,0.405522
226.8000,2.19506,227.489,0.413204
226.7000,-0.0811083,226.95,0.40602
226.6000,1.09351,227.723,0.416308
226.5000,-0.451414,227.564,0.414199
226.4000,-0.427843,227.803,0.417378
226.3000,0.321485,228.015,0.420193
226.2000,1.40077,228.279,0.423698
226.1000,1.34102,228.108,0.421427
226.0000,2.53249,228.625,0.42828
225.9000,0.432224,227.861,0.418146
225.8000,-0.935171,228.833,0.431042
225.7000,1.3331,228.908,0.432032
225.6000,0.955043,228.346,0.424584
225.5000,-0.0746595,229.161,0.435375
225.4000,-1.065,229.63,0.441574
225.3000,0.310057,229.03,0.433652
225.2000,2.33978,228.826,0.430952
225.1000,1.11202,229.749,0.443145
225.0000,2.79037,229.058,0.434011
224.9000,0.367804,229.417,0.438761
224.8000,0.999664,229.523,0.440168
224.7000,-2.15215,230.126,0.448121
224.6000,1.47178,230.103,0.447823
224.5000,2.22718,230.302,0.450435
224.4000,-1.12296,229.391,0.438416
224.3000,-0.309098,231.053,0.460317
224.2000,-1.96256,229.726,0.442846
224.1000,1.53817,231.223,0.46255
224.0000,1.47702,229.772,0.443459
223.9000,3.20712,230.547,0.453673
223.8000,1.91308,230.947,0.458933
223.7000,-0.256991,230.433,0.452166
223.6000,1.13039,231.133,0.461374
223.5000,-0.162406,229.743,0.44307
223.4000,2.52709,230.705,0.455745
223.3000,-0.985223,231.177,0.461954
223.2000,0.301339,230.795,0.456922
223.1000,0.736327,231.575,0.467173
223.0000,-0.822697,232.246,0.475958
222.9000,0.819741,230.604,0.454418
222.8000,1.43386,231.435,0.46533
222.7000,-0.582922,231.389,0.464735
222.6000,-1.1388,232.457,0.478713
222.5000,1.28286,232.05,0.473393
222.4000,2.0542,231.509,0.466311
222.3000,1.05942,232.613,0.480757
222.2000,0.673305,231.758,0.469564
222.1000,1.02989,232.968,0.485387
222.0000,0.980777,232.436,0.478447
221.9000,0.324344,232.559,0.480046
221.8000,1.7034,232.708,0.482
221.7000,-0.771204,232.942,0.485047
221.6000,1.00022,232.75,0.482547
221.5000,0.431783,232.723,0.482192
221.4000,2.10787,232.593,0.48049
221.3000,-1.06308,233.674,0.494586
221.2000,-1.38911,233.084,0.486909
221.1000,-0.745452,233.361,0.490513
221.0000,-0.514697,233.828,0.496591
220.9000,0.964787,233.899,0.497519
220.8000,1.52272,233.521,0.492594
220.7000,-0.274101,233.66,0.494409
220.6000,-0.335598,233.27,0.489332
220.5000,1.52345,233.075,0.486791
220.4000,1.03318,234.384,0.50382
220.3000,0.968343,234.204,0.501481
220.2000,1.54163,234.323,0.503026
220.1000,0.17098,234.56,0.5061
220.0000,0.585956,234.648,0.507246
219.9000,2.52068,233.898,0.497504
219.8000,-1.1159,233.622,0.493907
219.7000,-0.118303,234.211,0.501569
219.6000,2.35846,234.701,0.507937
219.5000,1.25463,234.526,0.505659
219.4000,-1.61288,235.223,0.51469
219.3000,-0.70202,235.528,0.518647
219.2000,1.18955,235.705,0.520932
219.1000,5.29981,235.604,0.519629
219.0000,1.14121,235.891,0.523333
218.9000,1.73088,236.429,0.530276
218.8000,2.3013,235.405,0.51705
218.7000,0.230058,235.515,0.518471
218.6000,3.6826,235.32,0.515951
218.5000,2.12369,235.485,0.518091
218.4000,1.67514,235.887,0.523274
218.3000,0.0610165,235.873,0.523098
218.2000,-0.0260872,236.296,0.528553
218.1000,1.17426,235.921,0.523713
218.0000,0.66333,236.23,0.527705
217.9000,1.45357,236.817,0.535268
217.8000,0.0596654,236.868,0.535924
217.7000,0.0242701,236.676,0.533459
217.6000,2.57722,237.082,0.538679
217.5000,2.49918,236.652,0.533152
217.4000,1.74841,237.609,0.545448
217.3000,1.84503,236.809,0.535166
217.2000,-1.4511,237.201,0.540209
217.1000,2.4437,237.157,0.539641
217.0000,2.65615,237.22,0.540456
216.9000,2.05631,237.797,0.547862
216.8000,3.64061,237.332,0.541898
216.7000,0.515413,237.316,0.541694
216.6000,0.215857,238.746,0.560023
216.5000,3.53985,238.388,0.555441
216.4000,0.791003,238.304,0.554368
216.3000,-0.40997,238.3,0.55431
216.2000,0.775806,239.411,0.568517
216.1000,-2.38208,238.601,0.558168
216.0000,1.8825,238.354,0.555006
215.9000,2.52169,238.354,0.555006
215.8000,2.01461,238.277,0.55402
215.7000,0.336099,238.963,0.562789
215.6000,0.781052,238.636,0.558617
215.5000,0.549533,238.179,0.552757
215.4000,1.83973,240.584,0.583446
215.3000,1.00133,239.046,0.563845
215.2000,3.86425,239.196,0.565769
215.1000,1.44967,240.124,0.577597
215.0000,-0.370815,239.84,0.573976
214.9000,-3.17626,238.805,0.560776
214.8000,0.146443,239.313,0.567259
214.7000,-1.49985,241.884,0.599921
214.6000,-0.802643,239.687,0.572028
214.5000,0.977282,240.644,0.584209
214.4000,-1.18784,239.796,0.573413
214.3000,-0.384023,241.342,0.593065
214.2000,1.65994,240.251,0.579212
214.1000,2.6227,240.44,0.581618
214.0000,1.20035,240.121,0.577554
213.9000,-0.750913,240.899,0.587446
213.8000,0.455211,240.419,0.581344
213.7000,1.51317,241.222,0.591542
213.6000,0.242849,240.83,0.586569
213.5000,-0.262919,240.58,0.583389
213.4000,-0.0970312,241.764,0.598402
213.3000,-1.38499,241.224,0.591571
213.2000,0.687076,241.286,0.592347
213.1000,0.74391,241.372,0.593438
213.0000,3.44499,241.692,0.597499
212.9000,1.61601,241.19,0.59114
212.8000,0.600777,241.337,0.592993
212.7000,1.29166,241.555,0.595763
212.6000,0.239346,241.801,0.598875
212.5000,2.01104,241.961,0.600896
212.4000,1.51279,242.301,0.605192
212.3000,-0.0989899,242.126,0.602987
212.2000,0.184054,242.88,0.612498
212.1000,1.54151,242.575,0.608654
212.0000,2.20684,243.551,0.620944
211.9000,0.453022,242.967,0.613598
211.8000,1.79105,243.586,0.621386
211.7000,1.35319,243.319,0.618036
211.6000,1.26224,243.385,0.618863
211.5000,3.60981,243.27,0.617408
211.4000,0.966962,243.74,0.623323
211.3000,1.49737,243.077,0.614982
211.2000,3.80273,243.293,0.617707
211.1000,-0.432043,244.092,0.627749
211.0000,0.979146,244.445,0.63217
210.9000,0.0607237,243.606,0.621642
210.8000,3.30557,244.111,0.627991
210.7000,1.10007,244.409,0.63173
210.6000,2.33141,244.422,0.631886
210.5000,2.6728,244.857,0.637338
210.4000,-0.673441,244.498,0.632838
210.3000,2.84464,245.123,0.640671
210.2000,-1.17858,245.391,0.644015
210.1000,1.61373,245.365,0.643689
210.0000,0.399193,245.763,0.648671
209.9000,2.01124,244.914,0.638048
209.8000,1.4838,245.393,0.644043
209.7000,4.48422,246.149,0.653477
209.6000,-1.6946,246.001,0.65164
209.5000,0.0964146,246.527,0.658192
209.4000,1.45157,246.192,0.654014
209.3000,2.74663,246.026,0.651951
209.2000,3.01603,246.934,0.663253
209.1000,0.606498,246.994,0.664
209.0000,0.516497,247.108,0.665423
208.9000,-1.9111,246.456,0.657303
208.8000,0.400724,246.33,0.655736
208.7000,3.84302,248.564,0.683472
208.6000,1.3731,247.575,0.671219
208.5000,2.58242,247.257,0.667267
208.4000,0.465188,247.779,0.673749
208.3000,0.562408,247.124,0.665619
208.2000,1.13093,247.259,0.667295
208.1000,2.10115,248.319,0.68043
208.0000,-0.107811,248.1,0.677723
207.9000,1.4885,248.715,0.685335
207.8000,0.128357,248.232,0.679364
207.7000,1.87401,249.09,0.689968
207.6000,2.87031,249.406,0.693869
207.5000,-1.52689,249.09,0.689968
207.4000,-3.00247,249.388,0.693645
207.3000,0.0126152,250.011,0.701323
207.2000,1.46666,249.501,0.695042
207.1000,2.5682,249.724,0.697779
207.0000,2.65987,249.753,0.698142
206.9000,-1.18038,250.218,0.70386
206.8000,-0.094222,250.752,0.710432
206.7000,2.00157,250.428,0.706451
206.6000,0.495221,250.574,0.708247
206.5000,-1.22652,250.795,0.71096
206.4000,-0.694803,251.133,0.715103
206.3000,-0.401307,251.95,0.725106
206.2000,1.59308,250.658,0.709277
206.1000,0.389983,251.761,0.722792
206.0000,3.99863,252.429,0.730963
205.9000,1.35642,252.443,0.731129
205.8000,1.10141,252.476,0.73153
205.7000,3.40053,252.407,0.730686
205.6000,1.8811,251.845,0.723818
205.5000,0.560901,252.881,0.736479
205.4000,-1.2397,253.545,0.744565
205.3000,0.512021,252.711,0.734406
205.2000,2.39271,252.911,0.736838
205.1000,4.19338,253.174,0.740041
205.0000,0.672213,254.792,0.759696
204.9000,-0.779787,253.816,0.747858
204.8000,4.46323,254.477,0.755878
204.7000,3.65686,254.41,0.755067
204.6000,-1.6839,255.293,0.765759
204.5000,4.043,254.138,0.751767
204.4000,0.921966,255.252,0.765266
204.3000,1.78224,255.751,0.771306
204.2000,1.5562,255.136,0.763867
204.1000,1.35458,255.093,0.763346
204.0000,-1.31971,256.006,0.774384
203.9000,0.0518218,254.899,0.761
203.8000,2.022,255.778,0.771621
203.7000,-0.874813,256.415,0.779317
203.6000,-0.655431,257.177,0.788482
203.5000,0.561362,256.512,0.780477
203.4000,1.2797,257.223,0.789041
203.3000,1.74686,257.964,0.797938
203.2000,-0.198955,256.968,0.785975
203.1000,1.62211,257.848,0.796538
203.0000,1.05853,257.411,0.791301
202.9000,0.812363,257.236,0.78919
202.8000,2.18405,259.019,0.810567
202.7000,-1.65728,257.648,0.794145
202.6000,-1.90931,258.543,0.804875
202.5000,2.26198,259.16,0.812246
202.4000,2.03673,259.184,0.81253
202.3000,3.19368,259.702,0.818724
202.2000,0.299026,259.374,0.814803
202.1000,4.4246,259.176,0.812435
202.0000,-0.014127,259.63,0.817859
201.9000,3.11976,260.37,0.826674
201.8000,0.772702,260.374,0.826728
201.7000,3.65167,260.561,0.828952
201.6000,3.40867,260.424,0.827321
201.5000,2.71817,261.039,0.834634
201.4000,0.829476,261.268,0.837351
201.3000,-2.34084,261.382,0.838695
201.2000,-0.468424,261.254,0.837176
201.1000,-0.246122,262.489,0.851804
201.0000,0.340597,262.392,0.850665
200.9000,1.33937,262.434,0.851161
200.8000,1.57164,263.008,0.857933
200.7000,4.39748,263.074,0.858722
200.6000,2.50752,262.963,0.857411
200.5000,1.70871,264.051,0.870228
200.4000,-0.692227,264.363,0.873891
200.3000,-0.0247547,263.752,0.866708
200.2000,0.60441,265.48,0.886996
200.1000,4.81239,265.368,0.885683
200.0000,2.3526,265.226,0.884023
199.9000,1.54012,265.441,0.886545
199.8000,-0.592484,265.864,0.891491
199.7000,2.64007,267.105,0.905974
199.6000,0.298366,266.594,0.900016
199.5000,3.08666,265.827,0.891054
199.4000,4.25088,266.324,0.896868
199.3000,0.0813607,267.376,0.909128
199.2000,-0.733165,266.72,0.901483
199.1000,0.513854,267.101,0.905935
199.0000,2.76736,266.737,0.901682
198.9000,1.89322,267.446,0.909946
198.8000,2.4192,268.893,0.926748
198.7000,0.705282,267.974,0.916086
198.6000,2.17326,269.226,0.930606
198.5000,7.36503,268.322,0.920126
198.4000,4.30513,269.277,0.931196
198.3000,-0.894637,268.927,0.927142
198.2000,-0.463019,270.053,0.940167
198.1000,-1.76448,269.797,0.937209
198.0000,3.90104,269.462,0.933332
197.9000,3.72559,270.226,0.942168
197.8000,0.821526,270.402,0.944194
197.7000,0.93198,271.768,0.95992
197.6000,2.36693,271.439,0.956131
197.5000,1.67644,271.25,0.953956
197.4000,-0.0687144,270.743,0.948125
197.3000,-3.94157,271.694,0.959061
197.2000,0.399969,271.508,0.956926
197.1000,0.809732,271.23,0.953734
197.0000,2.7983,272.022,0.962834
196.9000,2.52876,271.504,0.956887
196.8000,1.12424,272.14,0.964186
196.7000,-1.11574,272.601,0.969472
196.6000,5.18195,272.482,0.968109
196.5000,4.74891,272.244,0.965381
196.4000,2.69007,274.496,0.991112
196.3000,2.88315,273.623,0.981162
196.2000,0.558982,274.247,0.988271
196.1000,0.836308,276.292,1.01151
196.0000,3.42999,274.012,0.985597
195.9000,2.34446,275.872,1.00676
195.8000,1.73844,275.627,1.00397
195.7000,0.355857,275.661,1.00435
195.6000,0.209629,276.76,1.01681
195.5000,-2.15832,277.2,1.02179
195.4000,0.513318,277.514,1.02533
195.3000,3.69488,276.848,1.01781
195.2000,4.89215,277.93,1.03003
195.1000,3.70198,278.192,1.03297
195.0000,2.744,277.199,1.02178
194.9000,2.78171,277.782,1.02835
194.8000,-0.00929232,279.942,1.05264
194.7000,-0.681636,278.605,1.03763
194.6000,5.63571,280.052,1.05387
194.5000,2.88387,280.111,1.05453
194.4000,6.08285,280.583,1.05981
194.3000,1.46227,280.124,1.05467
194.2000,1.25007,282.261,1.07853
194.1000,0.503789,280.547,1.05941
194.0000,3.73856,281.522,1.0703
193.9000,3.07852,283.953,1.09732
193.8000,0.880257,284.169,1.0997
193.7000,0.673111,284.316,1.10133
193.6000,1.01514,286.556,1.12603
193.5000,3.24203,284.204,1.10009
193.4000,-0.108137,284.162,1.09963
193.3000,3.5064,286.118,1.12121
193.2000,3.99154,286.78,1.1285
193.1000,-0.931229,287.117,1.13219
193.0000,2.30801,286.492,1.12532
192.9000,-1.43297,287.796,1.13963
192.8000,4.16042,288.545,1.14782
192.7000,4.94589,288.954,1.15229
192.6000,3.75615,289.93,1.16293
192.5000,4.20443,291.425,1.17916
192.4000,0.0596571,291.876,1.18405
192.3000,2.58265,292.373,1.18943
192.2000,2.23115,293.255,1.19894
192.1000,-1.7162,293.389,1.20038
192.0000,2.30676,294.116,1.20821
191.9000,-1.85089,295.758,1.22583
191.8000,5.80529,296.359,1.23226
191.7000,0.463715,296.616,1.235
191.6000,2.83855,297.889,1.24857
191.5000,3.86377,298.945,1.25979
191.4000,-1.41987,301.117,1.28277
191.3000,0.183867,299.457,1.26522
191.2000,-2.32315,302.14,1.29354
191.1000,1.55148,301.423,1.28599
191.0000,0.604931,304.19,1.31503
190.9000,2.28124,304.879,1.32223
190.8000,-0.769776,305.576,1.3295
190.7000,1.84293,306.773,1.34195
190.6000,-1.7462,308.847,1.36342
190.5000,-1.5091,309.974,1.37504
190.4000,-2.40844,311.026,1.38585
190.3000,0.565396,312.804,1.40405
190.2000,-0.984603,312.936,1.40541
190.1000,1.29237,315.234,1.4288
190.0000,1.73231,316.087,1.43745

##### Extended Information
[Comments]
Sample name,SL_IM_Buff
Comment
User,Lahoff
Division
Company,Saint Mary's College

[Detailed Information]
Creation date,9/27/2022 5:02 PM

Data array type,Linear data array * 3
Horizontal axis,Wavelength [nm]
Vertical axis(1),CD [mdeg]
Vertical axis(2),HT [V]
Vertical axis(3),Abs
Start,320 nm
End,190 nm
Data interval,0.1 nm
Data points,1301    

[Measurement Information]
Instrument name,J-1500
Model name,J-1500
Serial No.,B051061638

Detector,PM-539
Detector S/N,B051061638
  Lock-in amp.,X mode
  HT volt,Auto

Accessory,PTC-517
Accessory S/N,B026561646
  Temperature,21.81 C
  Control sensor,Holder
  Monitor sensor,Holder

Measurement date,9/27/2022 5:02 PM

CD Overload detect,1272
Photometric mode,CD, HT, Abs
Measure range,320 - 190 nm
Data pitch,0.1 nm
CD scale,20 mdeg/0.05 dOD
FL scale,20 mdeg/0.05 dOD
D.I.T.,8 msec
Bandwidth,2.00 nm
Start mode,Immediately
Scanning mode,Continuous
Scanning speed,100 nm/min
Baseline correction,None
Shutter control,Auto
No. of cycle,1/1
N2 Flowmeter,Manual

Solvent,KCl buffer

