TITLE,SL_IM_Buff
DATA TYPE,
ORIGIN,JASCO
OWNER,
DATE,22/09/27
TIME,16:59:05
SPECTROMETER/DATA SYSTEM,
LOCALE,1033
RESOLUTION,
DELTAX,-0.1
XUNITS,NANOMETERS
YUNITS,CD [mdeg]
Y2UNITS,HT [V]
Y3UNITS,ABSORBANCE
FIRSTX,  320.0000
LASTX,  190.0000
NPOINTS,    1301
FIRSTY,     2.84346
MAXY,     9.65715
MINY,    -7.07339
XYDATA
320.0000,2.84346,206.88,0.128126
319.9000,2.66958,207.961,0.143646
319.8000,0.930973,206.472,0.122252
319.7000,0.855243,206.882,0.128158
319.6000,-0.369108,207.036,0.130375
319.5000,2.02983,207.296,0.134104
319.4000,0.520418,207.107,0.131385
319.3000,2.31741,207.321,0.134462
319.2000,0.157357,207.009,0.129984
319.1000,1.22729,206.762,0.12643
319.0000,1.58792,207.294,0.134072
318.9000,2.55743,207.334,0.134658
318.8000,-0.995195,207.149,0.131988
318.7000,1.43034,207.121,0.131597
318.6000,1.71485,207.607,0.138578
318.5000,0.187078,207.181,0.13246
318.4000,-0.427599,207.585,0.138252
318.3000,3.25146,207.243,0.133339
318.2000,0.445901,207.453,0.136366
318.1000,0.611062,207.377,0.135276
318.0000,0.583881,207.222,0.133046
317.9000,0.910948,207.147,0.131971
317.8000,2.04816,206.537,0.123182
317.7000,0.581297,207.306,0.134251
317.6000,0.911947,206.822,0.127294
317.5000,0.534374,207.231,0.133176
317.4000,0.492034,207.173,0.132346
317.3000,1.01638,207.027,0.130245
317.2000,1.79694,207.059,0.130701
317.1000,1.73095,206.583,0.123851
317.0000,1.17963,207.308,0.134283
316.9000,2.26675,207.253,0.133486
316.8000,2.75642,207.005,0.129919
316.7000,1.55243,206.795,0.126903
316.6000,2.16877,207.658,0.139309
316.5000,-1.2823,206.928,0.12881
316.4000,-1.19256,206.293,0.11967
316.3000,2.96763,206.76,0.126397
316.2000,-0.280989,207.04,0.130424
316.1000,2.08548,206.81,0.127115
316.0000,0.195796,207.469,0.136594
315.9000,0.0580903,206.778,0.126658
315.8000,0.0574285,205.793,0.112456
315.7000,1.12774,207.175,0.132362
315.6000,1.42401,207.39,0.135455
315.5000,2.04533,207.326,0.134544
315.4000,2.05646,206.609,0.124227
315.3000,2.71866,206.639,0.124651
315.2000,-0.207806,206.796,0.126919
315.1000,0.768709,206.361,0.120651
315.0000,0.80696,206.387,0.121027
314.9000,1.05369,206.72,0.125826
314.8000,2.13373,206.582,0.123835
314.7000,1.30023,206.58,0.123803
314.6000,1.18034,206.973,0.129462
314.5000,2.33742,206.347,0.120455
314.4000,0.761768,206.405,0.121288
314.3000,0.974389,206.565,0.12359
314.2000,-0.121183,206.737,0.126071
314.1000,-0.653507,206.975,0.129495
314.0000,0.66172,205.543,0.108836
313.9000,1.43614,206.889,0.128256
313.8000,2.23677,206.591,0.123966
313.7000,2.07272,205.811,0.112718
313.6000,0.215561,206.385,0.120994
313.5000,1.27314,206.974,0.129478
313.4000,0.768297,206.078,0.116564
313.3000,0.976831,206.515,0.122872
313.2000,1.46685,206.259,0.11918
313.1000,1.24173,206.658,0.124929
313.0000,1.9897,206.485,0.122431
312.9000,-0.141344,206.323,0.120095
312.8000,1.42504,206.419,0.121484
312.7000,0.213256,206.676,0.12519
312.6000,1.64722,206.028,0.115844
312.5000,-0.00380554,206.211,0.118494
312.4000,1.76276,206.485,0.122431
312.3000,1.50279,206.803,0.127017
312.2000,1.36198,206.128,0.117284
312.1000,1.93227,206.871,0.127995
312.0000,0.325914,206.517,0.122905
311.9000,0.746763,206.565,0.12359
311.8000,0.00297533,206.737,0.126071
311.7000,2.85583,206.559,0.123509
311.6000,-0.571841,205.452,0.107524
311.5000,1.51756,206.037,0.115975
311.4000,1.16311,207.222,0.133046
311.3000,-0.0165083,206.84,0.127555
311.2000,1.67203,207.167,0.132248
311.1000,0.693482,206.02,0.11573
311.0000,0.879434,206.97,0.129414
310.9000,1.71786,207.418,0.135862
310.8000,-0.0788851,206.444,0.121843
310.7000,0.720372,207.04,0.130424
310.6000,0.952452,207.565,0.137976
310.5000,2.19153,206.992,0.129739
310.4000,-0.0594115,206.285,0.119556
310.3000,1.25321,206.687,0.125353
310.2000,1.23583,207.198,0.132704
310.1000,0.103572,206.864,0.127897
310.0000,0.831391,206.615,0.124308
309.9000,2.0055,207.39,0.135455
309.8000,0.828999,206.313,0.119965
309.7000,0.371772,206.997,0.129804
309.6000,2.03788,207.192,0.132606
309.5000,-0.190194,206.718,0.125793
309.4000,-0.311313,206.951,0.129152
309.3000,1.18741,206.705,0.125614
309.2000,1.96521,206.347,0.120455
309.1000,0.697399,206.642,0.1247
309.0000,1.66977,206.934,0.128908
308.9000,0.540203,206.688,0.125369
308.8000,0.833291,207.086,0.131092
308.7000,1.53047,206.594,0.124015
308.6000,-0.256497,206.347,0.120455
308.5000,2.2997,206.53,0.123084
308.4000,2.04981,206.498,0.122627
308.3000,0.207329,206.558,0.123492
308.2000,2.03625,206.149,0.117594
308.1000,1.29371,206.303,0.119817
308.0000,0.648764,206.225,0.11869
307.9000,1.48358,207.167,0.132248
307.8000,-0.163707,206.077,0.116548
307.7000,0.21194,205.957,0.114814
307.6000,0.426521,206.547,0.123329
307.5000,2.50892,206.832,0.127441
307.4000,1.96283,206.333,0.120242
307.3000,1.09658,206.208,0.118444
307.2000,0.879502,206.632,0.124553
307.1000,0.200723,206.117,0.117136
307.0000,-1.27256,206.713,0.125728
306.9000,1.47296,206.687,0.125353
306.8000,-0.357982,206.39,0.121075
306.7000,0.57013,206.324,0.120112
306.6000,2.20332,206.359,0.120618
306.5000,-0.401875,206.831,0.127424
306.4000,2.39122,205.723,0.111441
306.3000,3.0066,206.474,0.122284
306.2000,0.0909801,206.158,0.117725
306.1000,1.12983,207.115,0.131499
306.0000,0.520168,206.145,0.117529
305.9000,-1.70675,206.26,0.119196
305.8000,0.668514,206.177,0.118003
305.7000,-0.843223,206.86,0.127832
305.6000,1.29847,206.734,0.126022
305.5000,1.17099,206.588,0.123917
305.4000,0.333193,205.861,0.113439
305.3000,-0.100766,206.737,0.126071
305.2000,1.28056,207.019,0.13013
305.1000,2.36228,205.548,0.108901
305.0000,1.29631,207.073,0.130896
304.9000,0.533695,206.849,0.127685
304.8000,0.907241,206.55,0.123378
304.7000,1.25808,205.481,0.107934
304.6000,1.77295,206.07,0.11645
304.5000,0.0536376,205.687,0.110917
304.4000,1.09997,206.052,0.116188
304.3000,1.26219,205.569,0.109213
304.2000,0.673186,206.031,0.115893
304.1000,0.0156434,206.242,0.118935
304.0000,0.186183,206.188,0.11815
303.9000,1.07432,206.538,0.123198
303.8000,-0.325019,206.415,0.121435
303.7000,0.449312,205.85,0.113275
303.6000,1.35325,205.864,0.113471
303.5000,2.54539,206.262,0.119229
303.4000,0.600763,206.164,0.117807
303.3000,0.664015,206.164,0.117807
303.2000,0.542717,206.713,0.125728
303.1000,0.632517,206.13,0.117316
303.0000,1.2188,206.299,0.119752
302.9000,1.21331,206.087,0.116695
302.8000,-0.828906,205.379,0.106458
302.7000,1.32248,205.334,0.105818
302.6000,-0.0325602,206.487,0.122464
302.5000,0.895118,205.66,0.110523
302.4000,-0.348082,205.842,0.11316
302.3000,1.41052,206.213,0.11851
302.2000,1.2756,206.165,0.117823
302.1000,1.65304,206.58,0.123803
302.0000,1.70813,205.986,0.115239
301.9000,0.0660468,206.07,0.11645
301.8000,2.16856,206.272,0.11936
301.7000,0.342912,205.442,0.107377
301.6000,1.82162,205.741,0.111703
301.5000,-0.25947,206.379,0.120912
301.4000,1.88292,206.438,0.121762
301.3000,1.77218,205.354,0.106097
301.2000,2.75534,206.047,0.116122
301.1000,-0.858352,205.687,0.110917
301.0000,1.6868,205.84,0.113128
300.9000,1.06788,205.864,0.113471
300.8000,0.772922,205.597,0.109622
300.7000,0.967158,205.04,0.101551
300.6000,1.00575,205.943,0.114617
300.5000,-0.377105,205.766,0.112063
300.4000,1.09573,205.802,0.112587
300.3000,0.443482,205.77,0.112112
300.2000,0.0947391,206.507,0.122758
300.1000,1.69894,205.557,0.109032
300.0000,0.351037,205.962,0.114895
299.9000,-0.307142,206.018,0.115697
299.8000,1.54625,205.337,0.105851
299.7000,1.80605,206.166,0.11784
299.6000,2.18257,205.849,0.113259
299.5000,1.42658,206.189,0.118167
299.4000,1.33824,205.715,0.111326
299.3000,2.31005,206.049,0.116155
299.2000,1.02677,206.015,0.115664
299.1000,1.34263,206.228,0.118739
299.0000,1.74167,206.079,0.11658
298.9000,1.05646,206.009,0.115566
298.8000,-0.401075,206.059,0.116286
298.7000,2.51029,205.033,0.101452
298.6000,0.620197,206.061,0.116319
298.5000,1.57997,205.434,0.107262
298.4000,-1.33999,205.306,0.105408
298.3000,0.691609,206.857,0.1278
298.2000,1.20179,206.312,0.119948
298.1000,1.00944,205.898,0.113962
298.0000,0.696074,205.685,0.110884
297.9000,2.43892,205.693,0.110999
297.8000,0.264328,205.545,0.108868
297.7000,1.52333,205.694,0.111015
297.6000,1.80717,205.771,0.112129
297.5000,2.625,205.799,0.112538
297.4000,1.65618,205.796,0.112489
297.3000,1.66528,206.063,0.116351
297.2000,1.22796,205.634,0.110147
297.1000,1.20718,205.596,0.109606
297.0000,0.472189,205.745,0.111752
296.9000,1.29722,205.886,0.113799
296.8000,-0.0775635,205.268,0.10485
296.7000,1.71729,205.628,0.110065
296.6000,0.00733599,205.407,0.106868
296.5000,0.474089,205.5,0.108213
296.4000,1.44311,205.698,0.11108
296.3000,-0.139665,206.448,0.121909
296.2000,1.52652,206.036,0.115959
296.1000,2.17148,206.245,0.118984
296.0000,1.94778,206.074,0.116515
295.9000,-0.62267,205.336,0.105835
295.8000,1.14439,205.415,0.106983
295.7000,-0.177314,205.28,0.105031
295.6000,2.78065,205.07,0.101994
295.5000,0.802717,205.856,0.113357
295.4000,0.659098,205.534,0.108704
295.3000,2.63409,205.516,0.108442
295.2000,1.38822,205.825,0.112915
295.1000,1.97399,205.494,0.108131
295.0000,3.44874,205.75,0.111834
294.9000,0.78372,206.057,0.11627
294.8000,-0.697919,205.912,0.114175
294.7000,1.15028,205.869,0.113553
294.6000,1.90346,204.805,0.0981494
294.5000,1.31628,205.382,0.106507
294.4000,0.425247,205.082,0.102158
294.3000,0.735022,205.621,0.109967
294.2000,1.79189,204.984,0.100746
294.1000,0.974539,205.678,0.110786
294.0000,1.63925,206.243,0.118951
293.9000,0.421978,205.891,0.113864
293.8000,-0.153675,206.183,0.118085
293.7000,0.956785,204.889,0.0993655
293.6000,-0.0684348,205.757,0.111932
293.5000,1.51976,205.663,0.110573
293.4000,0.870134,205.728,0.111506
293.3000,0.744329,205.468,0.107754
293.2000,2.09991,205.4,0.10677
293.1000,0.100707,204.684,0.0963898
293.0000,2.22997,204.629,0.0955837
292.9000,0.522659,205.272,0.104916
292.8000,1.10611,205.576,0.109311
292.7000,-0.468184,205.359,0.106179
292.6000,1.54897,205.902,0.114028
292.5000,0.7699,206.103,0.116924
292.4000,1.00223,205.434,0.107262
292.3000,-0.0833991,205.365,0.106261
292.2000,-0.0314358,205.381,0.106491
292.1000,2.16191,204.881,0.0992506
292.0000,-0.288927,205.053,0.101748
291.9000,2.34794,205.165,0.103357
291.8000,0.671083,205.916,0.114224
291.7000,1.25589,205.136,0.102946
291.6000,-0.268943,205.087,0.10224
291.5000,0.315502,204.201,0.0893764
291.4000,1.25717,204.882,0.099267
291.3000,0.744628,205.511,0.108377
291.2000,0.980887,205.179,0.10357
291.1000,0.56045,205.087,0.10224
291.0000,-0.477119,205.295,0.105244
290.9000,1.082,204.938,0.100072
290.8000,1.98296,205.069,0.101978
290.7000,1.79407,204.753,0.0973929
290.6000,2.00008,205.644,0.110294
290.5000,-0.278468,204.75,0.0973438
290.4000,0.846046,204.918,0.0997763
290.3000,0.996862,205.016,0.101206
290.2000,-0.243277,204.982,0.100713
290.1000,1.16513,204.959,0.100384
290.0000,1.12984,205.029,0.101386
289.9000,2.25456,205.043,0.1016
289.8000,1.84802,204.995,0.100894
289.7000,0.640066,205.836,0.113079
289.6000,0.152876,205.025,0.101337
289.5000,1.26603,205.243,0.10449
289.4000,-0.958701,205.563,0.109131
289.3000,1.53263,205.368,0.106311
289.2000,0.909775,205.385,0.106557
289.1000,-0.773221,206.716,0.125761
289.0000,0.628497,205.852,0.113308
288.9000,1.70932,205.123,0.10275
288.8000,2.06631,206.089,0.116727
288.7000,0.748137,205.205,0.103948
288.6000,0.383005,205.832,0.113013
288.5000,-0.0284452,205.526,0.10859
288.4000,1.22877,205.451,0.107508
288.3000,-0.495922,206.172,0.117921
288.2000,2.04114,205.322,0.105638
288.1000,-0.703563,204.954,0.100302
288.0000,0.476088,204.499,0.093708
287.9000,-0.160274,204.481,0.0934444
287.8000,0.59457,205.049,0.101682
287.7000,0.396739,204.955,0.100319
287.6000,1.02188,205.041,0.101567
287.5000,0.0342918,205.257,0.104703
287.4000,-0.210325,205.601,0.109672
287.3000,-0.328351,204.709,0.0967518
287.2000,0.27098,205.05,0.101699
287.1000,0.766,205.477,0.107885
287.0000,0.94412,205.552,0.108967
286.9000,1.02898,205.332,0.105786
286.8000,0.650373,204.895,0.0994477
286.7000,0.482217,204.445,0.0929178
286.6000,-1.46551,205.577,0.109327
286.5000,1.08019,205.022,0.101288
286.4000,0.441806,205.64,0.110245
286.3000,0.892775,204.617,0.0954192
286.2000,-0.145348,205.197,0.103833
286.1000,0.791827,204.391,0.0921273
286.0000,1.53795,205.086,0.102224
285.9000,1.81925,205.299,0.10531
285.8000,0.368198,205.618,0.109917
285.7000,-0.204083,205.218,0.104128
285.6000,0.601892,205.412,0.106934
285.5000,-0.086706,205.463,0.107672
285.4000,0.473931,205.024,0.101321
285.3000,0.815145,205.677,0.110769
285.2000,1.00979,205.123,0.10275
285.1000,0.840397,205.619,0.109934
285.0000,2.30519,204.578,0.0948433
284.9000,0.85405,205.195,0.1038
284.8000,0.780051,205.362,0.106212
284.7000,1.16137,205.493,0.108114
284.6000,0.534642,205.807,0.112653
284.5000,-0.500756,204.958,0.100368
284.4000,1.76666,205.531,0.108656
284.3000,2.15092,205.305,0.105392
284.2000,1.30699,204.735,0.0971299
284.1000,1.30747,205.321,0.105622
284.0000,-0.274312,205.211,0.10403
283.9000,1.8316,205.365,0.106261
283.8000,3.52563,205.259,0.104719
283.7000,1.13188,205.388,0.106589
283.6000,2.05706,206.267,0.119295
283.5000,0.750048,205.55,0.108934
283.4000,1.3083,204.77,0.0976395
283.3000,0.978766,204.744,0.0972615
283.2000,-0.108533,204.414,0.0924733
283.1000,1.08481,205.211,0.10403
283.0000,1.88832,205.511,0.108377
282.9000,0.856768,205.127,0.102815
282.8000,1.78506,205.958,0.11483
282.7000,1.27622,204.294,0.0907273
282.6000,0.0221859,204.574,0.0947942
282.5000,-0.111524,205.569,0.109213
282.4000,1.66731,204.957,0.100351
282.3000,1.55063,204.88,0.0992342
282.2000,0.90846,204.787,0.0978862
282.1000,0.441061,205.596,0.109606
282.0000,1.8533,205.546,0.108885
281.9000,0.756988,204.923,0.0998585
281.8000,0.170283,204.469,0.0932634
281.7000,2.49115,205.51,0.10836
281.6000,1.73001,205.691,0.110982
281.5000,3.06975,205.559,0.109065
281.4000,0.903335,205.977,0.115108
281.3000,0.065275,205.6,0.109655
281.2000,1.73951,205.478,0.107901
281.1000,0.392585,204.325,0.0911723
281.0000,0.074038,205.613,0.109852
280.9000,0.572598,205.632,0.11013
280.8000,0.990745,205.133,0.102897
280.7000,-0.998284,205.294,0.105228
280.6000,0.371512,205.358,0.106163
280.5000,1.08181,205.008,0.101091
280.4000,1.02509,205.201,0.103882
280.3000,1.36474,205.256,0.104686
280.2000,-0.226031,204.816,0.0982971
280.1000,2.43148,204.817,0.0983138
280.0000,1.08986,204.886,0.0993164
279.9000,0.163336,205.406,0.106852
279.8000,-1.60366,205.063,0.101879
279.7000,0.348555,204.041,0.0870357
279.6000,0.751743,205.632,0.11013
279.5000,2.20401,205.112,0.102602
279.4000,2.12096,205.206,0.103964
279.3000,-0.444358,205.266,0.104834
279.2000,0.31241,205.374,0.106393
279.1000,2.03881,205.497,0.108164
279.0000,-2.03499,205.33,0.105753
278.9000,-0.108806,204.666,0.0961267
278.8000,-0.150023,204.808,0.0981822
278.7000,0.465882,205.235,0.104374
278.6000,1.00379,205.172,0.103472
278.5000,-0.816973,205.444,0.107409
278.4000,0.603208,205.283,0.10508
278.3000,0.0587945,205.467,0.107737
278.2000,-0.706921,204.76,0.0974918
278.1000,1.77563,206.244,0.118968
278.0000,1.48263,205.298,0.105294
277.9000,2.34828,204.837,0.0986095
277.8000,-0.18123,204.207,0.0894588
277.7000,-0.454621,204.721,0.0969327
277.6000,0.494805,205.138,0.102979
277.5000,-0.195696,205.868,0.113537
277.4000,-0.858815,205.341,0.105917
277.3000,0.0824979,205.283,0.10508
277.2000,0.139316,205.569,0.109213
277.1000,0.330757,206.133,0.117365
277.0000,-0.836739,206.401,0.121222
276.9000,0.114398,206.211,0.118494
276.8000,0.133667,205.302,0.105343
276.7000,0.743172,206.14,0.117463
276.6000,0.603025,204.964,0.10045
276.5000,0.674487,205.289,0.105162
276.4000,1.45991,204.34,0.0913862
276.3000,1.44445,205.092,0.102306
276.2000,1.46513,205.266,0.104834
276.1000,0.069618,205.205,0.103948
276.0000,2.11271,204.946,0.100187
275.9000,0.0532322,205.075,0.10206
275.8000,0.139797,205.378,0.106442
275.7000,-0.029856,205.183,0.10362
275.6000,-0.107672,205.705,0.111179
275.5000,-0.196795,206.266,0.119278
275.4000,-0.388473,205.802,0.112587
275.3000,-0.277637,205.514,0.10841
275.2000,1.22919,205.649,0.110376
275.1000,1.00557,204.932,0.0999901
275.0000,0.912161,204.92,0.0998094
274.9000,0.793541,205.409,0.106901
274.8000,0.965357,205.438,0.107311
274.7000,-0.0608875,204.674,0.0962417
274.6000,0.564094,205.426,0.107147
274.5000,0.798679,205.351,0.106065
274.4000,-0.206866,206.2,0.11833
274.3000,1.35412,206.299,0.119752
274.2000,0.297249,205.979,0.115141
274.1000,0.152514,205.231,0.104325
274.0000,0.990102,204.682,0.096357
273.9000,1.39642,205.77,0.112112
273.8000,1.23948,206.004,0.115501
273.7000,0.591502,204.504,0.0937736
273.6000,-0.0849129,204.999,0.100959
273.5000,1.9583,206.324,0.120112
273.4000,1.10459,205.881,0.113717
273.3000,1.60282,205.32,0.105605
273.2000,0.20426,205.584,0.109426
273.1000,0.707658,205.58,0.109376
273.0000,-1.19862,205.399,0.106753
272.9000,-0.75459,205.447,0.107442
272.8000,-0.202428,205.418,0.107032
272.7000,1.27085,205.486,0.108016
272.6000,1.91486,205.536,0.108737
272.5000,1.50393,206.641,0.124684
272.4000,-0.044739,205.792,0.11244
272.3000,-0.454546,206.295,0.119703
272.2000,-0.697733,205.353,0.106081
272.1000,1.69683,206.087,0.116695
272.0000,1.83963,205.517,0.108459
271.9000,0.862441,205.656,0.110474
271.8000,0.73585,206.241,0.118919
271.7000,0.702342,205.91,0.114143
271.6000,0.0213986,206.006,0.115534
271.5000,-0.658047,206.019,0.115713
271.4000,0.721671,205.023,0.101304
271.3000,-1.52725,204.996,0.10091
271.2000,1.37287,206.062,0.116335
271.1000,1.49756,205.85,0.113275
271.0000,-0.662573,205.596,0.109606
270.9000,1.76025,206.19,0.118183
270.8000,1.18622,205.663,0.110573
270.7000,-0.44056,205.722,0.111424
270.6000,0.573304,205.923,0.114323
270.5000,1.82767,205.708,0.111228
270.4000,0.625246,206.121,0.117186
270.3000,-1.07261,205.901,0.114012
270.2000,0.776696,206.039,0.116008
270.1000,0.244617,206.627,0.124488
270.0000,-0.954833,205.992,0.115321
269.9000,0.696557,205.964,0.114928
269.8000,0.142526,205.485,0.108
269.7000,0.412026,205.683,0.110868
269.6000,1.40996,205.828,0.112964
269.5000,-0.971946,205.851,0.113291
269.4000,3.22305,205.894,0.113913
269.3000,0.707373,207.332,0.134625
269.2000,0.851802,206.432,0.12168
269.1000,0.829984,206.267,0.119295
269.0000,0.55214,205.391,0.106639
268.9000,1.95119,206.744,0.126169
268.8000,0.499637,205.855,0.11334
268.7000,0.213284,206.716,0.125761
268.6000,2.15013,206.455,0.122007
268.5000,0.363577,206.06,0.116302
268.4000,0.272378,206.143,0.117513
268.3000,-0.365868,205.057,0.101797
268.2000,0.401958,207.101,0.131304
268.1000,1.96378,206.681,0.125255
268.0000,0.753628,206.006,0.115534
267.9000,1.48961,206.389,0.121059
267.8000,0.555659,206.94,0.128989
267.7000,-0.161698,205.876,0.113652
267.6000,0.709386,206.438,0.121762
267.5000,0.132262,206.921,0.128713
267.4000,0.834343,207.026,0.130228
267.3000,1.23383,207.413,0.13578
267.2000,0.886179,206.383,0.120961
267.1000,1.01557,206.411,0.121369
267.0000,0.711278,206.792,0.126854
266.9000,2.51318,206.928,0.12881
266.8000,1.60764,206.982,0.129593
266.7000,1.03935,207.101,0.131304
266.6000,-0.611444,206.828,0.127376
266.5000,-0.699868,207.231,0.133176
266.4000,1.69974,206.923,0.128745
266.3000,0.971406,206.677,0.125206
266.2000,1.17052,206.745,0.126185
266.1000,-0.285548,207.925,0.143127
266.0000,-0.135044,207.269,0.133713
265.9000,-0.700931,206.921,0.128713
265.8000,1.3118,205.035,0.101485
265.7000,0.299381,207.164,0.132216
265.6000,1.03958,206.175,0.11797
265.5000,-0.639972,206.266,0.119278
265.4000,1.89176,206.749,0.126234
265.3000,1.94756,208.61,0.152936
265.2000,0.232345,207.346,0.13482
265.1000,0.947563,206.632,0.124553
265.0000,0.298121,206.72,0.125826
264.9000,2.27674,206.925,0.128778
264.8000,1.77555,207.19,0.13259
264.7000,1.30859,207.389,0.135439
264.6000,0.689628,207.68,0.139618
264.5000,0.828566,207.635,0.138968
264.4000,0.907651,207.386,0.135406
264.3000,1.4558,207.711,0.140057
264.2000,2.33844,207.908,0.142883
264.1000,1.65587,206.836,0.12749
264.0000,0.766704,207.018,0.130114
263.9000,1.17581,208.022,0.144523
263.8000,1.3796,207.289,0.134007
263.7000,-1.69661,208.004,0.144263
263.6000,0.181645,207.176,0.132378
263.5000,0.00707744,207.933,0.14324
263.4000,0.513847,207.592,0.13835
263.3000,1.5258,207.633,0.138952
263.2000,0.382144,208.398,0.149907
263.1000,-0.251509,207.968,0.143744
263.0000,2.3119,207.717,0.140154
262.9000,1.31068,207.937,0.143305
262.8000,1.95742,207.267,0.133697
262.7000,-1.01846,208.054,0.144977
262.6000,-0.394655,208.441,0.150523
262.5000,0.949799,207.826,0.141714
262.4000,1.84324,207.516,0.137261
262.3000,-0.776062,208.455,0.150717
262.2000,0.305394,210.097,0.174119
262.1000,0.225463,208.314,0.148708
262.0000,0.0912732,207.698,0.139878
261.9000,0.794805,208.302,0.148529
261.8000,-1.21235,208.345,0.149145
261.7000,0.147972,207.102,0.13132
261.6000,-0.440132,208.722,0.154539
261.5000,1.76227,207.954,0.143549
261.4000,0.434557,208.224,0.147411
261.3000,0.402365,208.22,0.147362
261.2000,1.04237,207.798,0.141308
261.1000,-0.94276,208.713,0.15441
261.0000,0.853863,208.147,0.146308
260.9000,-0.200079,207.533,0.137505
260.8000,-0.000127552,208.5,0.151366
260.7000,-0.0616563,208.622,0.153098
260.6000,0.0659076,208.505,0.15143
260.5000,0.421425,208.966,0.158017
260.4000,-0.221028,208.542,0.151965
260.3000,0.651833,207.975,0.143841
260.2000,-0.11976,208.66,0.153649
260.1000,1.66938,209.199,0.161347
260.0000,-0.503939,207.886,0.142574
259.9000,1.95701,208.399,0.149923
259.8000,1.67332,208.347,0.149178
259.7000,0.86998,209.041,0.159084
259.6000,0.512085,208.543,0.151981
259.5000,0.980358,208.574,0.152418
259.4000,1.38007,208.488,0.151187
259.3000,1.16397,208.656,0.153584
259.2000,0.176603,208.585,0.15258
259.1000,-0.593307,208.489,0.151204
259.0000,1.45664,209.051,0.15923
258.9000,1.03866,209.006,0.158583
258.8000,-0.0762899,209.155,0.160717
258.7000,-0.231307,208.895,0.156998
258.6000,1.44747,209.139,0.160491
258.5000,-0.716772,208.556,0.152159
258.4000,-0.0773814,209.309,0.162914
258.3000,1.09746,209.131,0.160377
258.2000,-0.282768,209.488,0.165464
258.1000,-0.460523,209.051,0.15923
258.0000,0.519306,209.418,0.164464
257.9000,0.117363,211.042,0.18752
257.8000,0.757439,209.484,0.165399
257.7000,-1.18953,209.24,0.161928
257.6000,-0.261935,209.866,0.170834
257.5000,0.468324,209.433,0.164673
257.4000,0.073784,209.812,0.170076
257.3000,-1.97988,209.755,0.169254
257.2000,1.16241,209.589,0.1669
257.1000,0.84903,209.653,0.167803
257.0000,0.840075,210.132,0.174618
256.9000,0.486681,209.761,0.169351
256.8000,0.510293,209.719,0.168755
256.7000,-0.374944,210.298,0.176983
256.6000,0.382558,209.914,0.171526
256.5000,-0.348673,209.714,0.168674
256.4000,0.541965,209.483,0.165383
256.3000,-0.323347,209.904,0.171382
256.2000,-0.0586247,210.16,0.175021
256.1000,-0.744654,209.953,0.172074
256.0000,0.583754,209.659,0.1679
255.9000,1.61646,209.918,0.171575
255.8000,0.507406,208.552,0.152111
255.7000,1.40209,210.66,0.182111
255.6000,0.348648,210.03,0.173169
255.5000,0.514968,211.183,0.189525
255.4000,-0.417434,209.888,0.171156
255.3000,-0.436274,210.712,0.18285
255.2000,2.01221,209.663,0.167948
255.1000,0.0522835,210.379,0.178125
255.0000,-0.864452,209.969,0.1723
254.9000,1.03969,210.201,0.1756
254.8000,-0.397883,210.507,0.179942
254.7000,0.934128,209.944,0.171945
254.6000,1.58231,210.703,0.182722
254.5000,-0.129082,210.021,0.17304
254.4000,0.121816,209.62,0.167335
254.3000,0.512891,210.746,0.183332
254.2000,0.608275,209.911,0.171478
254.1000,-0.873161,209.137,0.160458
254.0000,0.278185,211.062,0.187809
253.9000,1.12214,210.624,0.181597
253.8000,-0.729493,209.976,0.172396
253.7000,-0.855948,210.504,0.179894
253.6000,-0.143315,210.638,0.181806
253.5000,-0.0769728,211.226,0.190134
253.4000,-1.18562,211.36,0.192025
253.3000,1.41593,211.578,0.195099
253.2000,0.902243,210.925,0.185868
253.1000,1.4277,210.942,0.186109
253.0000,1.32484,211.867,0.199178
252.9000,-0.345494,211.035,0.187424
252.8000,1.23255,211.699,0.196811
252.7000,-0.559142,210.933,0.18598
252.6000,1.27143,210.87,0.185082
252.5000,1.25302,211.156,0.18914
252.4000,0.00666067,211.029,0.187344
252.3000,-0.260976,211.671,0.196411
252.2000,2.85147,211.051,0.187649
252.1000,0.283801,211.546,0.194651
252.0000,0.710797,212.043,0.201671
251.9000,-1.13745,212.301,0.205296
251.8000,-0.898706,211.589,0.195259
251.7000,0.622175,210.795,0.184022
251.6000,-0.246886,211.63,0.195835
251.5000,2.26919,211.394,0.192505
251.4000,0.888826,211.803,0.198283
251.3000,0.0116953,212.563,0.208997
251.2000,0.233488,211.764,0.197723
251.1000,0.0587644,211.992,0.200952
251.0000,1.96743,211.053,0.187681
250.9000,-0.65219,210.856,0.184889
250.8000,0.071006,212.373,0.206317
250.7000,0.57803,211.614,0.195611
250.6000,0.0606764,211.341,0.191752
250.5000,1.56618,211.477,0.193674
250.4000,-0.451124,212.41,0.206844
250.3000,1.7255,211.681,0.196555
250.2000,1.72597,211.561,0.194859
250.1000,0.510645,212.131,0.202901
250.0000,0.115725,212.163,0.203364
249.9000,0.339069,212.118,0.202725
249.8000,1.04802,211.561,0.194859
249.7000,-0.463235,212.069,0.202039
249.6000,1.75839,213.054,0.215895
249.5000,0.0505122,210.244,0.176211
249.4000,-0.568171,212.253,0.204626
249.3000,0.204704,212.186,0.203684
249.2000,0.492342,212.601,0.209523
249.1000,2.47268,211.77,0.197819
249.0000,0.945146,211.923,0.199977
248.9000,1.44924,212.047,0.201719
248.8000,1.97669,212.27,0.204865
248.7000,0.648292,211.775,0.197883
248.6000,0.298139,212.166,0.203396
248.5000,0.341931,212.582,0.209252
248.4000,0.64046,212.443,0.207307
248.3000,0.247182,212.825,0.212678
248.2000,1.86206,212.625,0.209858
248.1000,0.734897,212.421,0.206988
248.0000,2.23803,210.888,0.185338
247.9000,0.729219,212.029,0.201464
247.8000,-0.141416,211.635,0.195915
247.7000,0.757601,212.401,0.206716
247.6000,2.0005,212.491,0.207976
247.5000,0.651734,213.253,0.218694
247.4000,1.85007,212.753,0.211659
247.3000,1.44672,212.644,0.210129
247.2000,1.45791,213.099,0.216531
247.1000,-0.14974,213.676,0.224621
247.0000,1.32277,212.955,0.21451
246.9000,-0.0269358,213.114,0.216738
246.8000,-0.958344,212.797,0.21228
246.7000,-0.204788,213.297,0.219298
246.6000,-0.104913,212.918,0.213984
246.5000,0.14119,213.235,0.21844
246.4000,1.66284,213.453,0.221492
246.3000,0.221993,213.139,0.217088
246.2000,0.495736,213.54,0.222715
246.1000,-0.66982,213.165,0.217454
246.0000,-0.142293,214.023,0.229476
245.9000,-0.029409,213.385,0.220538
245.8000,0.750647,213.401,0.220761
245.7000,0.351054,213.642,0.224144
245.6000,1.22769,213.531,0.222588
245.5000,0.652355,213.014,0.215338
245.4000,1.75794,213.447,0.221412
245.3000,0.159329,213.718,0.225208
245.2000,-1.31785,213.837,0.226875
245.1000,1.83337,213.528,0.22254
245.0000,-0.998064,213.924,0.228096
244.9000,-0.718539,213.877,0.22743
244.8000,2.20299,213.874,0.227398
244.7000,0.512938,214.334,0.233833
244.6000,0.0720649,213.59,0.223414
244.5000,-1.04052,212.321,0.205583
244.4000,0.403934,213.499,0.222143
244.3000,0.068235,213.664,0.224446
244.2000,1.24831,215.055,0.243891
244.1000,0.0983822,214.15,0.231251
244.0000,0.134075,213.8,0.226351
243.9000,0.775386,214.485,0.235939
243.8000,1.07148,213.87,0.227335
243.7000,0.523805,214.907,0.241822
243.6000,-0.121103,214.343,0.23396
243.5000,-0.407612,214.561,0.236999
243.4000,1.39506,215.307,0.247395
243.3000,1.50885,214.315,0.233564
243.2000,1.9894,214.959,0.242548
243.1000,1.76689,214.927,0.242106
243.0000,1.12998,214.32,0.233627
242.9000,0.149678,214.38,0.234467
242.8000,-0.0909748,214.562,0.237015
242.7000,1.91479,215.1,0.244522
242.6000,0.397773,214.853,0.241079
242.5000,-0.530241,214.818,0.240589
242.4000,0.483512,214.242,0.232534
242.3000,0.613992,214.479,0.235859
242.2000,-0.873803,214.694,0.23885
242.1000,-0.233481,215.117,0.244759
242.0000,-2.21938,215.946,0.256282
241.9000,-0.240199,215.108,0.244633
241.8000,1.00688,214.487,0.23597
241.7000,0.66604,215.813,0.25444
241.6000,1.05736,215.488,0.249918
241.5000,0.983971,215.496,0.250029
241.4000,1.43801,215.598,0.251447
241.3000,0.00554235,215.295,0.247237
241.2000,0.457957,215.478,0.249776
241.1000,1.01167,215.528,0.25047
241.0000,0.328171,215.712,0.253039
240.9000,-1.49554,215.529,0.250486
240.8000,0.659055,215.656,0.252251
240.7000,0.31358,214.822,0.240636
240.6000,2.70694,215.909,0.255779
240.5000,0.712598,216.249,0.260498
240.4000,-0.702188,217.133,0.272739
240.3000,-0.833532,216.646,0.265996
240.2000,-0.363752,215.554,0.250833
240.1000,0.565561,214.932,0.242169
240.0000,1.59209,215.85,0.25496
239.9000,0.588449,217.978,0.284408
239.8000,1.10639,215.785,0.254047
239.7000,-1.57568,215.766,0.253779
239.6000,0.0244268,217.663,0.280064
239.5000,1.51061,215.676,0.252534
239.4000,0.384667,216.789,0.267973
239.3000,1.02469,215.882,0.255401
239.2000,0.516066,217.159,0.273099
239.1000,0.87518,216.603,0.265399
239.0000,0.630626,216.865,0.269024
238.9000,2.08668,217.736,0.281065
238.8000,1.70832,217.627,0.279564
238.7000,0.776304,217.047,0.271548
238.6000,0.824192,217.27,0.274634
238.5000,0.546474,217.377,0.276106
238.4000,-0.473306,217.544,0.278422
238.3000,0.453857,217.904,0.283377
238.2000,0.132422,216.462,0.263452
238.1000,-0.381273,217.553,0.278547
238.0000,2.79349,217.612,0.27936
237.9000,3.40156,217.916,0.283549
237.8000,-1.02412,218.185,0.287249
237.7000,0.899685,218.085,0.285876
237.6000,1.55827,217.056,0.271673
237.5000,0.654152,217.893,0.283237
237.4000,1.75669,218.523,0.291912
237.3000,-0.0538107,218.131,0.286516
237.2000,-0.706921,218.326,0.2892
237.1000,3.02316,218.551,0.292287
237.0000,1.81171,218.565,0.292489
236.9000,0.658366,218.096,0.286032
236.8000,-1.12699,218.438,0.290743
236.7000,0.540398,218.182,0.287218
236.6000,0.47362,218.556,0.292364
236.5000,1.11399,219.366,0.30349
236.4000,0.562281,219.517,0.305555
236.3000,-0.262586,218.971,0.298063
236.2000,1.81177,219.105,0.299899
236.1000,0.993608,219.216,0.301423
236.0000,-0.60017,219.3,0.302573
235.9000,1.50952,219.118,0.300086
235.8000,0.247285,218.705,0.294405
235.7000,1.16137,219.634,0.307154
235.6000,0.639159,219.547,0.305959
235.5000,0.751377,219.457,0.304732
235.4000,0.528978,219.886,0.310614
235.3000,1.76544,218.977,0.298141
235.2000,0.465417,219.199,0.301189
235.1000,2.9941,219.994,0.312086
235.0000,1.57463,219.964,0.311668
234.9000,1.93297,218.943,0.297674
234.8000,0.853783,220.566,0.319905
234.7000,0.101332,220.438,0.318157
234.6000,-0.881572,220.846,0.323723
234.5000,0.459638,220.395,0.317569
234.4000,2.52908,220.09,0.313404
234.3000,0.0237247,220.314,0.316455
234.2000,2.23666,221.055,0.326565
234.1000,0.0195877,220.897,0.324419
234.0000,0.0763784,221.504,0.332689
233.9000,0.163727,220.394,0.317553
233.8000,1.28273,220.936,0.324944
233.7000,0.269973,221.235,0.329019
233.6000,-0.7406,221.128,0.327568
233.5000,-0.141332,221,0.325824
233.4000,-0.110603,221.977,0.33911
233.3000,1.05249,221.43,0.331672
233.2000,1.18433,221.225,0.32888
233.1000,2.02113,222,0.339418
233.0000,-0.258406,221.515,0.332828
232.9000,-0.0757617,221.417,0.331502
232.8000,0.517668,221.852,0.337417
232.7000,0.92311,221.681,0.335092
232.6000,0.91358,221.799,0.336694
232.5000,-0.548185,221.492,0.332519
232.4000,0.742664,222.043,0.340002
232.3000,1.07872,222.678,0.348621
232.2000,1.46023,222.602,0.347593
232.1000,1.22148,223.103,0.354371
232.0000,1.61695,223.018,0.353222
231.9000,-0.0852921,222.609,0.347685
231.8000,-0.29505,223.21,0.355811
231.7000,0.787815,223.123,0.354632
231.6000,1.13867,223.41,0.358521
231.5000,-1.4588,222.946,0.352241
231.4000,1.93136,223.01,0.353115
231.3000,2.0679,223.215,0.355888
231.2000,-0.731522,224.194,0.369096
231.1000,0.143403,224.004,0.366531
231.0000,0.926188,223.239,0.356209
230.9000,-1.13183,223.417,0.358613
230.8000,-0.00616058,223.58,0.360816
230.7000,1.49736,223.295,0.356959
230.6000,0.122908,223.265,0.356561
230.5000,-0.286118,224.146,0.368439
230.4000,0.319827,223.959,0.36592
230.3000,2.21509,224.602,0.374585
230.2000,0.29832,224.099,0.367814
230.1000,0.440911,224.009,0.366592
230.0000,2.49456,223.944,0.365722
229.9000,0.590672,223.679,0.362146
229.8000,-0.0430946,223.218,0.355918
229.7000,1.50817,224.196,0.369111
229.6000,2.98628,223.989,0.366333
229.5000,1.44826,224.066,0.367371
229.4000,1.28119,223.895,0.365065
229.3000,1.15701,224.956,0.379336
229.2000,-2.56947,224.462,0.372695
229.1000,-0.146432,224.986,0.379747
229.0000,1.5848,224.333,0.370957
228.9000,0.258282,224.897,0.378544
228.8000,1.60831,225.187,0.382439
228.7000,-0.103292,225.01,0.380066
228.6000,0.308195,225.145,0.381876
228.5000,-0.704215,225.374,0.384946
228.4000,0.0941278,225.623,0.388288
228.3000,0.0805687,225.334,0.384415
228.2000,-1.14914,225.61,0.388106
228.1000,2.30442,225.757,0.390078
228.0000,-1.24824,225.99,0.393203
227.9000,-0.753527,226.252,0.396703
227.8000,-0.703269,226.542,0.400578
227.7000,1.28861,226.376,0.398353
227.6000,0.279541,226.403,0.398717
227.5000,0.810146,226.177,0.395703
227.4000,0.487018,226.81,0.404147
227.3000,1.55158,227.289,0.410534
227.2000,2.0664,227.189,0.409206
227.1000,1.06389,227.775,0.417001
227.0000,-1.24645,227.102,0.408044
226.9000,4.06482,227.46,0.412812
226.8000,-0.268644,227.766,0.416881
226.7000,0.657068,227.398,0.411982
226.6000,-1.35865,227.423,0.412314
226.5000,0.353878,227.247,0.409976
226.4000,-0.543078,226.932,0.405778
226.3000,-1.06034,228.381,0.42505
226.2000,1.87156,228.439,0.425817
226.1000,0.259658,227.646,0.415284
226.0000,0.768919,227.841,0.417875
225.9000,-1.58076,228.582,0.427709
225.8000,0.0894971,228.78,0.430336
225.7000,0.382989,229.147,0.435195
225.6000,1.72481,228.179,0.422374
225.5000,0.488411,228.812,0.430757
225.4000,1.53251,228.874,0.431582
225.3000,-0.172962,228.597,0.42792
225.2000,-0.579145,228.52,0.426898
225.1000,0.850464,228.795,0.430532
225.0000,-0.152941,229.084,0.434356
224.9000,0.407711,229.639,0.441694
224.8000,-0.173452,229.589,0.441036
224.7000,-0.36282,228.823,0.430907
224.6000,2.55179,229.876,0.44482
224.5000,0.394861,229.297,0.437173
224.4000,1.73705,229.377,0.438237
224.3000,-1.75592,230.375,0.451405
224.2000,0.904029,229.658,0.441948
224.1000,-1.20736,230.442,0.452286
224.0000,0.414575,231.073,0.460585
223.9000,0.88495,230.38,0.451465
223.8000,1.34434,229.802,0.443848
223.7000,2.07024,230.55,0.453703
223.6000,-0.369106,229.971,0.446075
223.5000,0.54528,230.193,0.449002
223.4000,1.92591,230.913,0.458486
223.3000,0.836137,230.814,0.457175
223.2000,0.64427,230.943,0.458873
223.1000,-1.35716,230.563,0.453881
223.0000,0.622999,231.182,0.462014
222.9000,2.46833,231.655,0.468213
222.8000,1.61239,231.831,0.470529
222.7000,-0.962244,231.234,0.462698
222.6000,-1.27825,231.59,0.467366
222.5000,1.54389,231.719,0.469059
222.4000,1.16475,231.083,0.460719
222.3000,-0.932638,231.754,0.469519
222.2000,-1.30379,231.432,0.465301
222.1000,0.463228,231.843,0.470677
222.0000,1.18779,231.965,0.47228
221.9000,2.49181,232.813,0.483361
221.8000,-1.01706,232.99,0.485683
221.7000,-0.515635,233.593,0.493538
221.6000,0.074901,232.413,0.478136
221.5000,1.27336,233.812,0.496384
221.4000,0.293334,233.191,0.488298
221.3000,3.09131,232.43,0.478358
221.2000,2.26285,232.599,0.480579
221.1000,0.913362,233.521,0.492594
221.0000,1.98796,233.798,0.496207
220.9000,-0.150208,233.367,0.490587
220.8000,0.186944,233.433,0.491458
220.7000,-0.747857,233.483,0.492108
220.6000,0.77942,234.176,0.501113
220.5000,2.45196,233.93,0.497917
220.4000,0.555872,234.164,0.500966
220.3000,0.580615,234.682,0.507687
220.2000,2.48821,233.959,0.4983
220.1000,1.23174,234.54,0.50585
220.0000,2.24492,233.828,0.496591
219.9000,-0.446352,234.864,0.510052
219.8000,1.45451,235.23,0.514792
219.7000,2.17782,235.175,0.514073
219.6000,-1.4873,235.16,0.513883
219.5000,-0.183489,234.583,0.506408
219.4000,0.797542,234.448,0.504644
219.3000,0.588259,234.633,0.507055
219.2000,1.12877,234.448,0.504644
219.1000,0.87023,234.841,0.509744
219.0000,-0.600836,235.275,0.515364
218.9000,2.46835,235.153,0.513795
218.8000,4.08901,235.226,0.514733
218.7000,0.0901085,236.149,0.526667
218.6000,1.71734,235.756,0.521591
218.5000,-0.313443,235.336,0.516156
218.4000,-0.186411,235.804,0.522206
218.3000,1.11474,236.097,0.525995
218.2000,1.65146,236.928,0.536697
218.1000,2.02603,236.264,0.528143
218.0000,-1.42647,235.803,0.522191
217.9000,-0.862406,236.68,0.533503
217.8000,1.6661,236.719,0.534013
217.7000,-0.729819,236.651,0.533138
217.6000,1.6369,237.753,0.547295
217.5000,-0.318654,236.464,0.530729
217.4000,4.0401,236.191,0.527208
217.3000,1.64483,237.302,0.541505
217.2000,-0.186014,237.724,0.546932
217.1000,-0.124596,236.912,0.536493
217.0000,2.40198,238.064,0.551291
216.9000,1.87076,237.979,0.550201
216.8000,1.26028,237.522,0.544328
216.7000,1.58654,237.554,0.54475
216.6000,-0.681341,237.242,0.540733
216.5000,0.585439,237.886,0.54901
216.4000,0.775304,238.189,0.552888
216.3000,-0.136447,238.136,0.552206
216.2000,-0.836686,238.792,0.560602
216.1000,3.63436,237.637,0.545812
216.0000,2.19642,239.074,0.564207
215.9000,-0.859276,239.27,0.56671
215.8000,0.659064,238.408,0.555688
215.7000,1.69433,237.993,0.550376
215.6000,0.705586,239.39,0.568242
215.5000,-0.0788666,238.353,0.554992
215.4000,0.184454,239.502,0.569673
215.3000,1.2331,239.571,0.570554
215.2000,2.60474,239.406,0.568444
215.1000,1.90122,239.33,0.567476
215.0000,2.11584,240.269,0.579442
214.9000,1.15856,239.357,0.567823
214.8000,-0.337072,241.041,0.589243
214.7000,-0.667524,238.912,0.562137
214.6000,2.37821,239.507,0.569731
214.5000,1.93112,240.602,0.583677
214.4000,1.5516,239.895,0.574683
214.3000,0.0274908,239.839,0.573962
214.2000,0.798989,240.488,0.582223
214.1000,0.805194,240.428,0.581459
214.0000,2.49994,239.979,0.575751
213.9000,-0.16526,241.164,0.59081
213.8000,1.50305,240.576,0.583346
213.7000,2.20007,240.736,0.585375
213.6000,-0.850756,240.65,0.584281
213.5000,-0.393292,241.948,0.600738
213.4000,0.887788,241.611,0.596466
213.3000,1.675,240.814,0.586368
213.2000,0.611098,241.526,0.59539
213.1000,0.397672,240.967,0.588309
213.0000,1.364,241.367,0.593381
212.9000,1.07516,241.715,0.597786
212.8000,1.9903,242.149,0.603274
212.7000,3.06638,241.681,0.597355
212.6000,4.25637,242.262,0.604705
212.5000,-1.95735,241.948,0.600738
212.4000,4.15522,241.824,0.599162
212.3000,-1.25525,242.52,0.607953
212.2000,2.25418,242.416,0.606651
212.1000,0.685994,241.994,0.601312
212.0000,-1.938,242.626,0.609297
211.9000,-0.773584,242.934,0.613183
211.8000,2.76255,243.08,0.615025
211.7000,0.068037,243.449,0.619661
211.6000,0.24092,242.691,0.610112
211.5000,1.45332,243.319,0.618036
211.4000,0.982829,243.86,0.624832
211.3000,0.426658,243.793,0.623992
211.2000,0.920804,244.371,0.631247
211.1000,1.86227,244.021,0.626853
211.0000,3.23071,243.296,0.617736
210.9000,-0.572645,244.349,0.630977
210.8000,1.30994,244.668,0.634968
210.7000,1.89123,244.285,0.630167
210.6000,1.64451,244.322,0.630636
210.5000,-2.04599,245.282,0.642655
210.4000,-1.92851,245.685,0.647695
210.3000,2.14422,244.484,0.632668
210.2000,0.810593,245.337,0.643349
210.1000,2.37777,244.968,0.638728
210.0000,1.51788,245.259,0.642371
209.9000,1.67272,245.651,0.64727
209.8000,-0.929999,245.195,0.641564
209.7000,-1.30159,244.829,0.636984
209.6000,2.93851,245.705,0.647936
209.5000,1.80199,247.011,0.664211
209.4000,2.50915,246.761,0.661097
209.3000,-0.599034,246.247,0.654706
209.2000,1.93113,246.012,0.651767
209.1000,0.912993,247.102,0.665338
209.0000,1.52395,247.283,0.66759
208.9000,1.84138,246.557,0.658559
208.8000,2.23995,247.743,0.673299
208.7000,1.41837,247.238,0.667027
208.6000,-3.041,247.352,0.668449
208.5000,0.871853,246.715,0.660533
208.4000,0.0753031,247.165,0.666127
208.3000,-1.16567,248.042,0.677007
208.2000,0.243633,247.879,0.674985
208.1000,2.4391,247.602,0.671557
208.0000,0.806982,248.115,0.677905
207.9000,0.35966,248.762,0.685909
207.8000,3.98117,248.806,0.686455
207.7000,-1.82586,249.498,0.695
207.6000,-0.536166,249.331,0.692946
207.5000,0.00032696,248.456,0.682126
207.4000,2.05821,248.919,0.687855
207.3000,-1.78738,249.471,0.694665
207.2000,2.754E-005,249.44,0.694288
207.1000,0.545833,249.654,0.696927
207.0000,-1.37421,249.559,0.695754
206.9000,-0.932939,249.952,0.700598
206.8000,-0.938092,251.038,0.713935
206.7000,0.874425,250.256,0.704334
206.6000,2.37031,250.435,0.706535
206.5000,0.978879,251.2,0.715922
206.4000,0.759836,250.844,0.711558
206.3000,0.499107,250.791,0.710905
206.2000,0.666511,250.097,0.702382
206.1000,0.554545,251.717,0.722251
206.0000,2.71737,251.611,0.720961
205.9000,-0.400023,251.935,0.724926
205.8000,2.43554,251.874,0.724178
205.7000,2.45044,251.466,0.719185
205.6000,3.03292,251.67,0.721682
205.5000,1.5206,252.023,0.725993
205.4000,-0.0829798,251.787,0.72311
205.3000,2.57316,254.165,0.752097
205.2000,1.5773,252.953,0.737349
205.1000,-0.123126,253.051,0.73855
205.0000,1.11122,253.527,0.744344
204.9000,0.42971,253.991,0.749978
204.8000,0.458334,253.835,0.748092
204.7000,3.90277,253.994,0.750019
204.6000,4.00406,253.371,0.742442
204.5000,1.6848,254.537,0.756606
204.4000,2.6768,254.29,0.75361
204.3000,-1.40951,254.796,0.759751
204.2000,0.359801,255.334,0.766266
204.1000,1.01153,255.227,0.764964
204.0000,0.894533,255.497,0.768225
203.9000,1.96113,255.508,0.768362
203.8000,1.89106,256.097,0.775477
203.7000,0.555037,256.009,0.774411
203.6000,0.693593,256.351,0.778538
203.5000,3.77828,256.53,0.780696
203.4000,0.478468,256.962,0.785893
203.3000,2.50481,256.735,0.783166
203.2000,3.81703,256.834,0.784352
203.1000,2.41819,257.799,0.795954
203.0000,1.79435,257.715,0.794947
202.9000,0.128197,257.62,0.793805
202.8000,3.61494,256.976,0.78607
202.7000,1.35335,258.708,0.806841
202.6000,-1.59304,258.258,0.801455
202.5000,3.51801,259.378,0.814857
202.4000,3.23354,258.709,0.806854
202.3000,1.75058,259.424,0.815398
202.2000,2.44608,259.152,0.812151
202.1000,0.132166,260.081,0.823234
202.0000,1.01175,260.522,0.82848
201.9000,2.49907,259.914,0.82125
201.8000,-0.525825,260.897,0.832938
201.7000,2.05197,260.823,0.832063
201.6000,-0.19969,260.965,0.833746
201.5000,1.59572,261.591,0.841181
201.4000,2.21142,261.348,0.838292
201.3000,0.357246,261.83,0.844014
201.2000,-0.893143,262.441,0.851241
201.1000,0.101383,262.517,0.852138
201.0000,2.06118,262.236,0.848816
200.9000,3.2718,263.386,0.862396
200.8000,4.16197,263.23,0.860553
200.7000,-2.71154,263.061,0.858561
200.6000,0.893054,263.78,0.867041
200.5000,6.57997,264.283,0.872959
200.4000,1.36731,263.766,0.866868
200.3000,3.55219,264.521,0.875755
200.2000,5.21006,264.553,0.876127
200.1000,0.876677,264.773,0.878708
200.0000,1.13723,264.843,0.879532
199.9000,5.45832,264.867,0.879811
199.8000,1.04092,265.678,0.889317
199.7000,-1.40641,266.013,0.893227
199.6000,2.39525,266.239,0.895875
199.5000,0.545934,266.133,0.894631
199.4000,2.3396,266.687,0.9011
199.3000,-2.00419,266.409,0.89786
199.2000,3.08243,267.175,0.906793
199.1000,0.990886,267.052,0.905354
199.0000,2.1292,267.283,0.908046
198.9000,-3.88543,266.837,0.902858
198.8000,1.36874,267.671,0.912569
198.7000,0.578548,268.271,0.919534
198.6000,-1.84342,268.83,0.926026
198.5000,2.27719,268.911,0.926958
198.4000,4.20515,269.054,0.928612
198.3000,4.65735,268.628,0.923675
198.2000,-0.184668,269.132,0.929517
198.1000,2.5966,269.862,0.937956
198.0000,0.928816,269.773,0.936935
197.9000,-0.737916,269.702,0.93611
197.8000,4.33162,270.104,0.940756
197.7000,0.0858628,270.558,0.945997
197.6000,2.07822,270.725,0.947916
197.5000,-0.191047,271.244,0.95389
197.4000,6.87533,271.842,0.960766
197.3000,2.0641,271.625,0.958267
197.2000,1.02482,271.538,0.957278
197.1000,2.07873,272.372,0.966849
197.0000,0.80691,271.785,0.960115
196.9000,4.70302,273.067,0.974803
196.8000,2.04608,273.147,0.975723
196.7000,0.890971,273.363,0.978184
196.6000,2.52138,272.896,0.972845
196.5000,3.37581,274.011,0.985584
196.4000,6.40054,273.757,0.982688
196.3000,0.618,274.016,0.985649
196.2000,1.34646,274.01,0.985571
196.1000,0.28678,274.575,0.992015
196.0000,-1.5129,275.77,1.0056
195.9000,-0.0700183,275.424,1.00167
195.8000,0.164968,275.735,1.0052
195.7000,-1.53556,276.116,1.00952
195.6000,-1.90108,276.669,1.01578
195.5000,-0.0741648,277.243,1.02228
195.4000,1.08226,277.224,1.02206
195.3000,-0.726843,277.748,1.02797
195.2000,5.80553,278.196,1.03303
195.1000,2.79714,278.484,1.03627
195.0000,0.935585,278.225,1.03334
194.9000,2.78126,278.692,1.0386
194.8000,-1.01196,278.391,1.03522
194.7000,3.13405,279.516,1.04786
194.6000,5.19815,280.021,1.05352
194.5000,-7.07339,279.83,1.05138
194.4000,2.03521,281.105,1.06564
194.3000,2.10058,280.865,1.06296
194.2000,-2.29613,281.193,1.06663
194.1000,-2.98024,281.678,1.07204
194.0000,0.0748036,281.998,1.0756
193.9000,1.58565,282.993,1.08667
193.8000,1.41296,283.755,1.09512
193.7000,-1.14919,284.296,1.10111
193.6000,0.528818,284.251,1.10062
193.5000,6.93723,286.14,1.12146
193.4000,0.654414,285.228,1.11141
193.3000,6.41643,287.205,1.13316
193.2000,1.56124,287.021,1.13113
193.1000,-0.836317,287.219,1.13331
193.0000,6.17038,288.123,1.14321
192.9000,4.21714,288.495,1.14728
192.8000,1.25879,289.149,1.15441
192.7000,1.49831,289.818,1.16171
192.6000,0.966695,289.866,1.16223
192.5000,1.53941,290.853,1.17296
192.4000,-1.57428,292.013,1.18553
192.3000,0.443957,292.479,1.19056
192.2000,-0.849615,293.887,1.20575
192.1000,4.50246,293.663,1.20334
192.0000,-1.44793,295.072,1.21848
191.9000,3.43578,294.933,1.21699
191.8000,-2.1388,296.444,1.23317
191.7000,-1.0762,297.63,1.24581
191.6000,3.6527,297.411,1.24348
191.5000,0.681595,298.76,1.25783
191.4000,1.46313,299.284,1.26338
191.3000,0.602098,300.639,1.27772
191.2000,2.10927,301.883,1.29084
191.1000,-2.47234,303.45,1.30729
191.0000,-0.769511,303.617,1.30903
190.9000,9.65715,304.947,1.32294
190.8000,-0.202393,305.938,1.33327
190.7000,2.23484,307.996,1.35462
190.6000,1.47035,309.545,1.37062
190.5000,3.08922,310.162,1.37698
190.4000,5.255,312.629,1.40227
190.3000,1.04599,312.587,1.40184
190.2000,5.16272,314.106,1.41733
190.1000,6.93282,315.026,1.42669
190.0000,0.783127,316.317,1.43978

##### Extended Information
[Comments]
Sample name,SL_IM_Buff
Comment
User,Lahoff
Division
Company,Saint Mary's College

[Detailed Information]
Creation date,9/27/2022 4:59 PM

Data array type,Linear data array * 3
Horizontal axis,Wavelength [nm]
Vertical axis(1),CD [mdeg]
Vertical axis(2),HT [V]
Vertical axis(3),Abs
Start,320 nm
End,190 nm
Data interval,0.1 nm
Data points,1301    

[Measurement Information]
Instrument name,J-1500
Model name,J-1500
Serial No.,B051061638

Detector,PM-539
Detector S/N,B051061638
  Lock-in amp.,X mode
  HT volt,Auto

Accessory,PTC-517
Accessory S/N,B026561646
  Temperature,21.89 C
  Control sensor,Holder
  Monitor sensor,Holder

Measurement date,9/27/2022 4:58 PM

CD Overload detect,1273
Photometric mode,CD, HT, Abs
Measure range,320 - 190 nm
Data pitch,0.1 nm
CD scale,20 mdeg/0.05 dOD
FL scale,20 mdeg/0.05 dOD
D.I.T.,8 msec
Bandwidth,2.00 nm
Start mode,Immediately
Scanning mode,Continuous
Scanning speed,100 nm/min
Baseline correction,None
Shutter control,Auto
No. of cycle,1/1
N2 Flowmeter,Manual

Solvent,KCl buffer

