TITLE,TB TH  KD_ Buffer and Additive 
DATA TYPE,
ORIGIN,JASCO
OWNER,
DATE,22/09/29
TIME,16:03:19
SPECTROMETER/DATA SYSTEM,
LOCALE,1033
RESOLUTION,
DELTAX,-0.1
XUNITS,NANOMETERS
YUNITS,CD [mdeg]
Y2UNITS,HT [V]
Y3UNITS,ABSORBANCE
FIRSTX,  320.0000
LASTX,  190.0000
NPOINTS,    1301
FIRSTY,     1.72248
MAXY,    23.60658
MINY,   -23.60644
XYDATA
320.0000,1.72248,209.036,0.15902
319.9000,1.64476,209.332,0.163237
319.8000,1.02964,208.738,0.154766
319.7000,0.394112,209.05,0.159214
319.6000,1.23562,209.329,0.163188
319.5000,2.66742,209.569,0.166609
319.4000,0.839833,209.114,0.160135
319.3000,1.98288,209.051,0.15923
319.2000,0.760152,209.88,0.171043
319.1000,1.66452,208.33,0.148935
319.0000,-0.776888,208.711,0.154377
318.9000,1.29458,208.78,0.155365
318.8000,0.671189,209.944,0.171945
318.7000,-0.267446,208.678,0.153908
318.6000,1.84748,209.16,0.160781
318.5000,0.729028,209.275,0.162429
318.4000,1.34399,209.263,0.162251
318.3000,1.32623,209.045,0.159149
318.2000,2.17993,208.729,0.154636
318.1000,1.40879,208.714,0.154426
318.0000,2.03295,209.409,0.164334
317.9000,0.759786,208.764,0.155138
317.8000,1.82592,208.329,0.148919
317.7000,2.12363,209.534,0.166109
317.6000,1.76401,209.122,0.160248
317.5000,1.12422,209.266,0.1623
317.4000,2.27813,209.093,0.159828
317.3000,-0.920521,208.376,0.149583
317.2000,3.44439,209.117,0.160168
317.1000,1.01023,208.753,0.154976
317.0000,1.90024,209.083,0.159683
316.9000,0.661864,209.713,0.168658
316.8000,1.51817,208.696,0.154167
316.7000,2.17485,209.009,0.158632
316.6000,1.81747,208.957,0.157888
316.5000,1.86335,208.433,0.15041
316.4000,-0.368152,209.223,0.161686
316.3000,2.36101,208.448,0.15062
316.2000,1.27625,208.538,0.1519
316.1000,1.49259,208.768,0.155187
316.0000,0.842376,209.461,0.165077
315.9000,2.12785,208.934,0.157565
315.8000,1.23951,207.76,0.140772
315.7000,1.91416,208.714,0.154426
315.6000,1.1444,209.134,0.16041
315.5000,1.53494,209.399,0.164189
315.4000,-0.133848,208.608,0.152904
315.3000,1.3092,208.684,0.153989
315.2000,1.8388,207.712,0.140073
315.1000,0.951191,209.525,0.165981
315.0000,0.469799,208.266,0.14801
314.9000,0.273444,209.471,0.165222
314.8000,2.52909,207.921,0.143078
314.7000,1.18065,208.288,0.148335
314.6000,1.20327,208.689,0.15407
314.5000,2.33883,208.198,0.147037
314.4000,0.654671,208.454,0.150701
314.3000,0.40563,208.001,0.144215
314.2000,1.93102,209.519,0.1659
314.1000,2.17766,208.265,0.147994
314.0000,2.73431,207.445,0.136252
313.9000,2.04314,209.327,0.163172
313.8000,1.53743,207.806,0.141421
313.7000,0.194634,208.632,0.153244
313.6000,0.734675,208.858,0.156481
313.5000,1.66041,207.375,0.135243
313.4000,1.49402,207.982,0.143955
313.3000,0.999137,208.325,0.148854
313.2000,2.11509,207.545,0.137683
313.1000,1.5537,208.009,0.144328
313.0000,0.349543,208.912,0.157241
312.9000,2.0673,208.205,0.147135
312.8000,-0.391096,208.371,0.149518
312.7000,0.855326,208.324,0.148838
312.6000,-0.120186,209.429,0.164625
312.5000,1.59377,208.083,0.145399
312.4000,0.713728,207.464,0.136512
312.3000,1.83768,208.367,0.149453
312.2000,2.35409,207.944,0.143403
312.1000,0.322408,209.859,0.170737
312.0000,2.22964,208.235,0.147573
311.9000,0.521156,208.242,0.14767
311.8000,2.23669,207.311,0.134316
311.7000,0.83802,209.691,0.168351
311.6000,2.05085,208.992,0.158389
311.5000,1.02952,208.177,0.146746
311.4000,1.47074,207.739,0.140463
311.3000,1.07881,207.861,0.142217
311.2000,0.144271,208.377,0.149599
311.1000,0.463626,208.548,0.152046
311.0000,0.473931,208.126,0.146016
310.9000,0.421623,208.716,0.154442
310.8000,0.243702,209.113,0.160119
310.7000,1.68389,208.052,0.144945
310.6000,0.60686,208.509,0.151495
310.5000,0.890403,208.725,0.154571
310.4000,2.38881,208.73,0.154652
310.3000,1.38222,208.759,0.155057
310.2000,0.416976,208.141,0.146226
310.1000,0.220339,209.261,0.162219
310.0000,1.16697,207.953,0.143533
309.9000,0.0583848,207.578,0.138155
309.8000,1.60407,208.867,0.15661
309.7000,-0.115624,208.2,0.14707
309.6000,0.843653,208.457,0.15075
309.5000,0.316181,208.364,0.149421
309.4000,-0.0772897,208.185,0.146859
309.3000,2.65106,208.129,0.146048
309.2000,2.70229,208.6,0.152791
309.1000,1.94056,208.862,0.15653
309.0000,0.339732,208.812,0.155818
308.9000,-1.46558,209.097,0.159893
308.8000,1.33562,207.61,0.13861
308.7000,1.2969,208.831,0.156093
308.6000,1.28985,208.082,0.145383
308.5000,1.11198,206.951,0.129152
308.4000,1.99568,209.281,0.16251
308.3000,1.06658,208.697,0.154183
308.2000,2.49525,208.174,0.146697
308.1000,1.48034,209.031,0.158939
308.0000,1.34644,208.015,0.144425
307.9000,1.50337,206.681,0.125255
307.8000,1.22448,209.551,0.166351
307.7000,0.476064,209.539,0.16619
307.6000,1.38529,208.772,0.155251
307.5000,-1.89827,209.195,0.161282
307.4000,1.08914,208.273,0.148108
307.3000,0.795464,208.503,0.151398
307.2000,1.053,209.065,0.159424
307.1000,0.686366,207.874,0.142396
307.0000,2.3587,208.063,0.145107
306.9000,1.5343,208.215,0.147281
306.8000,2.22798,207.885,0.142558
306.7000,2.68146,209.04,0.159068
306.6000,1.21425,209.028,0.158907
306.5000,1.4093,209.092,0.159812
306.4000,1.98464,210.037,0.173266
306.3000,1.61728,208.708,0.154329
306.2000,-0.313083,209.412,0.164383
306.1000,0.284946,208.252,0.147816
306.0000,1.86488,207.839,0.141893
305.9000,1.53446,208.616,0.153017
305.8000,2.33048,208.399,0.149923
305.7000,0.938236,208.338,0.149048
305.6000,0.846491,208.743,0.154831
305.5000,0.564079,208.512,0.151528
305.4000,1.44256,208.479,0.151058
305.3000,1.04509,208.429,0.150345
305.2000,1.72957,208.436,0.150442
305.1000,1.80757,208.336,0.149016
305.0000,1.0824,208.552,0.152111
304.9000,0.923126,208.582,0.152532
304.8000,1.52027,207.784,0.141113
304.7000,-1.12724,208.516,0.151592
304.6000,0.738609,208.25,0.147784
304.5000,1.90878,207.074,0.130913
304.4000,-0.584643,207.637,0.139
304.3000,2.01926,208.556,0.152159
304.2000,0.346371,208.735,0.154717
304.1000,-0.0574818,208.233,0.14754
304.0000,1.0375,208.225,0.147427
303.9000,3.46672,208.035,0.144701
303.8000,3.90468,208.412,0.150102
303.7000,0.319439,208.309,0.148627
303.6000,0.0656466,207.312,0.134332
303.5000,1.80163,208.532,0.151819
303.4000,1.25904,208.62,0.153082
303.3000,0.375627,207.112,0.131466
303.2000,2.60646,207.856,0.142136
303.1000,1.85672,208.312,0.148675
303.0000,1.28057,207.819,0.141617
302.9000,0.0161515,208.309,0.148627
302.8000,0.0685123,208.39,0.149794
302.7000,-0.777279,208.733,0.154685
302.6000,1.56246,208.692,0.154102
302.5000,1.277,207.869,0.142331
302.4000,-0.218167,208.455,0.150717
302.3000,1.03272,208.082,0.145383
302.2000,-0.725136,208.048,0.144896
302.1000,0.121292,208.116,0.14587
302.0000,1.23996,208.251,0.1478
301.9000,1.78788,208.03,0.144636
301.8000,1.24697,208.063,0.145107
301.7000,2.03361,208.001,0.144215
301.6000,1.58866,207.698,0.139878
301.5000,1.25701,208.779,0.155348
301.4000,1.43193,208.65,0.153503
301.3000,2.03079,207.513,0.137228
301.2000,0.355758,207.275,0.133811
301.1000,1.07751,208.38,0.149648
301.0000,0.842352,208.597,0.152742
300.9000,0.402541,207.984,0.143971
300.8000,1.34512,207.82,0.141633
300.7000,2.0872,207.877,0.142445
300.6000,0.984797,208.347,0.149178
300.5000,1.2822,208.632,0.153244
300.4000,1.0785,207.846,0.142006
300.3000,0.497921,208.125,0.146
300.2000,0.316912,208.091,0.145513
300.1000,0.179199,208.449,0.150636
300.0000,0.902535,208.302,0.148529
299.9000,1.02374,207.272,0.133762
299.8000,2.177,208.404,0.149988
299.7000,0.750409,208.556,0.152159
299.6000,1.73005,207.205,0.132802
299.5000,1.41473,208.206,0.147151
299.4000,0.835121,208.464,0.150847
299.3000,2.32896,206.916,0.128647
299.2000,-0.831378,207.704,0.139959
299.1000,-0.372952,208.114,0.145837
299.0000,0.834947,207.656,0.139277
298.9000,0.460679,207.959,0.143614
298.8000,0.908886,207.827,0.14173
298.7000,0.806429,207.687,0.139715
298.6000,1.29545,208.161,0.146519
298.5000,-0.778703,208.745,0.154863
298.4000,0.197539,207.502,0.137066
298.3000,0.0415227,208.373,0.149551
298.2000,2.37217,207.394,0.13552
298.1000,0.963506,207.602,0.138496
298.0000,2.879,208.598,0.152758
297.9000,0.630625,208.149,0.14634
297.8000,0.202744,208.705,0.154296
297.7000,1.31959,207.452,0.13635
297.6000,0.474229,207.475,0.136675
297.5000,-1.01993,207.874,0.142396
297.4000,1.60809,207.969,0.14376
297.3000,2.75324,207.162,0.132183
297.2000,1.71454,207.86,0.142201
297.1000,1.58417,208.209,0.1472
297.0000,-0.113207,207.403,0.13565
296.9000,2.00108,207.965,0.143711
296.8000,0.842553,207.832,0.141795
296.7000,0.276794,208.358,0.149324
296.6000,1.44688,208.273,0.148108
296.5000,2.40759,206.434,0.121696
296.4000,0.54566,207.015,0.130065
296.3000,-1.40926,207.65,0.139195
296.2000,1.62155,207.943,0.143386
296.1000,1.256,207.102,0.13132
296.0000,1.56374,208.824,0.155996
295.9000,1.42774,208.866,0.156594
295.8000,0.899148,207.439,0.136154
295.7000,1.08028,207.793,0.141243
295.6000,1.73556,207.109,0.131417
295.5000,-1.89165,207.449,0.136301
295.4000,0.957206,206.615,0.124308
295.3000,-0.108211,207.948,0.143468
295.2000,1.78455,206.962,0.129299
295.1000,1.41771,207.189,0.132574
295.0000,0.358824,207.738,0.140447
294.9000,0.489466,207.902,0.142802
294.8000,1.54068,206.923,0.128745
294.7000,0.28155,207.009,0.129984
294.6000,1.42693,208.019,0.144474
294.5000,2.15123,207.945,0.143419
294.4000,1.73027,207.502,0.137066
294.3000,1.4797,206.729,0.125956
294.2000,1.91675,207.596,0.138415
294.1000,1.28378,206.94,0.128989
294.0000,2.45817,207.525,0.137391
293.9000,2.26443,207.321,0.134462
293.8000,1.49872,207.366,0.135113
293.7000,0.153403,207.812,0.141519
293.6000,0.901846,206.956,0.129218
293.5000,0.605308,209.134,0.16041
293.4000,1.68541,207.601,0.13848
293.3000,-0.626491,207.425,0.135959
293.2000,3.34874,206.653,0.124863
293.1000,1.26639,207.346,0.13482
293.0000,-0.16363,207.524,0.137374
292.9000,1.91473,207.707,0.140008
292.8000,0.40658,207.096,0.131238
292.7000,0.910339,208.043,0.144815
292.6000,1.52695,206.917,0.128663
292.5000,1.38643,207.598,0.138448
292.4000,0.360499,207.077,0.130962
292.3000,1.52769,207.458,0.136431
292.2000,2.26871,206.975,0.129495
292.1000,0.90034,207.296,0.134104
292.0000,1.65563,206.856,0.127783
291.9000,1.82806,206.895,0.128337
291.8000,0.212272,206.805,0.12705
291.7000,1.53474,206.565,0.12359
291.6000,1.27923,207.677,0.139569
291.5000,1.14295,206.42,0.1215
291.4000,1.62621,207.653,0.139228
291.3000,1.17893,206.931,0.128859
291.2000,0.392956,206.734,0.126022
291.1000,0.343061,206.265,0.119262
291.0000,0.543636,207.424,0.135943
290.9000,0.366451,207.973,0.143825
290.8000,0.861365,206.017,0.115681
290.7000,0.33225,205.778,0.112227
290.6000,0.658946,206.266,0.119278
290.5000,1.22306,207.311,0.134316
290.4000,-0.474097,206.997,0.129804
290.3000,1.16056,207.393,0.135504
290.2000,1.06711,207.529,0.137456
290.1000,0.832663,207.086,0.131092
290.0000,2.02088,207.495,0.136968
289.9000,2.47006,206.497,0.122611
289.8000,-0.319984,206.531,0.1231
289.7000,-0.381103,206.732,0.125989
289.6000,2.89783,208.069,0.145188
289.5000,2.26125,207.308,0.134283
289.4000,1.6506,207.396,0.135536
289.3000,0.408736,206.12,0.117169
289.2000,-0.481223,207.093,0.131189
289.1000,1.34007,207.204,0.132786
289.0000,0.819162,206.429,0.121631
288.9000,0.973542,206.899,0.128403
288.8000,1.64215,207.456,0.136398
288.7000,0.513308,206.302,0.119801
288.6000,1.5162,206.809,0.127098
288.5000,-0.312508,207.534,0.137521
288.4000,-0.256872,206.303,0.119817
288.3000,-0.0762661,207.894,0.142688
288.2000,1.52406,207.521,0.137342
288.1000,1.78759,207.498,0.137
288.0000,-0.107499,207.701,0.139927
287.9000,1.82156,205.936,0.114519
287.8000,-0.575524,206.871,0.127995
287.7000,0.587582,206.873,0.128028
287.6000,0.333285,207.247,0.133404
287.5000,0.491784,207.275,0.133811
287.4000,-1.1882,205.399,0.106753
287.3000,-0.0889168,207.011,0.130016
287.2000,0.0651351,207.903,0.142818
287.1000,0.430692,207.263,0.133632
287.0000,-0.00726073,205.748,0.111801
286.9000,1.58091,207.284,0.133941
286.8000,1.41362,206.59,0.12395
286.7000,2.04443,207.047,0.130521
286.6000,1.7367,205.592,0.10954
286.5000,0.381271,207.005,0.129919
286.4000,0.927381,207.601,0.13848
286.3000,0.839212,206.695,0.125467
286.2000,-0.540734,207.335,0.134674
286.1000,2.12798,206.095,0.116809
286.0000,1.09741,207.26,0.133583
285.9000,2.39773,207.107,0.131385
285.8000,1.40177,206.839,0.127539
285.7000,0.652528,207.636,0.138984
285.6000,0.762403,207.335,0.134674
285.5000,1.72804,207.269,0.133713
285.4000,-0.11252,206.699,0.125516
285.3000,0.0996976,207.597,0.138431
285.2000,0.252186,207.12,0.13158
285.1000,1.18346,207.473,0.136642
285.0000,1.85507,207.086,0.131092
284.9000,0.544387,206.933,0.128892
284.8000,0.991169,207.718,0.140171
284.7000,-0.102373,207.379,0.135292
284.6000,-0.560837,206.879,0.128109
284.5000,1.30891,206.882,0.128158
284.4000,0.557308,206.6,0.124096
284.3000,0.868865,206.837,0.127506
284.2000,1.14512,206.49,0.122513
284.1000,0.667984,206.521,0.122953
284.0000,0.573931,207.394,0.13552
283.9000,1.82775,206.64,0.124667
283.8000,0.698011,208.727,0.154604
283.7000,-0.13463,207.532,0.137488
283.6000,-1.04316,207.987,0.14402
283.5000,0.258557,207.288,0.13399
283.4000,-0.165337,207.823,0.141665
283.3000,0.934066,207.619,0.13874
283.2000,1.57645,206.278,0.119458
283.1000,3.10165,207.762,0.140788
283.0000,0.788778,206.253,0.119098
282.9000,1.53577,207.803,0.141389
282.8000,1.57892,206.973,0.129462
282.7000,1.62788,207.959,0.143614
282.6000,2.04937,206.992,0.129739
282.5000,-0.4842,205.83,0.11298
282.4000,0.398542,206.157,0.117709
282.3000,1.67378,207.125,0.131646
282.2000,0.394532,206.554,0.123427
282.1000,1.39742,206.903,0.128452
282.0000,1.79618,205.61,0.109803
281.9000,2.27565,207.402,0.135634
281.8000,2.88448,207.843,0.141958
281.7000,-1.62578,206.69,0.125385
281.6000,0.874809,204.997,0.100926
281.5000,-0.14785,205.197,0.103833
281.4000,2.12158,206.934,0.128908
281.3000,1.19115,206.524,0.123003
281.2000,1.04601,207.02,0.130147
281.1000,-0.731883,206.736,0.126054
281.0000,0.659467,206.591,0.123966
280.9000,1.22893,206.709,0.125663
280.8000,1.97372,207.06,0.130717
280.7000,1.35854,207.866,0.142282
280.6000,-0.57404,207.509,0.137163
280.5000,0.272365,206.946,0.129071
280.4000,1.6645,205.387,0.106573
280.3000,2.15076,206.642,0.1247
280.2000,1.20097,207.65,0.139195
280.1000,0.0974664,206.938,0.128957
280.0000,1.33414,206.767,0.126495
279.9000,2.08607,206.717,0.125777
279.8000,1.05111,207.699,0.139894
279.7000,1.12217,206.671,0.125124
279.6000,0.575243,207.542,0.137635
279.5000,0.689496,207.936,0.143289
279.4000,1.28928,206.82,0.127261
279.3000,-0.43326,207.866,0.142282
279.2000,1.43019,207.358,0.134999
279.1000,1.58604,206.6,0.124096
279.0000,0.445841,207.203,0.132769
278.9000,2.56114,206.98,0.12956
278.8000,2.4583,208.381,0.149664
278.7000,1.4872,207.108,0.131401
278.6000,-1.37139,207.496,0.136984
278.5000,1.17109,207.099,0.131271
278.4000,2.62778,206.712,0.125712
278.3000,0.999782,206.392,0.121092
278.2000,-0.333113,207.808,0.141454
278.1000,-0.622681,207.091,0.131157
278.0000,1.81535,206.874,0.128044
277.9000,1.32495,206.67,0.125108
277.8000,0.95041,207.207,0.132835
277.7000,-0.240618,207.456,0.136398
277.6000,0.995963,207.66,0.139325
277.5000,-0.745448,207.512,0.137212
277.4000,1.43931,206.839,0.127539
277.3000,1.67074,208.098,0.14561
277.2000,0.397741,206.617,0.124341
277.1000,0.847094,206.61,0.124243
277.0000,0.359421,208.011,0.14436
276.9000,0.948536,207.772,0.140934
276.8000,1.3931,207.057,0.130668
276.7000,0.612117,206.583,0.123851
276.6000,2.90687,207.747,0.140577
276.5000,0.591462,208.135,0.146145
276.4000,1.42305,207.556,0.137846
276.3000,0.552691,206.388,0.121043
276.2000,0.198997,207.839,0.141893
276.1000,0.932247,207.647,0.139147
276.0000,0.71369,208.041,0.144799
275.9000,0.560285,207.086,0.131092
275.8000,0.572089,207.633,0.138952
275.7000,1.25028,206.702,0.125565
275.6000,0.606543,207.175,0.132362
275.5000,-0.254062,206.506,0.122741
275.4000,1.57677,207.028,0.130261
275.3000,1.06572,206.962,0.129299
275.2000,0.882509,206.906,0.1285
275.1000,0.677683,208.018,0.144458
275.0000,0.617347,206.861,0.127848
274.9000,0.374718,207.639,0.139033
274.8000,2.25753,206.302,0.119801
274.7000,1.86541,207.616,0.138708
274.6000,0.725684,205.688,0.110933
274.5000,-0.842977,206.08,0.116597
274.4000,1.20243,206.684,0.125304
274.3000,0.422732,206.739,0.126103
274.2000,1.42538,206.835,0.127473
274.1000,0.00488245,206.6,0.124096
274.0000,1.85901,207.766,0.140853
273.9000,-0.679907,207.9,0.14277
273.8000,1.60938,207.504,0.137098
273.7000,0.621276,206.217,0.118575
273.6000,0.644184,207.551,0.137765
273.5000,0.966037,207.775,0.140983
273.4000,1.13088,207.638,0.139017
273.3000,-0.466146,207.511,0.137195
273.2000,0.450443,207.688,0.139732
273.1000,1.86036,207.409,0.135731
273.0000,1.58531,207.212,0.132899
272.9000,0.958858,207.364,0.135081
272.8000,1.34744,207.318,0.13443
272.7000,1.12684,207.521,0.137342
272.6000,0.915561,206.528,0.123052
272.5000,2.16941,207.66,0.139325
272.4000,0.508575,207.687,0.139715
272.3000,1.68168,207.63,0.138903
272.2000,2.75153,207.75,0.140625
272.1000,-0.109858,207.229,0.133144
272.0000,2.72737,208.144,0.146275
271.9000,-0.282301,207.32,0.134446
271.8000,0.492938,207.918,0.143029
271.7000,1.26721,207.963,0.143679
271.6000,1.37961,207.887,0.142591
271.5000,0.698028,207.466,0.136545
271.4000,1.94157,207.433,0.136073
271.3000,-0.0661773,206.843,0.127587
271.2000,0.832851,207.605,0.138545
271.1000,-2.29,207.801,0.141356
271.0000,0.163085,207.28,0.133876
270.9000,-0.679775,206.92,0.128696
270.8000,0.548999,207.425,0.135959
270.7000,1.18239,207.567,0.137992
270.6000,2.69286,208.396,0.149875
270.5000,-0.130354,206.412,0.121386
270.4000,2.37482,207.393,0.135504
270.3000,0.640291,208.249,0.147767
270.2000,0.488994,207.9,0.14277
270.1000,0.995479,207.304,0.134218
270.0000,-0.593845,207.28,0.133876
269.9000,0.647231,207.493,0.136935
269.8000,-0.491789,208.845,0.156287
269.7000,0.787964,208.014,0.144409
269.6000,2.21873,208.7,0.154215
269.5000,1.62787,208.134,0.146129
269.4000,0.0437352,207.1,0.131287
269.3000,-0.317892,208.114,0.145837
269.2000,0.412848,207.105,0.131369
269.1000,0.0982985,206.803,0.127017
269.0000,-0.0173855,209.331,0.16322
268.9000,-0.801927,208.75,0.154928
268.8000,0.925254,209.174,0.160992
268.7000,1.17447,208.104,0.145691
268.6000,1.87801,208.036,0.144718
268.5000,0.947248,208.927,0.157468
268.4000,1.8827,208.642,0.15339
268.3000,1.05738,209.144,0.160555
268.2000,1.95982,207.87,0.142347
268.1000,0.780091,207.641,0.139065
268.0000,-0.0454766,207.243,0.133339
267.9000,0.990443,207.085,0.131075
267.8000,0.640694,208.635,0.153293
267.7000,1.11845,209.118,0.160184
267.6000,0.88715,207.82,0.141633
267.5000,-0.205403,208.812,0.155818
267.4000,1.60504,209.393,0.164108
267.3000,0.841137,208.065,0.145139
267.2000,1.23092,208.67,0.153795
267.1000,1.74132,208.64,0.153357
267.0000,0.213652,207.9,0.14277
266.9000,0.369132,209.012,0.15868
266.8000,0.392825,208.601,0.152807
266.7000,0.185348,207.997,0.144166
266.6000,0.464583,209.059,0.159343
266.5000,0.407357,207.476,0.136691
266.4000,1.80434,208.608,0.152904
266.3000,0.588921,209.628,0.167448
266.2000,0.701176,208.881,0.156804
266.1000,1.23462,208.564,0.152273
266.0000,2.16925,207.903,0.142818
265.9000,-0.884163,207.936,0.143289
265.8000,0.352775,208.624,0.153131
265.7000,0.7063,208.747,0.154895
265.6000,0.847018,208.453,0.150685
265.5000,0.516452,209.651,0.167787
265.4000,1.12502,208.065,0.145139
265.3000,-0.141908,208.342,0.149097
265.2000,-0.353649,209.394,0.164125
265.1000,-0.596558,208.649,0.153487
265.0000,0.448959,208.606,0.152872
264.9000,1.67462,208.633,0.15326
264.8000,-0.682593,210.416,0.178656
264.7000,0.965169,208.37,0.149502
264.6000,1.82386,207.678,0.139586
264.5000,0.309357,209.993,0.172638
264.4000,-0.308973,209.219,0.161622
264.3000,1.78161,209.806,0.16998
264.2000,1.74976,209.617,0.167303
264.1000,0.757718,208.405,0.150004
264.0000,0.555171,208.922,0.157387
263.9000,1.31493,209.709,0.168609
263.8000,-0.790755,209.979,0.172445
263.7000,-1.21077,209.712,0.168642
263.6000,0.829361,208.245,0.147719
263.5000,1.8941,209.7,0.168481
263.4000,-1.62815,209.499,0.165609
263.3000,-0.260589,209.493,0.165529
263.2000,1.15622,209.617,0.167303
263.1000,0.457828,210.385,0.178206
263.0000,0.227939,210.705,0.182754
262.9000,0.0875231,209.072,0.159537
262.8000,-1.62925,209.314,0.162978
262.7000,0.424646,210.093,0.174071
262.6000,-1.71037,211.379,0.192297
262.5000,0.257671,209.366,0.163721
262.4000,-0.131886,210.073,0.173781
262.3000,-0.280779,210.065,0.173668
262.2000,0.55995,209.901,0.171333
262.1000,0.0759044,209.889,0.171172
262.0000,2.0678,210.523,0.180167
261.9000,1.37297,209.772,0.169496
261.8000,1.34813,209.8,0.169899
261.7000,0.733187,209.792,0.169786
261.6000,-0.110674,209.904,0.171382
261.5000,-0.482023,210.085,0.173958
261.4000,0.000445655,210.199,0.175568
261.3000,-0.474685,209.732,0.168932
261.2000,-1.17157,210.342,0.177595
261.1000,2.39967,209.522,0.165948
261.0000,-0.602149,209.81,0.170044
260.9000,-0.254607,209.973,0.172364
260.8000,0.546534,209.732,0.168932
260.7000,0.822337,209.574,0.16669
260.6000,0.0324782,210.378,0.178109
260.5000,1.64734,210.121,0.174457
260.4000,1.28336,209.974,0.17238
260.3000,0.851627,210.396,0.178367
260.2000,1.01893,210.083,0.173926
260.1000,0.765704,210.558,0.180665
260.0000,1.50505,210.834,0.184584
259.9000,1.56935,210.104,0.174216
259.8000,-0.200413,211.001,0.186943
259.7000,0.708839,210.382,0.178174
259.6000,0.0385311,210.743,0.183284
259.5000,-0.306485,210.74,0.183251
259.4000,1.01079,210.575,0.180906
259.3000,-0.848016,210.747,0.183348
259.2000,1.05848,211.045,0.187569
259.1000,1.26753,210.995,0.186863
259.0000,1.12454,210.498,0.179813
258.9000,0.739953,210.625,0.181613
258.8000,-0.364059,210.525,0.180199
258.7000,-0.0721599,210.9,0.185515
258.6000,-0.552456,210.881,0.185242
258.5000,0.928836,210.901,0.185531
258.4000,1.45906,210.642,0.181854
258.3000,0.102341,211.413,0.192777
258.2000,-0.029322,211.093,0.188242
258.1000,-1.15667,210.859,0.184937
258.0000,1.94691,210.252,0.176324
257.9000,0.518731,210.72,0.182963
257.8000,0.894916,210.455,0.179203
257.7000,0.359619,211.892,0.19953
257.6000,0.583321,211.497,0.193962
257.5000,2.20323,211.106,0.188435
257.4000,-0.164827,211.447,0.193258
257.3000,-1.2578,210.802,0.184119
257.2000,0.0400796,210.343,0.177611
257.1000,-0.899758,211.771,0.197835
257.0000,0.596866,211.456,0.193386
256.9000,0.379604,211.535,0.194491
256.8000,-0.524085,211.494,0.193914
256.7000,1.23851,212.793,0.212232
256.6000,2.72261,212.173,0.203492
256.5000,0.607455,211.707,0.196923
256.4000,0.419159,210.874,0.185146
256.3000,2.34954,211.032,0.187376
256.2000,0.713745,211.548,0.194683
256.1000,1.07781,211.945,0.200281
256.0000,1.06488,213.116,0.21677
255.9000,-0.243366,212.866,0.213252
255.8000,-1.5533,211.864,0.199146
255.7000,0.942824,211.379,0.192297
255.6000,1.01226,211.933,0.200121
255.5000,1.43035,211.997,0.201016
255.4000,0.658556,212.217,0.204115
255.3000,0.0126688,212.241,0.20445
255.2000,-0.314947,212.698,0.210894
255.1000,-0.368826,211.422,0.192906
255.0000,1.16098,211.115,0.188563
254.9000,-0.0283633,212.554,0.208869
254.8000,1.59194,212.579,0.20922
254.7000,1.56301,211.087,0.188162
254.6000,1.35308,211.838,0.198778
254.5000,2.07046,213.495,0.22208
254.4000,0.550394,212.192,0.203763
254.3000,0.970785,211.123,0.188675
254.2000,1.46738,212.098,0.202438
254.1000,0.0215137,212.224,0.204211
254.0000,-0.918022,212.501,0.20812
253.9000,1.02242,212.447,0.207354
253.8000,-0.285817,212.464,0.207594
253.7000,1.24533,212.293,0.205184
253.6000,0.603861,211.336,0.191688
253.5000,-0.663376,213.495,0.22208
253.4000,2.04502,213.562,0.223017
253.3000,0.329746,212.396,0.206636
253.2000,1.16963,212.144,0.203093
253.1000,0.37996,212.558,0.208917
253.0000,1.54358,211.795,0.198171
252.9000,1.91031,213.206,0.218026
252.8000,1.53152,212.355,0.206062
252.7000,1.07472,213.095,0.216467
252.6000,1.44302,212.081,0.202198
252.5000,-1.24717,212.605,0.209587
252.4000,-0.470078,212.537,0.20863
252.3000,0.782599,213.022,0.215449
252.2000,0.222129,212.275,0.204929
252.1000,0.547913,212.367,0.206238
252.0000,1.96829,212.698,0.210894
251.9000,1.61418,212.103,0.202518
251.8000,-1.46641,212.689,0.210766
251.7000,0.263141,213.453,0.221492
251.6000,-0.519979,213.184,0.217724
251.5000,2.2105,213.561,0.223001
251.4000,0.782927,214.133,0.231013
251.3000,1.01035,213.667,0.224494
251.2000,2.21192,213.157,0.217342
251.1000,0.906999,213.897,0.227715
251.0000,0.8521,213.91,0.22789
250.9000,1.39648,214.237,0.232471
250.8000,0.926869,214.266,0.232883
250.7000,1.16587,214.187,0.231774
250.6000,0.710669,213.831,0.226795
250.5000,-0.448466,214.242,0.232534
250.4000,0.985028,213.19,0.217804
250.3000,1.632,213.417,0.220984
250.2000,-0.60158,213.919,0.228017
250.1000,0.829513,214.085,0.230348
250.0000,0.601663,214.194,0.231869
249.9000,1.55339,213.945,0.228382
249.8000,2.01009,213.681,0.224684
249.7000,2.17689,212.921,0.214032
249.6000,-0.111479,212.754,0.211675
249.5000,-0.11058,212.792,0.212216
249.4000,1.84871,213.309,0.219473
249.3000,0.0794636,214.066,0.230078
249.2000,-0.647062,213.619,0.223827
249.1000,-1.14989,214.102,0.230585
249.0000,1.51928,214.229,0.23236
248.9000,1.97142,213.787,0.226176
248.8000,0.708361,213.946,0.228397
248.7000,0.0904878,213.351,0.220062
248.6000,0.662973,214.113,0.230744
248.5000,1.44212,213.809,0.226478
248.4000,-0.429243,214.302,0.233374
248.3000,-0.659357,214.252,0.232677
248.2000,1.03983,214.239,0.232503
248.1000,-0.0780657,214.004,0.229206
248.0000,2.03746,214.602,0.237568
247.9000,-1.01182,214.039,0.229697
247.8000,-0.640616,214.193,0.231853
247.7000,-0.833175,213.84,0.226922
247.6000,1.83138,213.646,0.224192
247.5000,0.983977,213.762,0.225827
247.4000,1.32928,215.682,0.252613
247.3000,0.360483,213.942,0.22835
247.2000,0.444948,214.123,0.230871
247.1000,0.221846,214.117,0.230791
247.0000,0.529576,213.893,0.227652
246.9000,1.65451,215.216,0.246132
246.8000,1.92111,215.023,0.243448
246.7000,0.432065,215.772,0.253873
246.6000,0.652898,215.597,0.251431
246.5000,1.57129,214.246,0.232598
246.4000,1.44869,214.938,0.242264
246.3000,2.17825,215.532,0.250533
246.2000,0.638938,215.828,0.254645
246.1000,1.51788,214.627,0.237916
246.0000,1.4079,215.781,0.253999
245.9000,-0.525436,213.942,0.22835
245.8000,1.06198,214.294,0.233263
245.7000,2.27099,215.151,0.245233
245.6000,2.08622,215.182,0.245659
245.5000,3.1925,215.242,0.246496
245.4000,1.18775,215.065,0.244033
245.3000,-0.178522,214.345,0.233975
245.2000,2.46485,214.781,0.240067
245.1000,2.63858,214.804,0.240383
245.0000,1.23474,214.652,0.238265
244.9000,0.79785,214.469,0.235717
244.8000,0.495306,216.399,0.262572
244.7000,-1.00169,215.43,0.249114
244.6000,0.359798,214.34,0.233912
244.5000,3.09254,215.37,0.248278
244.4000,0.197973,215.191,0.245785
244.3000,1.13361,214.902,0.241758
244.2000,1.31867,216.347,0.261849
244.1000,1.64714,215.698,0.252834
244.0000,2.89002,215.163,0.245391
243.9000,1.65884,215.77,0.253842
243.8000,-0.122722,216.128,0.258815
243.7000,1.64986,216.199,0.259806
243.6000,2.64293,216.514,0.264174
243.5000,1.98933,215.108,0.244633
243.4000,1.32846,214.797,0.240288
243.3000,1.11051,216.113,0.258611
243.2000,1.94319,215.937,0.256156
243.1000,0.927024,216.462,0.263452
243.0000,0.253189,216.213,0.259995
242.9000,1.62868,216.705,0.266812
242.8000,0.745175,214.801,0.240352
242.7000,-0.0535378,216.105,0.258501
242.6000,-0.0290503,216.716,0.266969
242.5000,0.927331,216.693,0.266655
242.4000,0.833129,215.985,0.256833
242.3000,2.11339,216.595,0.265289
242.2000,0.353098,216.148,0.259098
242.1000,-0.658918,215.996,0.256975
242.0000,0.951586,216.493,0.263876
241.9000,0.777788,215.88,0.255369
241.8000,1.36018,215.89,0.255511
241.7000,-0.5375,216.833,0.268585
241.6000,-0.675104,217.069,0.271846
241.5000,-1.4131,217.019,0.271156
241.4000,0.712679,216.678,0.266435
241.3000,2.63547,217.623,0.279501
241.2000,1.08055,217.124,0.272614
241.1000,2.74623,217.611,0.279345
241.0000,-0.0479775,217.659,0.280001
240.9000,1.25894,218.327,0.289215
240.8000,0.60198,216.237,0.260325
240.7000,0.657256,217.614,0.279376
240.6000,0.0960542,217.578,0.278891
240.5000,0.239295,218.823,0.296025
240.4000,0.993233,216.887,0.269337
240.3000,0.884907,217.083,0.27205
240.2000,1.32699,218.143,0.286672
240.1000,0.088771,217.487,0.277624
240.0000,0.374073,217.992,0.284596
239.9000,1.063,218.932,0.297534
239.8000,-1.20507,217.706,0.280658
239.7000,0.487729,217.956,0.284096
239.6000,0.568393,217.727,0.280939
239.5000,-1.8477,218.795,0.295651
239.4000,-0.301768,218.545,0.292209
239.3000,0.381145,218.366,0.289745
239.2000,2.06327,219.005,0.29853
239.1000,0.463241,218.924,0.297426
239.0000,1.50274,218.004,0.284767
238.9000,0.729367,218.53,0.292006
238.8000,3.03226,219.327,0.302946
238.7000,0.978894,217.938,0.283846
238.6000,1.57295,220.188,0.314736
238.5000,-0.157263,219.477,0.305012
238.4000,0.206868,219.554,0.306068
238.3000,1.50113,219.44,0.304499
238.2000,0.918112,218.573,0.292598
238.1000,0.482073,219.596,0.306642
238.0000,1.50801,219.746,0.30869
237.9000,2.44089,219.612,0.306859
237.8000,1.5872,219.884,0.310583
237.7000,-0.707054,220.132,0.313977
237.6000,0.490255,219.755,0.308814
237.5000,1.50809,219.696,0.308008
237.4000,-1.14937,220.369,0.317213
237.3000,2.04121,219.968,0.31173
237.2000,2.12289,220.566,0.319905
237.1000,0.53798,220.707,0.321822
237.0000,-1.37557,221.354,0.330639
236.9000,3.21364,221.254,0.329281
236.8000,-0.628532,219.298,0.302557
236.7000,-0.550774,220.505,0.31907
236.6000,0.814173,221.474,0.332273
236.5000,-0.20511,221.798,0.336678
236.4000,3.03659,220.215,0.315108
236.3000,0.955298,221.014,0.326009
236.2000,1.76924,221.345,0.330515
236.1000,-0.690184,220.221,0.315185
236.0000,0.310206,220.851,0.323785
235.9000,0.937775,221.277,0.32959
235.8000,1.47118,220.35,0.31695
235.7000,-0.647214,222.008,0.339525
235.6000,3.51861,221.273,0.329543
235.5000,1.12393,222.131,0.341202
235.4000,1.32427,222.668,0.348483
235.3000,-0.563461,223.3,0.357036
235.2000,-1.20931,221.157,0.327954
235.1000,-0.0529568,222.578,0.347255
235.0000,1.53174,221.997,0.339387
234.9000,-1.05896,221.868,0.337633
234.8000,1.87073,222.863,0.351122
234.7000,0.17698,222.514,0.346395
234.6000,0.0367071,223.572,0.360708
234.5000,1.66069,222.505,0.346273
234.4000,1.00589,223.338,0.357541
234.3000,-0.151605,223.162,0.355168
234.2000,0.579054,222.384,0.344629
234.1000,1.14459,223.876,0.364805
234.0000,2.34881,223.99,0.366348
233.9000,0.249204,222.982,0.352731
233.8000,1.61524,223.977,0.366165
233.7000,-0.316284,223.807,0.363873
233.6000,1.05011,224.589,0.374402
233.5000,-0.167697,224.058,0.367264
233.4000,1.7037,224.453,0.372573
233.3000,1.85004,223.333,0.35748
233.2000,0.618402,224.157,0.368592
233.1000,-0.289148,225.443,0.385873
233.0000,1.08738,224.16,0.368638
232.9000,0.200109,225.322,0.384248
232.8000,2.29292,225.835,0.391125
232.7000,-0.147922,225.627,0.388333
232.6000,1.23047,226.061,0.394142
232.5000,0.233233,225.545,0.38724
232.4000,0.859425,225.951,0.392672
232.3000,1.46474,225.905,0.392065
232.2000,1.1375,226.904,0.405401
232.1000,0.636849,226.093,0.394582
232.0000,-0.424376,226.848,0.40466
231.9000,-1.23818,227.306,0.410761
231.8000,3.02288,227.521,0.413626
231.7000,0.386182,228.258,0.423412
231.6000,0.641143,228.27,0.423577
231.5000,1.26976,227.917,0.418884
231.4000,-1.06807,228.576,0.427634
231.3000,0.44089,228.854,0.431312
231.2000,2.16139,226.925,0.405688
231.1000,-0.0628911,228.091,0.421201
231.0000,1.4544,228.869,0.431522
230.9000,2.71343,229.442,0.43909
230.8000,-0.310623,228.498,0.426598
230.7000,-1.4815,227.464,0.412872
230.6000,2.45031,228.395,0.425231
230.5000,-0.402424,228.685,0.429076
230.4000,0.758847,229.384,0.438326
230.3000,1.63389,229.383,0.438311
230.2000,-0.824472,229.709,0.442621
230.1000,0.102886,229.761,0.44331
230.0000,1.67216,230.281,0.450167
229.9000,2.77455,230.544,0.453628
229.8000,2.73183,230.296,0.450361
229.7000,1.58157,231.242,0.462802
229.6000,-0.805378,231.495,0.466118
229.5000,0.935831,231.907,0.471523
229.4000,2.43692,231.405,0.464944
229.3000,0.312317,231.145,0.461523
229.2000,1.06505,233.029,0.486185
229.1000,2.1922,232.859,0.483967
229.0000,0.14103,233.408,0.491133
228.9000,0.432801,233.827,0.496576
228.8000,0.346513,234.844,0.509788
228.7000,0.863707,233.957,0.49827
228.6000,0.412377,235.37,0.516596
228.5000,0.946887,235.393,0.516889
228.4000,1.94635,236.252,0.527997
228.3000,2.6343,235.38,0.516727
228.2000,1.20527,236.572,0.532116
228.1000,0.622263,237.963,0.549998
228.0000,1.04616,237.62,0.545594
227.9000,0.901162,238.988,0.563107
227.8000,-0.414118,237.946,0.54978
227.7000,-0.862054,239.14,0.565046
227.6000,-0.205781,239.085,0.564351
227.5000,3.39122,239.945,0.575318
227.4000,-1.3302,240.124,0.577597
227.3000,-0.270452,241.064,0.589531
227.2000,2.39746,242.006,0.601469
227.1000,1.07849,241.357,0.593251
227.0000,1.00339,242.576,0.608668
226.9000,3.7111,243.861,0.624846
226.8000,3.68421,244.045,0.627152
226.7000,0.256494,243.591,0.621457
226.6000,0.771968,243.714,0.622995
226.5000,0.464418,245.767,0.648714
226.4000,-1.09184,245.336,0.643335
226.3000,0.0799266,246.541,0.658361
226.2000,-0.132551,245.95,0.651004
226.1000,0.460065,246.533,0.658263
226.0000,3.09075,247.633,0.671936
225.9000,0.379191,248.128,0.678073
225.8000,1.55958,249.333,0.69296
225.7000,0.516627,249.353,0.693212
225.6000,1.72571,251.26,0.716658
225.5000,1.21303,250.559,0.708052
225.4000,3.14652,252.974,0.737611
225.3000,0.289932,252.455,0.731281
225.2000,-0.766006,254.668,0.7582
225.1000,1.23325,253.9,0.748877
225.0000,-1.03872,254.818,0.760012
224.9000,3.83451,256.184,0.77653
224.8000,0.912425,256.757,0.783425
224.7000,4.25698,258.56,0.805078
224.6000,0.629928,258.573,0.805227
224.5000,-0.864987,258.174,0.800451
224.4000,0.504512,260.881,0.83275
224.3000,0.346175,261.539,0.840563
224.2000,5.53732,261.838,0.844108
224.1000,0.718037,261.848,0.844229
224.0000,2.39138,263.455,0.863211
223.9000,1.34873,265.853,0.891359
223.8000,0.287108,266.508,0.899011
223.7000,1.00133,267.209,0.907189
223.6000,1.21873,268.21,0.918823
223.5000,-1.06406,268.99,0.927877
223.4000,0.141518,269.978,0.939304
223.3000,-0.251404,270.918,0.950135
223.2000,1.15128,274.225,0.988026
223.1000,-0.580018,274.832,0.994942
223.0000,-0.91804,275.235,0.999516
222.9000,1.91982,276.983,1.01933
222.8000,-2.03644,278.804,1.03986
222.7000,-0.475658,279.984,1.05311
222.6000,-2.09238,281.936,1.07491
222.5000,1.47595,283.754,1.09511
222.4000,3.926,285.442,1.11377
222.3000,0.318704,284.94,1.10823
222.2000,6.45587,286.946,1.13031
222.1000,-3.47006,287.966,1.14149
222.0000,-0.163539,289.54,1.15868
221.9000,-0.203073,290.14,1.16521
221.8000,3.14929,292.39,1.18961
221.7000,1.67192,294.537,1.21274
221.6000,0.68635,296.764,1.23658
221.5000,-0.975148,297.905,1.24874
221.4000,3.91839,299.529,1.26598
221.3000,-0.0868771,300.78,1.2792
221.2000,-0.852421,302.862,1.30112
221.1000,1.51644,305.424,1.32791
221.0000,1.96304,306.487,1.33897
220.9000,-4.6147,308.959,1.36458
220.8000,0.204562,311.775,1.39353
220.7000,-1.81558,312.095,1.39681
220.6000,-1.62592,315.343,1.42991
220.5000,0.516663,318.496,1.46177
220.4000,0.621954,321.139,1.48827
220.3000,-0.0728132,322.655,1.50339
220.2000,-0.400077,322.538,1.50223
220.1000,4.5712,327.016,1.54656
220.0000,-0.368019,328.884,1.56491
219.9000,-2.82686,331.985,1.59517
219.8000,8.93588,334.189,1.61653
219.7000,1.28388,336.841,1.64208
219.6000,3.56034,339.051,1.66325
219.5000,7.4322,340.513,1.67718
219.4000,6.34708,343.526,1.70575
219.3000,-6.59759,346.027,1.72931
219.2000,0.830411,349.719,1.76381
219.1000,2.35568,350.911,1.77489
219.0000,-2.39212,354.778,1.81061
218.9000,3.02033,357.238,1.83316
218.8000,1.22319,361.212,1.86932
218.7000,5.2825,363.401,1.8891
218.6000,-1.46482,366.412,1.91614
218.5000,-4.74862,371.004,1.95702
218.4000,7.50665,373.078,1.97535
218.3000,-7.29284,377.078,2.01045
218.2000,-6.18809,379.166,2.02865
218.1000,-5.99479,384.959,2.0787
218.0000,-3.86976,387.687,2.10205
217.9000,-4.61667,391.861,2.13752
217.8000,3.22919,394.806,2.16235
217.7000,0.641348,399.744,2.20364
217.6000,-0.521486,403.874,2.23785
217.5000,-4.95578,410.196,2.28965
217.4000,-2.14396,411.886,2.30338
217.3000,1.54835,417.112,2.34554
217.2000,-1.49993,421.356,2.37946
217.1000,-3.29254,426.372,2.41918
217.0000,4.35567,431.219,2.45719
216.9000,-8.24583,437.327,2.50456
216.8000,-1.32455,440.096,2.52586
216.7000,-13.3597,445.39,2.56627
216.6000,-1.81804,449.821,2.59978
216.5000,-2.28572,454.862,2.63757
216.4000,-3.88385,457.398,2.65644
216.3000,1.82865,461.651,2.6879
216.2000,-15.5364,467.331,2.72953
216.1000,7.32101,471.366,2.75885
216.0000,19.7044,476.531,2.79606
215.9000,-4.85599,482.093,2.83577
215.8000,12.7597,485.443,2.85949
215.7000,-1.62244,489.861,2.89057
215.6000,0.188255,494.364,2.922
215.5000,-5.90608,500.581,2.965
215.4000,1.67516,505.331,2.99755
215.3000,9.13481,511.894,3.0421
215.2000,-10.6155,516.117,3.07051
215.1000,-4.81347,522.043,3.11005
215.0000,-8.59262,525.8,3.13492
214.9000,5.56609,532.201,3.17695
214.8000,3.53702,537.966,3.21444
214.7000,0.105137,543.994,3.25327
214.6000,0.896335,549.469,3.28823
214.5000,1.28937,555.323,3.32528
214.4000,-13.8223,560.219,3.35602
214.3000,4.45947,564.306,3.3815
214.2000,-7.25983,568.016,3.40449
214.1000,6.23004,576.116,3.45426
214.0000,0.377445,582.441,3.49271
213.9000,3.15027,587.126,3.52096
213.8000,-2.91671,592.612,3.5538
213.7000,-1.72648,599.932,3.59722
213.6000,-9.53405,603.897,3.62054
213.5000,1.9536,609.33,3.6523
213.4000,11.4455,614.451,3.68202
213.3000,1.40782,621.986,3.72536
213.2000,11.4056,628.578,3.76291
213.1000,-8.81938,633.898,3.79297
213.0000,-5.32449,638.578,3.81923
212.9000,6.24093,645.366,3.85704
212.8000,7.40629,649.717,3.8811
212.7000,1.14329,654.775,3.90889
212.6000,-1.62359,662.174,3.94922
212.5000,1.80069,668.258,3.9821
212.4000,10.4268,673.678,4.01117
212.3000,-8.72837,682.182,4.05639
212.2000,10.152,687.798,4.08598
212.1000,-20.8157,695.439,4.12592
212.0000,5.09722,702.157,4.16073
211.9000,8.30647,707.865,4.19008
211.8000,-7.65468,714.662,4.22477
211.7000,-4.46743,720.022,4.25193
211.6000,0.0403212,727.478,4.28941
211.5000,1.25411,731.793,4.31096
211.4000,-8.45243,738.394,4.34371
211.3000,2.62564,743.241,4.3676
211.2000,-6.13583,748.047,4.39116
211.1000,-10.7464,753.443,4.41746
211.0000,-2.68817,758.786,4.44333
210.9000,-4.45727,765.177,4.47409
210.8000,6.196,769.669,4.49557
210.7000,-1.34142,774.959,4.52073
210.6000,-2.49014,779.285,4.5412
210.5000,-8.48814,784.501,4.56574
210.4000,-3.57775,789.973,4.59135
210.3000,-10.1389,794.193,4.61099
210.2000,7.20227,798.666,4.63172
210.1000,0.598975,803.459,4.65381
210.0000,-8.0211,808.657,4.67764
209.9000,-1.36173,812.166,4.69366
209.8000,12.8318,818.611,4.72292
209.7000,-2.27979,820.907,4.7333
209.6000,12.4161,827.41,4.76256
209.5000,-9.26959,832.333,4.78457
209.4000,0.942268,837.38,4.80703
209.3000,-1.23424,839.771,4.81763
209.2000,-10.8871,844.175,4.83708
209.1000,4.96858,848.095,4.85432
209.0000,6.06496,850.117,4.86319
208.9000,0.28831,852.709,4.87453
208.8000,0.440615,855.518,4.88679
208.7000,-2.17744,857.977,4.89749
208.6000,-3.6863,859.912,4.90589
208.5000,-7.30903,861.463,4.91261
208.4000,-3.9827,864.226,4.92456
208.3000,6.0191,865.935,4.93194
208.2000,3.09237,868.543,4.94317
208.1000,-2.02187,871.868,4.95745
208.0000,12.9895,872.797,4.96143
207.9000,-11.8829,874.133,4.96715
207.8000,-3.264,876.686,4.97805
207.7000,-0.0329238,877.364,4.98094
207.6000,-14.3937,878.695,4.98661
207.5000,3.59103,880.404,4.99388
207.4000,1.02487,879.528,4.99016
207.3000,3.22016,880.192,4.99298
207.2000,-4.33688,881.128,4.99696
207.1000,-6.18165,880.935,4.99614
207.0000,11.1212,881.182,4.99719
206.9000,1.71337,881.628,4.99909
206.8000,-4.38207,881.338,4.99786
206.7000,-3.08706,880.41,4.99391
206.6000,-1.65999,879.154,4.98857
206.5000,10.7981,879.906,4.99177
206.4000,17.6489,879.207,4.98879
206.3000,5.67488,878.722,4.98673
206.2000,1.80326,877.912,4.98328
206.1000,11.6017,876.247,4.97618
206.0000,-5.3953,875.734,4.97399
205.9000,0.246322,875.831,4.9744
205.8000,2.56124,874.021,4.96667
205.7000,-3.80151,871.732,4.95686
205.6000,0.940723,869.928,4.94912
205.5000,5.61956,867.967,4.94069
205.4000,11.1337,866.134,4.93279
205.3000,3.76333,865.317,4.92927
205.2000,14.7229,864.416,4.92538
205.1000,-0.303784,860.888,4.91012
205.0000,-4.41001,860.288,4.90752
204.9000,10.3003,858.376,4.89922
204.8000,-6.8311,853.553,4.87822
204.7000,4.19483,853.137,4.8764
204.6000,-4.60518,851.067,4.86735
204.5000,-2.87912,849.049,4.85851
204.4000,-0.580939,844.973,4.84059
204.3000,18.5565,843.193,4.83275
204.2000,13.3839,839.666,4.81716
204.1000,6.39988,838.559,4.81226
204.0000,3.62193,836.699,4.80401
203.9000,-8.04499,835.2,4.79734
203.8000,-8.24281,831.727,4.78187
203.7000,4.36366,829.714,4.77287
203.6000,5.17486,827.459,4.76277
203.5000,-2.55644,825.206,4.75266
203.4000,12.8074,823.322,4.74419
203.3000,-7.41821,821.42,4.73561
203.2000,9.69431,818.29,4.72147
203.1000,5.58121,818.097,4.7206
203.0000,-9.83742,814.904,4.70612
202.9000,2.71567,812.523,4.69528
202.8000,-1.44946,811.095,4.68878
202.7000,5.00943,808.206,4.67558
202.6000,6.03928,808.667,4.67769
202.5000,5.4569,805.669,4.66396
202.4000,3.16494,803.758,4.65519
202.3000,9.88608,803.294,4.65305
202.2000,2.8942,800.593,4.64061
202.1000,-8.46839,800.823,4.64167
202.0000,13.7694,797.49,4.62628
201.9000,-3.37547,796.516,4.62176
201.8000,11.3787,795.663,4.61781
201.7000,23.6066,794.506,4.61244
201.6000,0.773952,794.042,4.61029
201.5000,1.05338,794.091,4.61052
201.4000,-2.37806,793.736,4.60887
201.3000,7.38501,791.631,4.59908
201.2000,-10.6576,793.042,4.60564
201.1000,-4.61847,793.304,4.60686
201.0000,10.3001,793.668,4.60855
200.9000,2.87631,792.711,4.6041
200.8000,16.9113,793.725,4.60882
200.7000,-15.2376,794.032,4.61024
200.6000,8.79797,794.92,4.61437
200.5000,-3.58374,795.802,4.61846
200.4000,-2.22942,797.323,4.6255
200.3000,5.6028,799.099,4.63372
200.2000,-8.25128,799.43,4.63524
200.1000,8.2986,801.91,4.64668
200.0000,-7.04511,804.795,4.65995
199.9000,-0.764066,807.672,4.67314
199.8000,-5.89909,809.876,4.68321
199.7000,16.1257,812.61,4.69568
199.6000,-3.48246,815.607,4.70931
199.5000,-4.42115,818.717,4.7234
199.4000,1.12719,820.741,4.73255
199.3000,9.35297,824.913,4.75134
199.2000,5.54409,827.979,4.76511
199.1000,10.7173,832.065,4.78338
199.0000,8.31179,836.62,4.80365
198.9000,-14.4676,840.901,4.82263
198.8000,4.93729,848.21,4.85483
198.7000,0.0201062,852.93,4.8755
198.6000,-5.98648,860.587,4.90882
198.5000,-2.00661,866.288,4.93346
198.4000,-4.57687,873.962,4.96641
198.3000,-9.34438,880.693,4.99511
198.2000,4.87155,887.742,5.02497
198.1000,2.64134,895.035,5.05564
198.0000,7.57783,902.683,5.08758
197.9000,7.79594,913.274,5.13143
197.8000,14.1966,920.191,5.15983
197.7000,4.27569,929.538,5.19792
197.6000,7.24638,939.27,5.23723
197.5000,18.7362,947.853,5.27161
197.4000,3.53271,958.882,5.31539
197.3000,6.81662,970.749,5.36202
197.2000,-11.161,981.164,5.40254
197.1000,-5.2239,991.158,5.44108
197.0000,-14.5463,1003.51,5.48825
196.9000,-9.14461,1016.62,5.53776
196.8000,4.98179,1030.79,5.59068
196.7000,2.73064,1042.29,5.63318
196.6000,17.5204,1057.6,5.6891
196.5000,8.8224,1067.79,5.72596
196.4000,-14.1839,1071.44,5.73908
196.3000,-4.08523,1074.42,5.74976
196.2000,-17.5501,1076.61,5.7576
196.1000,-16.5055,1076,5.7554
196.0000,-5.14996,1076.57,5.75744
195.9000,-0.890449,1075.85,5.75487
195.8000,3.0822,1076.88,5.75854
195.7000,11.111,1076.39,5.7568
195.6000,-23.6064,1076.76,5.75812
195.5000,9.78189,1076.1,5.75575
195.4000,8.07079,1076.97,5.75886
195.3000,-16.6861,1076,5.75542
195.2000,13.4426,1076.23,5.75624
195.1000,-0.713298,1076.09,5.75575
195.0000,10.2003,1076.16,5.75599
194.9000,1.84877,1076.35,5.75666
194.8000,-8.17047,1076.28,5.75641
194.7000,2.36972,1076.38,5.75676
194.6000,-14.7272,1076.29,5.75645
194.5000,15.0379,1076.44,5.75697
194.4000,-5.2684,1077.36,5.76026
194.3000,11.8493,1076.29,5.75643
194.2000,-10.6709,1078.39,5.76395
194.1000,2.20734,1075.91,5.75509
194.0000,-0.677019,1076.26,5.75634
193.9000,9.19884,1076.11,5.75582
193.8000,10.4386,1075.05,5.752
193.7000,-10.2297,1076.14,5.7559
193.6000,-3.32165,1076.4,5.75683
193.5000,-6.62418,1075.87,5.75496
193.4000,9.64921,1076.91,5.75868
193.3000,-4.66829,1077.69,5.76146
193.2000,-6.04778,1077.61,5.76115
193.1000,4.66318,1076.69,5.75787
193.0000,6.12758,1076.79,5.75822
192.9000,11.8773,1077.49,5.76075
192.8000,-14.507,1075.76,5.75455
192.7000,-0.996554,1078.83,5.76551
192.6000,-3.44972,1076.64,5.75768
192.5000,-3.73453,1077.42,5.76047
192.4000,-4.96281,1076.59,5.7575
192.3000,3.5003,1076.76,5.75811
192.2000,18.8647,1076.79,5.75823
192.1000,-1.90692,1076.88,5.75855
192.0000,-8.05251,1077.18,5.75964
191.9000,0.298751,1076.09,5.75572
191.8000,2.8377,1075.74,5.75448
191.7000,-1.66168,1076.73,5.75801
191.6000,10.305,1076.78,5.7582
191.5000,-1.88018,1076.83,5.75836
191.4000,1.97199,1077.15,5.75952
191.3000,-8.70859,1076.96,5.75885
191.2000,3.76744,1077.44,5.76057
191.1000,-4.68086,1078.46,5.76419
191.0000,-9.57246,1077.23,5.75979
190.9000,-12.6636,1077.04,5.75912
190.8000,-0.999929,1076.84,5.75841
190.7000,-4.67207,1077.4,5.7604
190.6000,10.6191,1077.22,5.75976
190.5000,-1.35098,1075.23,5.75265
190.4000,2.29386,1077.5,5.76076
190.3000,4.73798,1076.67,5.7578
190.2000,9.25067,1077.05,5.75916
190.1000,-15.8204,1076.85,5.75846
190.0000,4.17536,1077.05,5.75917

##### Extended Information
[Comments]
Sample name,TB TH  KD_ Buffer and Additive 
Comment,Buffer and additive
User,Tara_ Kimani _ Tyler 
Division
Company,Saint Mary's College

[Detailed Information]
Creation date,9/29/2022 3:03 PM

Data array type,Linear data array * 3
Horizontal axis,Wavelength [nm]
Vertical axis(1),CD [mdeg]
Vertical axis(2),HT [V]
Vertical axis(3),Abs
Start,320 nm
End,190 nm
Data interval,0.1 nm
Data points,1301    

[Measurement Information]
Instrument name,J-1500
Model name,J-1500
Serial No.,B051061638

Detector,PM-539
Detector S/N,B051061638
  Lock-in amp.,X mode
  HT volt,Auto

Accessory,PTC-517
Accessory S/N,B026561646
  Temperature,22.21 C
  Control sensor,Holder
  Monitor sensor,Holder

Measurement date,9/29/2022 3:03 PM

CD Overload detect,988
Photometric mode,CD, HT, Abs
Measure range,320 - 190 nm
Data pitch,0.1 nm
CD scale,20 mdeg/0.05 dOD
FL scale,20 mdeg/0.05 dOD
D.I.T.,8 msec
Bandwidth,2.00 nm
Start mode,Immediately
Scanning mode,Continuous
Scanning speed,200 nm/min
Baseline correction,None
Shutter control,Auto
No. of cycle,1/1
N2 Flowmeter,Manual

Solvent,NaPO4 buffer

