TITLE,TB TH  KD_ Buffer and Additive 
DATA TYPE,
ORIGIN,JASCO
OWNER,
DATE,22/09/29
TIME,16:04:21
SPECTROMETER/DATA SYSTEM,
LOCALE,1033
RESOLUTION,
DELTAX,-0.1
XUNITS,NANOMETERS
YUNITS,CD [mdeg]
Y2UNITS,HT [V]
Y3UNITS,ABSORBANCE
FIRSTX,  320.0000
LASTX,  190.0000
NPOINTS,    1301
FIRSTY,    -0.21195
MAXY,    20.20060
MINY,   -24.82429
XYDATA
320.0000,-0.21195,209.697,0.168432
319.9000,1.25344,209.909,0.171446
319.8000,0.979866,208.653,0.153552
319.7000,1.3907,209.961,0.172187
319.6000,1.17751,208.773,0.155267
319.5000,1.62012,209.939,0.171881
319.4000,1.20953,208.805,0.155721
319.3000,2.9818,208.992,0.158389
319.2000,1.39155,208.334,0.148983
319.1000,-0.243699,208.747,0.154895
319.0000,-0.692987,208.754,0.154993
318.9000,-0.484022,209.264,0.162268
318.8000,1.86219,208.515,0.151576
318.7000,0.896278,209.251,0.16209
318.6000,-0.506329,208.236,0.147589
318.5000,1.4714,208.9,0.157079
318.4000,0.282755,209.307,0.162881
318.3000,0.421078,209.528,0.166029
318.2000,0.251678,207.775,0.140983
318.1000,1.56368,208.728,0.15462
318.0000,1.5263,208.716,0.154442
317.9000,0.920672,208.113,0.145821
317.8000,0.713742,209.071,0.159521
317.7000,0.764954,208.154,0.146405
317.6000,0.196701,209.35,0.163495
317.5000,1.19767,209.276,0.162445
317.4000,0.805146,209.054,0.159279
317.3000,0.781197,208.81,0.155785
317.2000,3.17035,208.873,0.156691
317.1000,-0.241571,210.071,0.173749
317.0000,-0.462983,209.425,0.16456
316.9000,2.51232,208.734,0.154701
316.8000,1.0988,208.867,0.15661
316.7000,0.913424,209.138,0.160474
316.6000,0.720424,210.227,0.17597
316.5000,2.75925,207.947,0.143451
316.4000,-0.652407,208.669,0.153779
316.3000,1.26093,209.634,0.167545
316.2000,1.19105,207.278,0.133844
316.1000,1.7748,209.21,0.161492
316.0000,-0.329642,208.611,0.152953
315.9000,2.83777,208.438,0.150474
315.8000,1.23352,209.339,0.163333
315.7000,1.63331,210.238,0.176131
315.6000,2.18608,207.529,0.137456
315.5000,1.88939,209.069,0.159489
315.4000,0.579222,210.038,0.173282
315.3000,0.841999,209.031,0.158939
315.2000,1.08848,208.351,0.149226
315.1000,-0.48233,207.852,0.142087
315.0000,0.563775,208.661,0.153665
314.9000,0.537786,208.999,0.158486
314.8000,0.512431,208.716,0.154442
314.7000,0.926332,209.599,0.167045
314.6000,2.48362,208.87,0.156643
314.5000,-1.08402,208.02,0.14449
314.4000,2.10871,207.762,0.140788
314.3000,1.23694,208.634,0.153276
314.2000,1.72005,209.573,0.166674
314.1000,2.05317,209.395,0.164141
314.0000,0.594025,208.543,0.151981
313.9000,-0.430414,209.151,0.160652
313.8000,2.10661,208.439,0.150491
313.7000,-0.364733,208.735,0.154717
313.6000,1.09196,208.464,0.150847
313.5000,1.21005,208.778,0.155332
313.4000,2.04856,209.069,0.159489
313.3000,0.582719,208.718,0.154474
313.2000,0.577513,207.476,0.136691
313.1000,0.966327,207.731,0.140349
313.0000,2.90815,209.01,0.158648
312.9000,2.2155,207.907,0.142867
312.8000,0.515737,208.069,0.145188
312.7000,1.45662,207.931,0.143224
312.6000,1.46121,207.638,0.139017
312.5000,0.889779,208.617,0.153034
312.4000,-0.919382,208.676,0.153876
312.3000,1.05188,206.997,0.129804
312.2000,1.06044,209.046,0.159165
312.1000,1.83485,208.127,0.146032
312.0000,0.504254,209.453,0.164964
311.9000,0.397383,208.273,0.148108
311.8000,-0.000477444,208.539,0.151916
311.7000,0.718497,209.58,0.166771
311.6000,-0.212183,209.184,0.161121
311.5000,1.63385,207.401,0.135618
311.4000,2.29952,208.631,0.153228
311.3000,3.03176,208.967,0.158034
311.2000,2.57631,208.115,0.145853
311.1000,0.845122,208.252,0.147816
311.0000,0.696286,208.924,0.157419
310.9000,-1.14768,208.127,0.146032
310.8000,0.840632,208.713,0.15441
310.7000,0.56008,208.373,0.149551
310.6000,-0.355599,208.68,0.15394
310.5000,-0.413941,207.721,0.140203
310.4000,0.991141,209.256,0.162154
310.3000,0.226744,207.899,0.142753
310.2000,0.364457,208.737,0.15475
310.1000,0.969763,209.194,0.161266
310.0000,2.41779,208.242,0.14767
309.9000,1.47069,207.822,0.141649
309.8000,-0.716098,209.113,0.160119
309.7000,-0.199296,208.499,0.151349
309.6000,1.38592,210.1,0.174167
309.5000,-0.373051,208.794,0.155559
309.4000,1.3134,209.193,0.16125
309.3000,0.39239,207.897,0.142737
309.2000,1.38525,209.244,0.161977
309.1000,0.932897,208.933,0.157548
309.0000,1.79936,208.759,0.155057
308.9000,-0.621432,208.756,0.155025
308.8000,-0.556363,208.849,0.156351
308.7000,0.92938,209.111,0.160087
308.6000,1.48772,208.182,0.146811
308.5000,2.36509,208.653,0.153552
308.4000,0.37173,209.376,0.163866
308.3000,0.771975,209.093,0.159828
308.2000,2.68727,210.511,0.180006
308.1000,0.0946859,207.484,0.136805
308.0000,1.18293,207.873,0.14238
307.9000,0.836193,207.36,0.135032
307.8000,0.410395,208.14,0.14621
307.7000,1.78683,208.66,0.153649
307.6000,1.15791,209.565,0.166561
307.5000,0.904916,208.057,0.145026
307.4000,2.23196,207.86,0.142201
307.3000,0.275479,208.518,0.151625
307.2000,1.36855,208.864,0.156562
307.1000,0.24336,208.521,0.151657
307.0000,2.39744,208.242,0.14767
306.9000,0.751795,208.813,0.155834
306.8000,2.36271,208.691,0.154086
306.7000,1.15902,209.573,0.166674
306.6000,0.517627,209.698,0.168448
306.5000,1.595,207.998,0.144182
306.4000,1.45847,208.458,0.150766
306.3000,-0.306749,208.311,0.148659
306.2000,-1.04654,208.5,0.151366
306.1000,-0.704368,208.314,0.148708
306.0000,2.75605,208.946,0.157726
305.9000,1.49876,209.13,0.160361
305.8000,0.994112,208.762,0.155106
305.7000,-0.262821,207.502,0.137066
305.6000,1.13562,208.606,0.152872
305.5000,0.714792,208.438,0.150474
305.4000,1.39239,208.747,0.154895
305.3000,0.457844,208.346,0.149162
305.2000,2.05162,208.431,0.150377
305.1000,0.492587,208.643,0.153406
305.0000,-1.06507,208.384,0.149696
304.9000,-0.517699,208.896,0.157015
304.8000,-1.07623,208.427,0.150312
304.7000,1.58964,207.222,0.133046
304.6000,2.12964,209.099,0.159909
304.5000,0.52215,208.065,0.145139
304.4000,-0.0981678,208.64,0.153357
304.3000,2.69838,207.687,0.139715
304.2000,1.47303,208.619,0.153066
304.1000,3.14823,207.938,0.143322
304.0000,1.55868,207.759,0.140755
303.9000,1.28541,206.635,0.124602
303.8000,2.4704,208.683,0.153973
303.7000,1.27382,208.056,0.14501
303.6000,-0.623115,207.548,0.137732
303.5000,-1.1808,209.059,0.159343
303.4000,1.36202,207.768,0.140886
303.3000,0.294092,207.823,0.141665
303.2000,-0.0245448,207.637,0.139
303.1000,1.26009,208.069,0.145188
303.0000,0.941809,208.048,0.144896
302.9000,1.85355,208.236,0.147589
302.8000,1.2845,208.362,0.149388
302.7000,1.10967,208.998,0.15847
302.6000,0.570758,207.958,0.143598
302.5000,0.821576,206.845,0.12762
302.4000,1.58954,208.161,0.146519
302.3000,0.651433,208.437,0.150458
302.2000,2.8661,208.567,0.152321
302.1000,1.23527,207.599,0.138464
302.0000,0.399638,209.02,0.158794
301.9000,1.53177,208.459,0.150782
301.8000,0.160869,207.383,0.135357
301.7000,0.107434,206.448,0.121909
301.6000,0.376197,206.61,0.124243
301.5000,1.82849,208.744,0.154847
301.4000,0.358723,208.688,0.154054
301.3000,-0.971459,207.349,0.134869
301.2000,-0.121823,208.959,0.15792
301.1000,-1.2922,208.342,0.149097
301.0000,2.04274,208.248,0.147751
300.9000,0.143408,208.541,0.151949
300.8000,-0.157779,207.328,0.13456
300.7000,1.2938,208.522,0.151673
300.6000,-0.157197,207.814,0.141535
300.5000,1.21144,207.726,0.140284
300.4000,1.48372,207.12,0.13158
300.3000,1.84448,207.935,0.143273
300.2000,2.40959,207.714,0.140105
300.1000,0.280723,208.688,0.154054
300.0000,2.65621,208.033,0.144685
299.9000,1.77156,208.104,0.145691
299.8000,2.22056,207.946,0.143435
299.7000,0.792807,207.987,0.14402
299.6000,3.69787,207.006,0.129935
299.5000,1.08435,208.38,0.149648
299.4000,-0.461896,207.927,0.143159
299.3000,3.00129,208.35,0.14921
299.2000,0.441789,207.06,0.130717
299.1000,0.609102,205.78,0.11226
299.0000,0.479228,206.964,0.129332
298.9000,-1.04744,208.498,0.151333
298.8000,1.42621,207.909,0.142899
298.7000,2.20896,207.635,0.138968
298.6000,1.19598,207.171,0.132313
298.5000,0.021446,209.338,0.163317
298.4000,0.732444,207.473,0.136642
298.3000,0.697886,208.473,0.150977
298.2000,1.07899,207.618,0.138724
298.1000,1.49194,208.116,0.14587
298.0000,1.70253,207.895,0.142705
297.9000,0.814999,208.297,0.148465
297.8000,0.178693,207.011,0.130016
297.7000,1.45251,206.95,0.129136
297.6000,1.84052,208.01,0.144344
297.5000,0.822976,207.62,0.138756
297.4000,-0.382502,207.058,0.130684
297.3000,1.80558,207.922,0.143094
297.2000,-0.400623,207.871,0.142364
297.1000,0.429369,207.571,0.138057
297.0000,1.61668,207.266,0.133681
296.9000,-0.49446,206.661,0.124978
296.8000,0.285256,208.269,0.148059
296.7000,0.952308,207.675,0.139553
296.6000,2.80007,207.437,0.136138
296.5000,1.40531,207.669,0.139455
296.4000,3.73854,207.393,0.135504
296.3000,0.550759,207.325,0.134527
296.2000,-0.40882,207.862,0.142234
296.1000,2.61774,207.307,0.134267
296.0000,1.42166,207.803,0.141389
295.9000,1.25411,207.371,0.135178
295.8000,2.70614,208.588,0.152613
295.7000,1.52311,207.023,0.130179
295.6000,-0.0571874,206.795,0.126903
295.5000,-0.658553,207.801,0.141356
295.4000,0.393279,207.525,0.137391
295.3000,1.35789,207.115,0.131499
295.2000,1.38887,207.373,0.135211
295.1000,1.07493,207.841,0.141925
295.0000,1.2711,207.036,0.130375
294.9000,0.276958,207.724,0.140252
294.8000,1.73599,208.121,0.145935
294.7000,1.57054,208.046,0.144864
294.6000,1.8473,207.82,0.141633
294.5000,0.621107,207.941,0.143354
294.4000,1.90626,207.701,0.139927
294.3000,-0.271276,206.959,0.129267
294.2000,0.183334,207.684,0.139683
294.1000,1.61499,206.938,0.128957
294.0000,1.16976,208.326,0.14887
293.9000,0.936203,207.535,0.137537
293.8000,1.70711,207.869,0.142331
293.7000,-0.0947544,207.633,0.138952
293.6000,1.26573,206.827,0.127359
293.5000,0.3971,207.832,0.141795
293.4000,0.425823,207.969,0.14376
293.3000,1.48994,207.927,0.143159
293.2000,3.33106,206.971,0.12943
293.1000,-0.126712,207.925,0.143127
293.0000,2.19337,206.262,0.119229
292.9000,0.262399,207.077,0.130962
292.8000,-0.0633347,208.284,0.14827
292.7000,0.549346,207.271,0.133746
292.6000,1.24837,206.819,0.127245
292.5000,1.56366,207.396,0.135536
292.4000,1.08965,207.082,0.131026
292.3000,0.663076,207.565,0.137976
292.2000,1.31859,205.71,0.111244
292.1000,1.30137,207.088,0.131124
292.0000,2.01028,205.921,0.114306
291.9000,0.293864,206.026,0.115812
291.8000,1.43174,206.124,0.117234
291.7000,1.8324,206.72,0.125826
291.6000,0.918695,207.207,0.132835
291.5000,1.72091,206.617,0.124341
291.4000,0.941723,207.11,0.131434
291.3000,-0.249362,205.519,0.108492
291.2000,0.714271,206.624,0.124439
291.1000,-0.573348,207.669,0.139455
291.0000,2.21674,207.116,0.131515
290.9000,1.80279,208.316,0.148724
290.8000,-1.38369,205.981,0.115173
290.7000,0.661784,206.175,0.11797
290.6000,1.49488,207.087,0.131108
290.5000,1.02286,206.813,0.127164
290.4000,1.23697,205.5,0.108213
290.3000,-0.345855,206.332,0.120226
290.2000,1.59421,205.745,0.111752
290.1000,1.60577,207.74,0.140479
290.0000,1.40208,207.356,0.134967
289.9000,2.09106,207.314,0.134365
289.8000,-0.230154,208.373,0.149551
289.7000,0.908674,208.482,0.151106
289.6000,1.37614,207.56,0.137895
289.5000,0.864286,207.96,0.14363
289.4000,0.813394,206.686,0.125337
289.3000,2.0572,208.046,0.144864
289.2000,1.27206,206.548,0.123345
289.1000,0.879261,207.385,0.13539
289.0000,1.87592,206.977,0.129527
288.9000,0.346456,207.271,0.133746
288.8000,1.82903,206.666,0.125043
288.7000,1.99536,206.301,0.119785
288.6000,1.66655,206.767,0.126495
288.5000,1.05126,207.326,0.134544
288.4000,1.27653,205.711,0.111261
288.3000,-0.105289,207.356,0.134967
288.2000,1.29937,208.829,0.15606
288.1000,0.887874,206.045,0.11609
288.0000,1.137,207.187,0.132541
287.9000,0.522052,207.633,0.138952
287.8000,1.85803,205.398,0.106737
287.7000,1.18754,207.065,0.130782
287.6000,1.00573,207.394,0.13552
287.5000,2.29521,207.23,0.13316
287.4000,0.720808,206.5,0.12266
287.3000,1.28499,207.785,0.141129
287.2000,1.39888,207.558,0.137862
287.1000,2.07234,207.936,0.143289
287.0000,-0.616069,206.343,0.120389
286.9000,-0.129248,207.207,0.132835
286.8000,0.621143,207.735,0.140414
286.7000,1.08626,206.489,0.122496
286.6000,-0.936091,208.002,0.144231
286.5000,0.82167,206.985,0.129641
286.4000,0.753072,207.332,0.134625
286.3000,0.708049,208.172,0.146665
286.2000,0.714089,206.864,0.127897
286.1000,1.01153,205.745,0.111752
286.0000,0.0336279,206.537,0.123182
285.9000,0.779197,206.793,0.12687
285.8000,1.41836,207.527,0.137423
285.7000,2.22399,206.933,0.128892
285.6000,2.55151,207.815,0.141551
285.5000,1.38256,205.569,0.109213
285.4000,-0.488968,206.797,0.126935
285.3000,2.20294,207.103,0.131336
285.2000,0.773988,207.798,0.141308
285.1000,0.149509,207.771,0.140918
285.0000,3.12188,206.061,0.116319
284.9000,0.161257,207.49,0.136886
284.8000,0.607209,207.289,0.134007
284.7000,1.43872,206.6,0.124096
284.6000,-0.554544,207.17,0.132297
284.5000,0.0237482,205.951,0.114732
284.4000,-1.26473,206.939,0.128973
284.3000,0.167047,206.621,0.12439
284.2000,1.93062,207.425,0.135959
284.1000,1.49645,207.262,0.133616
284.0000,1.40797,207.442,0.136203
283.9000,-0.990465,208.28,0.148221
283.8000,3.11247,206.921,0.128713
283.7000,0.725784,207.104,0.131352
283.6000,0.850819,206.746,0.126201
283.5000,1.52136,207.595,0.138399
283.4000,0.143169,207.515,0.137244
283.3000,0.192804,207.603,0.138512
283.2000,1.28022,207.585,0.138252
283.1000,1.8144,206.462,0.122104
283.0000,0.419749,207.703,0.139943
282.9000,0.388092,207.926,0.143143
282.8000,0.333129,207.262,0.133616
282.7000,1.55081,206.025,0.115795
282.6000,0.8897,207.348,0.134853
282.5000,1.77151,206.652,0.124847
282.4000,-0.80378,206.216,0.118559
282.3000,1.48529,206.786,0.126772
282.2000,-1.69459,205.96,0.114862
282.1000,1.24003,207.926,0.143143
282.0000,0.147554,207.376,0.13526
281.9000,0.540856,206.581,0.123819
281.8000,-0.119286,208.273,0.148108
281.7000,-0.0670583,206.861,0.127848
281.6000,0.556548,207.357,0.134983
281.5000,0.552791,207.814,0.141535
281.4000,0.449613,207.187,0.132541
281.3000,1.72548,206.858,0.127816
281.2000,1.09309,207.456,0.136398
281.1000,1.72062,206.447,0.121892
281.0000,-0.198626,206.813,0.127164
280.9000,2.00258,206.472,0.122252
280.8000,1.07319,207.544,0.137667
280.7000,0.793866,207.333,0.134641
280.6000,1.71206,206.925,0.128778
280.5000,1.19089,206.41,0.121353
280.4000,0.928999,206.937,0.128941
280.3000,0.709077,207.755,0.14069
280.2000,-0.14216,205.943,0.114617
280.1000,2.78969,206.149,0.117594
280.0000,1.63223,207.666,0.139423
279.9000,1.33777,207.456,0.136398
279.8000,-0.705296,207.817,0.141584
279.7000,3.39823,205.942,0.114601
279.6000,1.40341,207.075,0.130929
279.5000,-0.37003,207.009,0.129984
279.4000,1.82051,207.38,0.135309
279.3000,-0.0248138,207.232,0.133193
279.2000,0.358353,207.197,0.132688
279.1000,1.37377,206.769,0.126527
279.0000,0.416273,207.704,0.139959
278.9000,-0.564842,207.275,0.133811
278.8000,1.92677,207.247,0.133404
278.7000,1.02395,207.197,0.132688
278.6000,1.35119,205.698,0.11108
278.5000,2.56927,207.358,0.134999
278.4000,-1.70282,206.913,0.128599
278.3000,-0.685817,206.319,0.120046
278.2000,1.90407,207.166,0.132232
278.1000,-0.231342,208.22,0.147362
278.0000,0.280438,206.589,0.123933
277.9000,0.0399459,206.879,0.128109
277.8000,0.173709,207.18,0.132444
277.7000,-1.34073,207.416,0.135829
277.6000,0.0991186,207.373,0.135211
277.5000,1.0222,207.054,0.130636
277.4000,1.11581,207.298,0.134137
277.3000,2.74588,208.392,0.14981
277.2000,2.06286,207.017,0.130098
277.1000,1.09711,207.413,0.13578
277.0000,0.633992,207.803,0.141389
276.9000,-0.0126348,206.747,0.126217
276.8000,0.308401,205.886,0.113799
276.7000,0.473129,205.87,0.11357
276.6000,0.196347,207.615,0.138692
276.5000,1.64772,207.916,0.142997
276.4000,0.989512,206.398,0.12119
276.3000,2.511,207.124,0.131629
276.2000,2.3486,207.873,0.14238
276.1000,0.759142,207.68,0.139618
276.0000,1.5765,206.683,0.125288
275.9000,0.437214,206.781,0.126707
275.8000,-0.354926,206.908,0.128533
275.7000,0.557621,206.738,0.126087
275.6000,1.02242,207.653,0.139228
275.5000,0.841156,206.274,0.119393
275.4000,-0.79886,207.554,0.137814
275.3000,1.69696,207.031,0.130293
275.2000,0.875879,207.709,0.14004
275.1000,0.306715,208.464,0.150847
275.0000,-0.367648,206.387,0.121027
274.9000,1.05447,207.44,0.136171
274.8000,0.131122,205.861,0.113439
274.7000,-0.355746,207.484,0.136805
274.6000,2.86744,206.909,0.128549
274.5000,1.78726,207.724,0.140252
274.4000,0.849079,207.997,0.144166
274.3000,0.48022,207.349,0.134869
274.2000,-0.278163,207.779,0.141031
274.1000,1.44489,206.584,0.123868
274.0000,-0.33369,206.02,0.11573
273.9000,0.194113,207.272,0.133762
273.8000,0.175961,206.92,0.128696
273.7000,2.4551,206.998,0.129821
273.6000,-0.80269,207.67,0.139472
273.5000,0.575519,208.181,0.146794
273.4000,0.999573,207.696,0.139846
273.3000,-0.0652711,207.453,0.136366
273.2000,1.15833,206.907,0.128517
273.1000,1.65207,206.159,0.117742
273.0000,1.11454,208.233,0.14754
272.9000,1.19706,208.555,0.152143
272.8000,-0.307899,206.013,0.115632
272.7000,-0.927637,206.817,0.127213
272.6000,0.843793,208.897,0.157031
272.5000,1.69878,206.502,0.122676
272.4000,0.329835,208.602,0.152823
272.3000,-0.156232,207.079,0.130994
272.2000,-0.307003,207.426,0.135976
272.1000,1.43545,207.205,0.132802
272.0000,-0.132461,208.399,0.149923
271.9000,1.10095,206.352,0.12052
271.8000,1.60728,207.187,0.132541
271.7000,0.731095,206.463,0.122121
271.6000,2.05592,206.82,0.127261
271.5000,0.885127,207.62,0.138756
271.4000,1.17836,207.358,0.134999
271.3000,0.17373,207.365,0.135097
271.2000,2.50101,208.473,0.150977
271.1000,0.239053,206.917,0.128663
271.0000,-0.0875237,208.702,0.154248
270.9000,0.0639607,207.695,0.139829
270.8000,0.431319,208.606,0.152872
270.7000,1.66519,207.201,0.132737
270.6000,-0.326513,207.231,0.133176
270.5000,0.749135,206.704,0.125598
270.4000,0.247843,207.692,0.139797
270.3000,1.25259,205.807,0.112653
270.2000,1.25844,206.955,0.129202
270.1000,-1.95127,208.999,0.158486
270.0000,-0.237721,205.28,0.105031
269.9000,0.707931,208.029,0.14462
269.8000,0.292498,208.178,0.146762
269.7000,1.16241,209.054,0.159279
269.6000,-0.372962,207.799,0.141324
269.5000,0.298333,207.774,0.140967
269.4000,2.219,207.317,0.134413
269.3000,-0.504609,208.115,0.145853
269.2000,0.192623,208.983,0.15826
269.1000,1.54193,206.826,0.127343
269.0000,1.86039,208.033,0.144685
268.9000,0.149753,208.462,0.150815
268.8000,0.682697,207.3,0.134169
268.7000,-1.09574,207.524,0.137374
268.6000,0.592527,208.007,0.144312
268.5000,-0.314841,208.441,0.150523
268.4000,1.33809,207.528,0.137439
268.3000,-0.159953,208.595,0.152726
268.2000,0.00223487,207.524,0.137374
268.1000,-0.585733,208.503,0.151398
268.0000,0.0439651,208.237,0.147605
267.9000,-0.524789,207.479,0.13674
267.8000,2.04546,208.158,0.14647
267.7000,2.66588,208.554,0.152127
267.6000,-0.358223,207.918,0.143029
267.5000,-1.26733,208.914,0.157274
267.4000,-1.22573,208.674,0.153843
267.3000,1.89257,207.827,0.14173
267.2000,0.196591,208.974,0.15813
267.1000,-0.386698,208.072,0.145237
267.0000,0.650382,208.558,0.152192
266.9000,2.67174,208.313,0.148692
266.8000,-0.46702,207.834,0.141827
266.7000,0.328043,208.372,0.149534
266.6000,3.3077,208.216,0.147297
266.5000,0.764891,209.296,0.16272
266.4000,1.8465,208.291,0.148367
266.3000,2.11594,208.195,0.147005
266.2000,1.6515,208.625,0.153147
266.1000,2.17272,208.45,0.150653
266.0000,-1.25161,209.091,0.159796
265.9000,-0.322879,208.203,0.147119
265.8000,0.983128,208.376,0.149583
265.7000,0.192018,209.61,0.16719
265.6000,-0.487518,208.052,0.144945
265.5000,0.918731,209.445,0.164851
265.4000,0.266965,208.71,0.154361
265.3000,1.54103,209.443,0.164819
265.2000,1.28785,208.989,0.158341
265.1000,1.32217,208.219,0.147346
265.0000,-0.963688,208.921,0.157371
264.9000,0.340575,209.216,0.161589
264.8000,-1.37029,208.971,0.158082
264.7000,2.25569,209.326,0.163156
264.6000,0.0288407,209.517,0.165867
264.5000,1.53366,208.639,0.153341
264.4000,1.22174,209.476,0.165287
264.3000,-0.290743,208.924,0.157419
264.2000,0.514985,207.663,0.139374
264.1000,-0.0887804,209.682,0.168222
264.0000,1.34716,208.474,0.150993
263.9000,2.07801,208.866,0.156594
263.8000,0.564948,209.349,0.163479
263.7000,1.59326,209.032,0.158955
263.6000,0.518477,210.274,0.17663
263.5000,1.48611,209.15,0.160636
263.4000,1.98507,210.395,0.178351
263.3000,-1.44751,209.715,0.16869
263.2000,1.65239,209.433,0.164673
263.1000,-1.41547,209.597,0.167013
263.0000,1.09836,209.256,0.162154
262.9000,1.26575,210.114,0.174361
262.8000,0.857547,208.428,0.150329
262.7000,-0.843644,210.03,0.173169
262.6000,0.910839,209.769,0.169464
262.5000,2.14975,210.267,0.176533
262.4000,1.45131,209.002,0.158535
262.3000,0.837243,210.184,0.175359
262.2000,-0.521427,210.706,0.18277
262.1000,0.49647,209.113,0.160119
262.0000,0.980106,209.437,0.164738
261.9000,0.228976,209.402,0.164237
261.8000,0.572103,209.068,0.159472
261.7000,-0.451925,209.527,0.166013
261.6000,2.29046,209.742,0.169077
261.5000,0.20985,209.201,0.161363
261.4000,1.82727,210.066,0.173684
261.3000,0.496579,209.484,0.165399
261.2000,-1.13547,209.726,0.168851
261.1000,1.5514,210.654,0.182031
261.0000,0.558843,210.311,0.17716
260.9000,0.764158,211.3,0.191175
260.8000,-0.523498,210.262,0.176469
260.7000,1.0971,210.102,0.1742
260.6000,1.70793,209.467,0.165157
260.5000,2.70144,210.212,0.175761
260.4000,0.55459,209.672,0.168077
260.3000,-0.331592,209.204,0.161412
260.2000,0.761945,210.331,0.17745
260.1000,1.21329,210.543,0.180456
260.0000,-0.829941,209.65,0.167771
259.9000,0.174335,211.067,0.187873
259.8000,0.320701,210.569,0.180826
259.7000,0.380973,210.079,0.173861
259.6000,2.47616,212.213,0.204067
259.5000,1.38227,210.139,0.174715
259.4000,0.352964,211.106,0.188435
259.3000,-0.0142153,210.656,0.182063
259.2000,2.19217,210.241,0.176163
259.1000,0.661966,210.796,0.184038
259.0000,-0.0246283,209.24,0.161928
258.9000,1.01856,210.637,0.18179
258.8000,1.21225,210.453,0.17917
258.7000,-0.542572,210.91,0.185659
258.6000,2.56451,210.326,0.17737
258.5000,0.701282,210.334,0.177482
258.4000,-1.10558,211.378,0.192281
258.3000,-1.21408,211.592,0.195307
258.2000,2.2467,210.842,0.184696
258.1000,-0.312011,210.944,0.186141
258.0000,0.857356,210.816,0.184327
257.9000,1.8942,210.763,0.183573
257.8000,0.941262,211.575,0.195067
257.7000,-0.061974,209.81,0.170044
257.6000,1.5712,211.928,0.200041
257.5000,2.63281,210.67,0.182256
257.4000,1.12679,211.754,0.197595
257.3000,2.34776,211.209,0.189893
257.2000,2.16542,210.973,0.186542
257.1000,0.678574,211.569,0.194971
257.0000,1.49101,210.54,0.180408
256.9000,0.389654,211.143,0.188948
256.8000,0.439476,211.342,0.191768
256.7000,1.27476,211.348,0.191848
256.6000,-0.05835,211.533,0.194475
256.5000,-0.17141,212.398,0.206668
256.4000,0.429618,211.303,0.191224
256.3000,1.6959,211.126,0.188707
256.2000,-0.241411,211.103,0.188386
256.1000,1.18051,211.462,0.193466
256.0000,1.30308,211.544,0.194619
255.9000,1.35899,210.88,0.185226
255.8000,1.11367,212.27,0.204865
255.7000,-0.0734332,210.893,0.185419
255.6000,-0.0262744,211.957,0.200457
255.5000,1.54938,211.648,0.196091
255.4000,1.1766,212.242,0.204466
255.3000,0.907981,211.31,0.19132
255.2000,1.81553,212.463,0.207578
255.1000,0.384898,211.941,0.200233
255.0000,0.384679,212.246,0.20453
254.9000,0.485291,211.433,0.193049
254.8000,1.33398,211.634,0.195899
254.7000,0.216084,212.175,0.203524
254.6000,-0.725408,212.127,0.202853
254.5000,-0.841531,212.824,0.212662
254.4000,-1.81148,212.472,0.207705
254.3000,0.681948,211.714,0.197019
254.2000,-1.11702,213.21,0.21809
254.1000,2.06945,211.499,0.193994
254.0000,1.64857,212.56,0.208949
253.9000,1.10345,212.55,0.208806
253.8000,0.269274,212.38,0.206413
253.7000,1.90267,212.969,0.214701
253.6000,1.54523,213.21,0.21809
253.5000,2.26306,212.554,0.208869
253.4000,0.916879,213.2,0.217947
253.3000,0.450435,212.384,0.206477
253.2000,0.290653,212.761,0.21177
253.1000,1.75675,212.741,0.211499
253.0000,0.403337,213.085,0.216324
252.9000,0.438954,212.817,0.212567
252.8000,-1.03252,213.309,0.219473
252.7000,2.01829,212.544,0.208726
252.6000,1.25261,213.187,0.217756
252.5000,0.444925,212.827,0.21271
252.4000,1.2891,212.229,0.20429
252.3000,0.791819,214.848,0.241
252.2000,1.12837,213.198,0.217915
252.1000,1.88421,212.764,0.211818
252.0000,-0.770762,212.426,0.207067
251.9000,-0.0478355,213.069,0.216101
251.8000,-0.95996,212.268,0.204833
251.7000,0.810726,212.153,0.203221
251.6000,0.308643,212.405,0.206764
251.5000,1.51143,213.21,0.21809
251.4000,0.688938,212.597,0.209475
251.3000,-0.3838,213.694,0.224875
251.2000,0.764759,213.286,0.219155
251.1000,0.621639,213.903,0.227794
251.0000,0.891775,213.285,0.219139
250.9000,-0.151626,212.671,0.210511
250.8000,-0.187495,212.901,0.213746
250.7000,0.496096,212.366,0.206222
250.6000,1.02535,213.941,0.228334
250.5000,-0.250093,213.561,0.223001
250.4000,0.0492271,212.915,0.213936
250.3000,2.85747,213.337,0.219871
250.2000,-2.95911,214.104,0.230617
250.1000,2.1872,213.842,0.226938
250.0000,-0.126705,212.736,0.21142
249.9000,2.73291,213.045,0.215767
249.8000,0.601393,214.154,0.231314
249.7000,-1.52418,215.563,0.250959
249.6000,1.27812,215.711,0.253023
249.5000,-0.119834,214.733,0.239403
249.4000,0.277393,212.219,0.204147
249.3000,0.784675,213.732,0.225399
249.2000,-0.757904,214.561,0.236999
249.1000,-0.903897,213.324,0.21968
249.0000,1.27734,213.205,0.21801
248.9000,2.22581,215.007,0.243227
248.8000,-0.704795,214.509,0.236271
248.7000,1.82888,215.057,0.243922
248.6000,1.15881,213.976,0.228825
248.5000,1.36139,214.584,0.237315
248.4000,0.621325,213.609,0.223684
248.3000,-2.03192,214.651,0.238248
248.2000,-0.47593,213.785,0.226145
248.1000,0.601233,215.343,0.2479
248.0000,1.30474,214.008,0.22927
247.9000,1.50404,214.356,0.234134
247.8000,1.50972,214.469,0.235717
247.7000,1.00034,214.371,0.23434
247.6000,0.87686,215.609,0.251605
247.5000,2.70402,213.749,0.225637
247.4000,-0.15597,214.254,0.232708
247.3000,0.498986,214.596,0.237489
247.2000,2.08568,214.166,0.231473
247.1000,1.02187,214.328,0.233738
247.0000,0.466643,214.99,0.24299
246.9000,2.25506,212.924,0.214064
246.8000,2.10084,214.044,0.229777
246.7000,1.86592,214.329,0.233754
246.6000,0.341241,214.853,0.241079
246.5000,-0.395847,214.751,0.239656
246.4000,2.68276,215.625,0.251825
246.3000,1.88257,214.125,0.230902
246.2000,0.0946988,214.892,0.241616
246.1000,0.699435,214.665,0.238454
246.0000,0.986044,215.591,0.251353
245.9000,1.50351,214.904,0.24179
245.8000,0.613741,214.504,0.236208
245.7000,1.02638,215.142,0.245106
245.6000,-0.799699,215.15,0.245217
245.5000,1.62835,214.358,0.234166
245.4000,1.21334,214.823,0.240652
245.3000,2.43609,216.297,0.261158
245.2000,2.32398,214.542,0.23673
245.1000,2.19111,215.786,0.254063
245.0000,2.96494,214.996,0.243069
244.9000,0.359493,215.146,0.245154
244.8000,-2.16792,214.169,0.23152
244.7000,0.663363,214.353,0.234086
244.6000,1.46206,215.267,0.246843
244.5000,0.949047,213.615,0.223764
244.4000,-0.230314,215.975,0.256691
244.3000,1.04031,215.982,0.256786
244.2000,0.121519,215.762,0.253732
244.1000,1.14691,215.158,0.245328
244.0000,1.12966,214.734,0.239419
243.9000,1.22118,214.634,0.238011
243.8000,0.63362,215.353,0.248042
243.7000,0.534891,214.867,0.241268
243.6000,1.93138,215.045,0.243749
243.5000,0.0191127,216.229,0.260215
243.4000,-1.26069,217.164,0.273162
243.3000,3.1317,216.4,0.262588
243.2000,-0.338854,216.213,0.259995
243.1000,-0.062131,215.568,0.251037
243.0000,0.638496,216.535,0.264457
242.9000,-1.19616,215.645,0.252109
242.8000,0.763165,217.087,0.272096
242.7000,0.875234,216.365,0.262101
242.6000,2.03789,216.407,0.262682
242.5000,0.335329,216.87,0.269102
242.4000,1.12332,217.905,0.283393
242.3000,-0.595948,214.875,0.241379
242.2000,-1.15021,214.724,0.239276
242.1000,0.246717,216.768,0.26769
242.0000,1.1992,216.777,0.267816
241.9000,1.77329,215.654,0.252235
241.8000,-0.559014,217.32,0.275323
241.7000,1.1957,216.594,0.265273
241.6000,0.00831502,215.954,0.256392
241.5000,2.54424,217.325,0.275386
241.4000,1.06534,215.743,0.253464
241.3000,0.932808,216.995,0.270827
241.2000,1.53374,216.918,0.269761
241.1000,1.70316,217.245,0.27429
241.0000,0.702517,216.746,0.267377
240.9000,0.221212,216.321,0.261488
240.8000,-1.67291,218.13,0.2865
240.7000,0.310047,217.863,0.282815
240.6000,-0.0447854,217.227,0.274039
240.5000,0.66113,217.114,0.272473
240.4000,1.543,217.958,0.284127
240.3000,0.687565,218.178,0.287156
240.2000,1.07806,217.715,0.280783
240.1000,0.621624,218.095,0.286016
240.0000,0.857116,216.833,0.268585
239.9000,-0.455217,218.579,0.292676
239.8000,2.16051,218.653,0.293689
239.7000,-0.502796,218.768,0.295277
239.6000,2.40117,218.478,0.291289
239.5000,1.96019,217.998,0.284674
239.4000,0.915232,218.589,0.292816
239.3000,0.733786,219.338,0.303101
239.2000,0.528258,217.872,0.28294
239.1000,-0.569565,220.035,0.312644
239.0000,-0.0756615,218.781,0.295448
238.9000,1.1191,219.295,0.302511
238.8000,2.30351,218.356,0.289605
238.7000,0.807855,218.708,0.294452
238.6000,3.10271,218.809,0.295838
238.5000,0.843214,220.49,0.318869
238.4000,-0.0737978,219.259,0.302013
238.3000,2.47103,218.626,0.29333
238.2000,0.18137,219.407,0.304049
238.1000,0.928132,220.672,0.321343
238.0000,-1.17898,218.452,0.29093
237.9000,1.72035,219.965,0.311683
237.8000,2.29755,219.737,0.308566
237.7000,1.08837,219.224,0.301532
237.6000,1.87635,219.496,0.30526
237.5000,1.58856,219.72,0.308333
237.4000,1.37152,218.481,0.291336
237.3000,2.36169,219.364,0.303458
237.2000,0.649841,220.095,0.313465
237.1000,0.449081,220.818,0.323337
237.0000,-1.2338,221.196,0.328494
236.9000,1.40771,220.442,0.318204
236.8000,2.02969,221.274,0.329559
236.7000,1.09434,221.747,0.335986
236.6000,2.7985,220.81,0.323229
236.5000,2.32956,220.164,0.314411
236.4000,-0.915205,220.94,0.325006
236.3000,1.16424,220.954,0.325191
236.2000,1.34196,221.413,0.33144
236.1000,0.825677,220.728,0.322116
236.0000,0.124667,221.219,0.328803
235.9000,0.591189,220.565,0.31989
235.8000,2.25869,221.17,0.328139
235.7000,-0.301945,221.253,0.329266
235.6000,-0.00263601,221.833,0.337156
235.5000,0.264404,221.655,0.334738
235.4000,2.91814,222.276,0.343169
235.3000,0.743651,222.275,0.343154
235.2000,1.13402,222.896,0.351566
235.1000,0.250734,220.661,0.321204
235.0000,-0.7456,221.894,0.337987
234.9000,2.40687,222.469,0.345781
234.8000,0.440417,222.053,0.340141
234.7000,0.73956,223.143,0.354907
234.6000,0.374011,223.057,0.353743
234.5000,2.15521,223.767,0.363338
234.4000,0.95149,223.013,0.353145
234.3000,4.07766,223.843,0.364362
234.2000,0.805448,223.146,0.354953
234.1000,0.781833,223.601,0.361091
234.0000,2.18017,223.664,0.361947
233.9000,0.686653,223.081,0.354065
233.8000,1.84075,223.783,0.363552
233.7000,-0.44058,222.701,0.348928
233.6000,-0.226181,223.799,0.363766
233.5000,0.880271,224.838,0.377753
233.4000,-0.130132,224.716,0.376108
233.3000,0.352895,223.927,0.365493
233.2000,-1.53075,224.79,0.377113
233.1000,-1.02128,225.653,0.388682
233.0000,1.3451,225.719,0.389578
232.9000,0.61813,224.217,0.369401
232.8000,2.40221,226.095,0.394597
232.7000,0.46687,226.007,0.39343
232.6000,1.55097,226.493,0.399927
232.5000,0.386863,226.277,0.397036
232.4000,1.37575,226.07,0.394264
232.3000,1.59828,226.635,0.401818
232.2000,2.35046,224.792,0.377129
232.1000,1.01624,227.246,0.409961
232.0000,0.268793,227.477,0.413038
231.9000,-0.252753,227.393,0.411922
231.8000,2.60934,227.809,0.417453
231.7000,-0.774979,228.009,0.420118
231.6000,2.00409,227.762,0.416836
231.5000,0.899423,228.743,0.429841
231.4000,1.04744,227.549,0.414003
231.3000,1.79453,228.035,0.420464
231.2000,1.74534,229.004,0.433307
231.1000,1.8704,228.285,0.423773
231.0000,0.554269,228.719,0.429526
230.9000,4.35307,227.816,0.417543
230.8000,-0.607144,229.133,0.435016
230.7000,2.72274,228.996,0.433202
230.6000,2.0187,229.881,0.444894
230.5000,0.576156,230.097,0.447733
230.4000,1.72804,230.674,0.455343
230.3000,0.270301,230.025,0.446792
230.2000,1.67426,229.443,0.439105
230.1000,0.827424,230.404,0.451778
230.0000,0.788994,230.875,0.45798
229.9000,0.595338,231.351,0.46423
229.8000,2.2812,230.767,0.456564
229.7000,2.47403,232.29,0.476536
229.6000,-1.65761,229.901,0.445148
229.5000,2.44587,231.307,0.46365
229.4000,0.538305,231.411,0.465018
229.3000,0.427983,233.195,0.488357
229.2000,1.60477,232.339,0.477173
229.1000,-1.94883,234.549,0.505967
229.0000,3.40738,234.193,0.501334
228.9000,-0.866413,234.988,0.511652
228.8000,0.918708,233.729,0.495308
228.7000,-1.97967,235.255,0.515115
228.6000,0.232442,235.24,0.51491
228.5000,3.54535,236.238,0.527807
228.4000,1.06574,235.761,0.52165
228.3000,0.499821,236.268,0.528202
228.2000,-3.17087,235.118,0.51334
228.1000,1.16587,236.926,0.536668
228.0000,-0.0127217,237.876,0.548879
227.9000,0.608027,237.507,0.544139
227.8000,1.6254,238.795,0.560645
227.7000,-0.00627621,238.112,0.551901
227.6000,2.77381,237.116,0.539116
227.5000,1.16749,238.967,0.562846
227.4000,1.41054,239.907,0.574828
227.3000,3.13604,240.423,0.581402
227.2000,-2.34338,239.459,0.569124
227.1000,0.813047,242.333,0.605593
227.0000,1.41044,242.704,0.610283
226.9000,-1.13635,243.324,0.618093
226.8000,0.489681,243.072,0.614925
226.7000,1.40063,244.143,0.628389
226.6000,-0.954618,244.345,0.63092
226.5000,2.99636,244.931,0.63826
226.4000,2.29602,244.899,0.637863
226.3000,-1.01943,246.119,0.65311
226.2000,1.13051,244.945,0.638445
226.1000,1.69048,246.843,0.662126
226.0000,1.85289,248.607,0.684004
225.9000,1.7647,248.091,0.67761
225.8000,0.67768,248.265,0.679771
225.7000,-0.717991,249.609,0.696369
225.6000,0.796869,251.888,0.724344
225.5000,-0.675644,252.826,0.735802
225.4000,2.33115,252.803,0.735525
225.3000,3.06346,251.813,0.723429
225.2000,-2.61501,254.714,0.758749
225.1000,0.0875704,254.271,0.753376
225.0000,-0.641256,255.549,0.768855
224.9000,2.79088,255.053,0.762866
224.8000,1.40513,256.843,0.784461
224.7000,2.61172,258.019,0.79859
224.6000,1.14805,259.506,0.816385
224.5000,1.27735,259.606,0.817575
224.4000,-2.25247,259.75,0.819291
224.3000,1.76643,259.763,0.81944
224.2000,0.31454,262.025,0.846322
224.1000,1.84107,263.465,0.863331
224.0000,-3.94336,264.226,0.87228
223.9000,2.3794,264.533,0.875888
223.8000,2.43482,264.195,0.87192
223.7000,2.59645,267.121,0.906159
223.6000,1.26313,267.675,0.912609
223.5000,1.42249,269.426,0.932926
223.4000,2.92915,270.301,0.943031
223.3000,2.95595,271.665,0.958736
223.2000,1.14023,273.101,0.975192
223.1000,-0.415796,274.514,0.991318
223.0000,0.855251,275.525,1.00281
222.9000,1.34202,276.593,1.01492
222.8000,2.98363,278.772,1.0395
222.7000,6.07932,280.099,1.05439
222.6000,-2.05467,281.701,1.07229
222.5000,2.97886,282.908,1.08572
222.4000,0.860306,283.862,1.0963
222.3000,2.94241,284.338,1.10157
222.2000,0.10663,286.784,1.12853
222.1000,1.09779,288.596,1.14838
222.0000,3.45533,289.243,1.15544
221.9000,1.54842,291.461,1.17955
221.8000,-1.00348,293.064,1.19689
221.7000,1.02115,294.53,1.21266
221.6000,0.686027,295.545,1.22355
221.5000,6.18772,297.642,1.24594
221.4000,1.29708,299.827,1.26913
221.3000,-7.19467,301.596,1.28782
221.2000,-4.69509,303.119,1.30382
221.1000,1.95976,305.043,1.32394
221.0000,-0.232917,307.482,1.3493
220.9000,2.74951,309.077,1.36579
220.8000,-3.23848,311.314,1.3888
220.7000,4.83054,312.549,1.40145
220.6000,-5.0208,314.909,1.4255
220.5000,1.87332,317.857,1.45533
220.4000,-3.57959,320.241,1.47929
220.3000,-3.22312,322.77,1.50454
220.2000,-0.477259,323.966,1.51642
220.1000,3.517,326.403,1.54052
220.0000,-1.34548,329.38,1.56977
219.9000,-2.2851,330.356,1.5793
219.8000,-0.195537,334.317,1.61777
219.7000,-0.248586,335.772,1.6318
219.6000,0.873051,338.283,1.6559
219.5000,-1.36094,341.014,1.68194
219.4000,-8.08283,343.857,1.70887
219.3000,1.57695,345.834,1.72749
219.2000,0.00620885,350.963,1.77537
219.1000,-0.0341078,351.495,1.7803
219.0000,-3.82114,355.006,1.8127
218.9000,3.80856,358.224,1.84216
218.8000,2.82833,361.518,1.87209
218.7000,-1.49044,364.24,1.89666
218.6000,7.82377,366.214,1.91437
218.5000,-1.94409,369.489,1.94358
218.4000,1.73429,372.23,1.96786
218.3000,2.51744,376.55,2.00583
218.2000,0.597462,379.681,2.03312
218.1000,1.64662,385.3,2.08162
218.0000,3.8011,387.495,2.10042
217.9000,-3.21232,391.577,2.13512
217.8000,-1.16615,394.353,2.15854
217.7000,1.8622,399.958,2.20542
217.6000,-0.256238,403.279,2.23294
217.5000,1.99448,408.824,2.27846
217.4000,3.09817,412.302,2.30675
217.3000,1.6528,416.783,2.3429
217.2000,-6.81901,420.809,2.3751
217.1000,-0.706979,427.399,2.42726
217.0000,-9.19229,431.364,2.45832
216.9000,-4.01302,435.891,2.49348
216.8000,-2.70128,441.756,2.53858
216.7000,-1.60268,446.677,2.57603
216.6000,-4.65148,448.825,2.59227
216.5000,-0.365489,454.539,2.63516
216.4000,0.465387,458.188,2.6623
216.3000,4.62198,463.229,2.6995
216.2000,-3.78663,467.814,2.73305
216.1000,4.10042,472.466,2.76681
216.0000,-11.3764,477.73,2.80465
215.9000,16.3778,481.844,2.834
215.8000,0.0245457,487.327,2.87277
215.7000,-5.20553,490.905,2.89788
215.6000,13.6044,495.277,2.92835
215.5000,1.26736,501.215,2.96936
215.4000,0.317664,506.376,3.00468
215.3000,-6.10104,510.45,3.03235
215.2000,-7.88164,516.43,3.07261
215.1000,-8.32658,521.741,3.10805
215.0000,4.57774,526.859,3.14191
214.9000,9.16438,531.434,3.17194
214.8000,-3.89257,536.462,3.20469
214.7000,-4.69232,543.852,3.25236
214.6000,9.60808,549.223,3.28667
214.5000,-4.62632,553.399,3.31314
214.4000,3.92735,559.606,3.35218
214.3000,-2.15512,563.76,3.3781
214.2000,-2.90279,571.269,3.42455
214.1000,-3.14645,576.292,3.45533
214.0000,-2.03668,582.513,3.49315
213.9000,-2.81041,587.114,3.52089
213.8000,-3.27773,593.251,3.55761
213.7000,-8.36119,599.94,3.59726
213.6000,2.01959,603.758,3.61973
213.5000,-7.92908,610.18,3.65725
213.4000,8.29509,615.96,3.69073
213.3000,-14.1153,621.988,3.72537
213.2000,-11.3833,627.955,3.75937
213.1000,-4.84021,633.075,3.78833
213.0000,-10.3056,638.903,3.82105
212.9000,-4.68312,642.743,3.84247
212.8000,8.86948,650.172,3.88361
212.7000,-8.52737,656.025,3.91573
212.6000,16.5724,663.639,3.95716
212.5000,5.27679,668.349,3.98259
212.4000,-0.288133,675.283,4.01974
212.3000,-15.1948,682.28,4.0569
212.2000,5.47233,688.022,4.08716
212.1000,7.02388,693.816,4.11747
212.0000,5.95897,702.561,4.16281
211.9000,9.95212,708.738,4.19455
211.8000,-3.3795,715.214,4.22757
211.7000,14.1335,721.489,4.25932
211.6000,-15.3415,726.765,4.28584
211.5000,0.607315,731.994,4.31196
211.4000,13.2983,738.325,4.34337
211.3000,1.35892,743.079,4.36681
211.2000,-11.7009,748.482,4.39328
211.1000,-7.88091,753.225,4.41639
211.0000,-4.68795,759.094,4.44482
210.9000,-2.70678,764.347,4.4701
210.8000,-1.65423,770.74,4.50067
210.7000,-4.29094,775.616,4.52385
210.6000,3.53124,780.114,4.5451
210.5000,-2.51605,785.387,4.5699
210.4000,-0.633436,790.026,4.59159
210.3000,-5.30442,796.609,4.6222
210.2000,-0.325661,799.185,4.63411
210.1000,10.6736,804.72,4.6596
210.0000,0.632038,808.961,4.67904
209.9000,3.38622,812.801,4.69655
209.8000,1.567,819.063,4.72497
209.7000,-1.5474,821.923,4.73788
209.6000,2.81132,827.518,4.76304
209.5000,6.9748,832.964,4.78739
209.4000,9.12313,836.14,4.80152
209.3000,-12.2282,840.267,4.81982
209.2000,-1.00832,843.188,4.83273
209.1000,1.77151,847.509,4.85175
209.0000,0.567335,849.612,4.86098
208.9000,-6.90671,851.672,4.87
208.8000,0.678631,856.481,4.89098
208.7000,-9.89573,855.697,4.88757
208.6000,0.299241,859.453,4.9039
208.5000,7.92834,862.894,4.91881
208.4000,1.23961,864.509,4.92578
208.3000,-12.5821,865.759,4.93118
208.2000,4.78608,868.21,4.94173
208.1000,-2.83325,871.054,4.95395
208.0000,12.9039,871.231,4.95472
207.9000,-3.44873,872.38,4.95964
207.8000,2.89948,877.636,4.9821
207.7000,14.2499,877.059,4.97964
207.6000,-15.0402,877.941,4.9834
207.5000,-12.738,879.335,4.98934
207.4000,-5.04985,879.334,4.98933
207.3000,1.50651,880.378,4.99377
207.2000,-7.75236,881.96,5.0005
207.1000,-5.23347,881.542,4.99872
207.0000,13.1311,880.87,4.99587
206.9000,9.08703,881.401,4.99812
206.8000,2.51251,881.57,4.99884
206.7000,0.56457,880.421,4.99396
206.6000,13.6185,880.686,4.99508
206.5000,-6.58802,880.125,4.9927
206.4000,11.8993,878.593,4.98618
206.3000,14.6202,879.201,4.98877
206.2000,-21.986,878.077,4.98398
206.1000,-12.6174,876.753,4.97834
206.0000,2.84852,875.768,4.97413
205.9000,7.52085,874.708,4.9696
205.8000,2.29076,873.666,4.96515
205.7000,-1.30341,871.995,4.95799
205.6000,14.0739,870.365,4.951
205.5000,-4.97627,868.539,4.94315
205.4000,10.2162,866.896,4.93608
205.3000,-6.16056,865.841,4.93153
205.2000,7.32005,861.869,4.91437
205.1000,7.83821,861.263,4.91174
205.0000,2.67371,858.27,4.89876
204.9000,1.66084,856.415,4.89069
204.8000,-1.61774,854.641,4.88296
204.7000,11.5594,852.479,4.87352
204.6000,-6.00466,851.029,4.86718
204.5000,-0.0695758,848.64,4.85672
204.4000,10.2651,846.441,4.84706
204.3000,12.844,841.742,4.82634
204.2000,1.84027,840.739,4.82191
204.1000,-1.05148,839.712,4.81736
204.0000,-3.73095,835.735,4.79972
203.9000,-4.42369,834.838,4.79573
203.8000,16.18,830.704,4.7773
203.7000,-0.739461,829.306,4.77105
203.6000,20.2006,825.136,4.75235
203.5000,-1.80003,824.554,4.74973
203.4000,0.475899,822.728,4.74151
203.3000,5.77352,820.762,4.73265
203.2000,-5.1871,818.979,4.72459
203.1000,-0.861105,816.174,4.71188
203.0000,12.4882,814.22,4.70301
202.9000,7.02136,812.048,4.69312
202.8000,9.90215,809.847,4.68308
202.7000,5.12698,809.212,4.68018
202.6000,3.75792,808.1,4.6751
202.5000,0.0260717,805.69,4.66406
202.4000,3.19083,804.537,4.65876
202.3000,12.7875,801.995,4.64707
202.2000,-0.997373,800.644,4.64084
202.1000,0.0606947,799.747,4.63671
202.0000,12.4485,797.863,4.628
201.9000,-14.8549,796.843,4.62328
201.8000,-2.62014,795.181,4.61558
201.7000,-0.728717,794.837,4.61398
201.6000,10.3816,793.83,4.60931
201.5000,-3.75086,793.66,4.60852
201.4000,-1.28904,791.252,4.59731
201.3000,-0.805911,793.304,4.60686
201.2000,-20.8815,791.964,4.60063
201.1000,7.21617,792.65,4.60382
201.0000,-9.16653,793.928,4.60976
200.9000,9.14546,793.151,4.60615
200.8000,-11.5457,792.207,4.60176
200.7000,-8.02875,793.319,4.60693
200.6000,10.9123,794.555,4.61267
200.5000,5.78458,796.49,4.62164
200.4000,6.04876,796.642,4.62235
200.3000,-9.79631,798.504,4.63097
200.2000,0.253075,800.093,4.6383
200.1000,-3.34688,803.266,4.65292
200.0000,5.21313,803.509,4.65404
199.9000,-5.88586,807.654,4.67305
199.8000,-3.24767,810.315,4.68522
199.7000,-1.0431,811.238,4.68943
199.6000,-5.90672,813.712,4.7007
199.5000,-7.97521,819.11,4.72518
199.4000,8.07697,820.911,4.73332
199.3000,7.46901,824.862,4.75111
199.2000,-5.92673,828.493,4.76741
199.1000,-13.6113,830.64,4.77702
199.0000,2.19285,836.258,4.80205
198.9000,-10.8331,840.605,4.82132
198.8000,12.0217,847.84,4.8532
198.7000,-15.5038,853.483,4.87791
198.6000,1.14873,860.567,4.90873
198.5000,-3.26418,867.16,4.93722
198.4000,-3.28454,874.743,4.96975
198.3000,-10.4976,880.426,4.99398
198.2000,-3.10916,887.587,5.02432
198.1000,8.39587,894.532,5.05353
198.0000,13.6041,901.824,5.08401
197.9000,8.75307,913.678,5.1331
197.8000,-14.477,920.489,5.16105
197.7000,8.07858,929.455,5.19758
197.6000,-4.24584,938.738,5.23509
197.5000,1.82005,947.852,5.2716
197.4000,-1.55206,957.499,5.30992
197.3000,0.422962,970.166,5.35974
197.2000,11.806,980.023,5.39812
197.1000,8.35812,990.795,5.43969
197.0000,0.726735,1004.18,5.49079
196.9000,7.91267,1016.82,5.53854
196.8000,-11.7786,1029.22,5.58486
196.7000,-8.16869,1041.49,5.63023
196.6000,-5.74953,1054.92,5.67937
196.5000,5.3819,1067.22,5.7239
196.4000,-24.8243,1071.34,5.73871
196.3000,4.57938,1073.91,5.74791
196.2000,17.456,1076.06,5.75563
196.1000,-17.6892,1075.3,5.75289
196.0000,-4.32341,1075.32,5.75297
195.9000,-9.02713,1076.05,5.75559
195.8000,-14.6488,1075.89,5.75502
195.7000,1.92688,1076.55,5.75738
195.6000,-1.53261,1074.31,5.74937
195.5000,4.56335,1075.78,5.75462
195.4000,7.9314,1075.91,5.75509
195.3000,-2.83047,1075.82,5.75476
195.2000,-4.02258,1076.68,5.75784
195.1000,8.91223,1076.38,5.75676
195.0000,8.0559,1076.78,5.75821
194.9000,12.8704,1076.76,5.75811
194.8000,-1.60885,1076.13,5.75587
194.7000,-0.871681,1075.45,5.75344
194.6000,-3.42341,1077.48,5.76071
194.5000,-3.33201,1077.6,5.76111
194.4000,11.7942,1077.05,5.75915
194.3000,7.93335,1076.49,5.75717
194.2000,7.05245,1076.62,5.75761
194.1000,-1.16657,1077.09,5.75929
194.0000,10.3215,1076.24,5.75626
193.9000,5.51457,1075.46,5.75346
193.8000,0.438464,1075.95,5.75522
193.7000,-6.6806,1076.53,5.75732
193.6000,-7.7036,1077.2,5.7597
193.5000,-6.72231,1076.61,5.7576
193.4000,-8.74027,1076.68,5.75783
193.3000,6.34457,1076.93,5.75872
193.2000,-0.390458,1076.53,5.75732
193.1000,0.381965,1076.68,5.75783
193.0000,2.24968,1076.51,5.75725
192.9000,-8.07335,1076.86,5.75849
192.8000,4.11482,1077.14,5.75949
192.7000,-6.96106,1077.41,5.76044
192.6000,-12.1372,1076.53,5.75731
192.5000,6.84095,1077.23,5.7598
192.4000,-0.866273,1077.11,5.75939
192.3000,1.35083,1076.64,5.7577
192.2000,-1.57133,1076.66,5.75778
192.1000,7.62236,1078.24,5.76342
192.0000,-4.87261,1076.29,5.75644
191.9000,-6.23845,1076.31,5.75652
191.8000,-4.33652,1077.02,5.75907
191.7000,8.73883,1076.53,5.75731
191.6000,3.04268,1076.79,5.75824
191.5000,-3.62385,1077.65,5.7613
191.4000,1.82224,1076.66,5.75776
191.3000,0.0189479,1077.33,5.76015
191.2000,4.84418,1075.79,5.75466
191.1000,-4.89944,1077.08,5.75928
191.0000,3.72367,1076.62,5.75762
190.9000,9.66369,1076.42,5.7569
190.8000,1.1966,1077.64,5.76126
190.7000,-5.90452,1076.83,5.75838
190.6000,7.6289,1077.56,5.76099
190.5000,-1.57227,1076.8,5.75826
190.4000,-11.6485,1077.11,5.75936
190.3000,-4.52584,1077.02,5.75907
190.2000,-0.660564,1076.86,5.75848
190.1000,8.9342,1076.62,5.75764
190.0000,6.4994,1077.3,5.76005

##### Extended Information
[Comments]
Sample name,TB TH  KD_ Buffer and Additive 
Comment,Buffer and additive
User,Tara_ Kimani _ Tyler 
Division
Company,Saint Mary's College

[Detailed Information]
Creation date,9/29/2022 3:04 PM

Data array type,Linear data array * 3
Horizontal axis,Wavelength [nm]
Vertical axis(1),CD [mdeg]
Vertical axis(2),HT [V]
Vertical axis(3),Abs
Start,320 nm
End,190 nm
Data interval,0.1 nm
Data points,1301    

[Measurement Information]
Instrument name,J-1500
Model name,J-1500
Serial No.,B051061638

Detector,PM-539
Detector S/N,B051061638
  Lock-in amp.,X mode
  HT volt,Auto

Accessory,PTC-517
Accessory S/N,B026561646
  Temperature,22.19 C
  Control sensor,Holder
  Monitor sensor,Holder

Measurement date,9/29/2022 3:04 PM

CD Overload detect,989
Photometric mode,CD, HT, Abs
Measure range,320 - 190 nm
Data pitch,0.1 nm
CD scale,20 mdeg/0.05 dOD
FL scale,20 mdeg/0.05 dOD
D.I.T.,8 msec
Bandwidth,2.00 nm
Start mode,Immediately
Scanning mode,Continuous
Scanning speed,200 nm/min
Baseline correction,None
Shutter control,Auto
No. of cycle,1/1
N2 Flowmeter,Manual

Solvent,NaPO4 buffer

