TITLE,TB TH  KD_ Buffer and Additive 
DATA TYPE,
ORIGIN,JASCO
OWNER,
DATE,22/09/29
TIME,16:01:55
SPECTROMETER/DATA SYSTEM,
LOCALE,1033
RESOLUTION,
DELTAX,-0.1
XUNITS,NANOMETERS
YUNITS,CD [mdeg]
Y2UNITS,HT [V]
Y3UNITS,ABSORBANCE
FIRSTX,  320.0000
LASTX,  190.0000
NPOINTS,    1301
FIRSTY,     0.10152
MAXY,    24.87453
MINY,   -18.08336
XYDATA
320.0000,0.101525,210.424,0.178769
319.9000,0.735302,209.349,0.163479
319.8000,1.31713,209.915,0.171543
319.7000,1.55721,210.226,0.175954
319.6000,2.12636,209.39,0.16406
319.5000,2.04013,209.657,0.167868
319.4000,1.06008,209.355,0.16356
319.3000,-0.228045,208.552,0.152111
319.2000,0.973265,209.024,0.158842
319.1000,0.83778,210.042,0.173346
319.0000,1.01172,209.555,0.166416
318.9000,1.14494,209.743,0.169093
318.8000,1.04059,209.386,0.164011
318.7000,2.22729,208.316,0.148724
318.6000,-0.103066,208.555,0.152143
318.5000,2.08521,209.451,0.164932
318.4000,2.77973,208.796,0.155591
318.3000,-0.362515,208.703,0.154264
318.2000,0.649379,209.797,0.169851
318.1000,0.264725,210.396,0.178367
318.0000,1.7817,208.875,0.156724
317.9000,2.2767,208.887,0.156885
317.8000,2.26237,208.251,0.1478
317.7000,-0.0461628,208.607,0.152888
317.6000,0.396601,209.009,0.158632
317.5000,2.47014,208.723,0.154555
317.4000,1.62621,208.169,0.146632
317.3000,2.62319,208.909,0.157209
317.2000,0.819999,208.78,0.155365
317.1000,1.35409,208.656,0.153584
317.0000,0.004766,208.439,0.150491
316.9000,1.21528,209.692,0.168367
316.8000,3.21069,208.67,0.153795
316.7000,1.53537,208.823,0.155979
316.6000,1.48968,210.519,0.180119
316.5000,0.213234,209.476,0.165287
316.4000,0.579175,208.914,0.157274
316.3000,1.97012,208.456,0.150734
316.2000,2.14135,208.725,0.154571
316.1000,0.993882,207.764,0.14082
316.0000,0.38612,209.335,0.163285
315.9000,2.4289,209.212,0.161524
315.8000,2.31501,208.72,0.154507
315.7000,0.649246,208.926,0.157451
315.6000,1.45221,209.428,0.164609
315.5000,0.669221,208.297,0.148465
315.4000,0.573633,208.3,0.148497
315.3000,1.17192,208.38,0.149648
315.2000,0.605385,208.138,0.146178
315.1000,0.354679,207.865,0.142266
315.0000,0.348755,207.75,0.140625
314.9000,0.8157,209.301,0.1628
314.8000,0.297833,208.55,0.152078
314.7000,0.903338,207.16,0.13215
314.6000,2.37055,207.718,0.140171
314.5000,1.57651,210.433,0.178897
314.4000,2.71238,208.047,0.14488
314.3000,1.48274,208.753,0.154976
314.2000,1.86605,208.61,0.152936
314.1000,1.14252,208.432,0.150393
314.0000,2.53244,207.631,0.138919
313.9000,-0.28027,206.805,0.12705
313.8000,0.698171,208.127,0.146032
313.7000,1.93652,207.645,0.139114
313.6000,-1.36819,209.034,0.158987
313.5000,-0.542761,207.763,0.140804
313.4000,0.701947,207.878,0.142461
313.3000,-1.28892,209.903,0.171365
313.2000,1.87495,206.882,0.128158
313.1000,-0.753341,208.708,0.154329
313.0000,2.96099,209.104,0.159989
312.9000,-0.472653,209.089,0.15978
312.8000,-0.522224,207.138,0.131841
312.7000,0.603852,208.097,0.145594
312.6000,2.99278,207.777,0.141015
312.5000,0.975063,207.537,0.13757
312.4000,0.904536,207.61,0.13861
312.3000,-0.0425747,207.924,0.14311
312.2000,-0.159411,207.713,0.140089
312.1000,0.240273,206.415,0.121435
312.0000,0.597834,208.847,0.156319
311.9000,2.38636,207.816,0.141568
311.8000,3.41162,209.484,0.165399
311.7000,2.29204,208.115,0.145853
311.6000,1.03277,208.458,0.150766
311.5000,2.1258,208.673,0.153827
311.4000,1.92729,208.879,0.156772
311.3000,0.0282246,208.53,0.151787
311.2000,2.37568,206.974,0.129478
311.1000,1.99694,207.862,0.142234
311.0000,-1.67291,208.737,0.15475
310.9000,-0.135481,208.377,0.149599
310.8000,2.34234,208.853,0.1564
310.7000,2.06273,208.944,0.15771
310.6000,0.0461842,208.87,0.156643
310.5000,0.991742,209.033,0.158971
310.4000,2.53925,208.071,0.145221
310.3000,1.86068,207.045,0.130505
310.2000,1.12964,208.929,0.157484
310.1000,-0.515734,208.157,0.146454
310.0000,0.518629,208.584,0.152564
309.9000,1.42986,207.877,0.142445
309.8000,2.38067,207.622,0.138789
309.7000,1.26714,208.297,0.148465
309.6000,1.28738,207.78,0.141048
309.5000,0.261573,209.54,0.166206
309.4000,0.122267,208.77,0.155219
309.3000,1.55997,208.735,0.154717
309.2000,0.695056,208.777,0.155316
309.1000,0.10046,209.365,0.163705
309.0000,1.92165,208.083,0.145399
308.9000,2.52179,208.482,0.151106
308.8000,1.24391,210.101,0.174183
308.7000,-0.181891,207.833,0.141811
308.6000,0.214551,208.258,0.147897
308.5000,2.49553,208.113,0.145821
308.4000,-0.11027,208.202,0.147102
308.3000,1.1646,208.388,0.149761
308.2000,1.25697,209.032,0.158955
308.1000,0.0308525,207.528,0.137439
308.0000,-0.27052,209.935,0.171816
307.9000,1.71054,208.409,0.150053
307.8000,1.52236,209.034,0.158987
307.7000,3.9879,208.3,0.148497
307.6000,0.986113,208.854,0.156416
307.5000,1.57661,206.763,0.126446
307.4000,1.96021,209.052,0.159246
307.3000,1.34952,207.743,0.140528
307.2000,0.645225,208.188,0.146892
307.1000,3.33514,208.165,0.146567
307.0000,1.40379,207.816,0.141568
306.9000,0.958169,210.098,0.174135
306.8000,0.268838,208.68,0.15394
306.7000,1.19568,208.299,0.148481
306.6000,1.11522,206.746,0.126201
306.5000,0.652962,207.493,0.136935
306.4000,1.20815,208.435,0.150426
306.3000,3.20502,208.02,0.14449
306.2000,0.768682,209.032,0.158955
306.1000,-0.596027,208.608,0.152904
306.0000,1.46575,209.849,0.170592
305.9000,2.0906,208.926,0.157451
305.8000,0.333089,207.709,0.14004
305.7000,2.68338,208.657,0.1536
305.6000,2.31184,210.132,0.174618
305.5000,0.852405,210.292,0.176887
305.4000,0.31832,208.016,0.144442
305.3000,0.95915,208.526,0.151738
305.2000,-0.0945992,207.885,0.142558
305.1000,2.15898,207.087,0.131108
305.0000,1.77118,208.004,0.144263
304.9000,1.33068,208.45,0.150653
304.8000,-0.237457,209.106,0.160022
304.7000,1.68727,208.991,0.158373
304.6000,2.5812,207.618,0.138724
304.5000,0.72699,208.337,0.149032
304.4000,2.79505,208.203,0.147119
304.3000,1.47214,207.415,0.135813
304.2000,0.723002,207.665,0.139407
304.1000,1.5089,207.824,0.141681
304.0000,-0.121448,208.436,0.150442
303.9000,0.828946,207.941,0.143354
303.8000,0.89748,208.106,0.145724
303.7000,1.85672,207.405,0.135666
303.6000,1.14853,208.787,0.155462
303.5000,-0.116039,208.081,0.145367
303.4000,-0.65284,208.218,0.14733
303.3000,1.27871,207.899,0.142753
303.2000,1.56316,207.599,0.138464
303.1000,1.21668,209.223,0.161686
303.0000,0.946444,207.857,0.142152
302.9000,1.1748,207.197,0.132688
302.8000,-0.323076,208.033,0.144685
302.7000,0.704757,208.31,0.148643
302.6000,-0.0594124,208.756,0.155025
302.5000,-0.0211502,208.171,0.146648
302.4000,3.46525,208.15,0.146356
302.3000,0.456954,208.633,0.15326
302.2000,1.30977,208.865,0.156578
302.1000,1.75152,208.51,0.151511
302.0000,1.69748,208.721,0.154523
301.9000,1.38115,208.352,0.149243
301.8000,-0.585466,208.154,0.146405
301.7000,2.89428,208.155,0.146421
301.6000,2.62972,208.296,0.148448
301.5000,0.48888,208.337,0.149032
301.4000,1.80275,208.091,0.145513
301.3000,-1.02112,208.701,0.154232
301.2000,1.38379,207.653,0.139228
301.1000,2.66423,207.559,0.137879
301.0000,0.147708,208.071,0.145221
300.9000,0.751607,208.428,0.150329
300.8000,1.20094,208.319,0.148773
300.7000,0.393383,207.681,0.139634
300.6000,0.275213,208.501,0.151382
300.5000,1.73688,207.39,0.135455
300.4000,2.24551,207.938,0.143322
300.3000,1.68795,207.99,0.144068
300.2000,1.29386,208.183,0.146827
300.1000,1.14538,208.481,0.15109
300.0000,0.0498911,209.687,0.168287
299.9000,1.07475,208.385,0.149713
299.8000,1.54075,207.087,0.131108
299.7000,0.743542,206.966,0.129365
299.6000,1.68017,207.115,0.131499
299.5000,1.82411,207.524,0.137374
299.4000,3.57966,207.823,0.141665
299.3000,0.520681,206.665,0.125027
299.2000,0.517484,207.325,0.134527
299.1000,1.46536,206.789,0.126821
299.0000,2.46651,209.279,0.162478
298.9000,0.0601401,208.395,0.149859
298.8000,2.94698,208.295,0.148432
298.7000,0.948313,207.597,0.138431
298.6000,1.47989,207.764,0.14082
298.5000,0.120934,207.41,0.135748
298.4000,2.36127,207.815,0.141551
298.3000,-0.00876827,207.666,0.139423
298.2000,1.5723,208.367,0.149453
298.1000,0.504652,207.38,0.135309
298.0000,1.11121,207.936,0.143289
297.9000,1.9101,207.38,0.135309
297.8000,1.89084,207.367,0.13513
297.7000,1.18757,207.962,0.143663
297.6000,0.248793,207.52,0.137326
297.5000,-0.395599,208.082,0.145383
297.4000,-0.428114,208.144,0.146275
297.3000,0.594253,206.875,0.12806
297.2000,1.54686,207.845,0.14199
297.1000,-0.409373,208.429,0.150345
297.0000,1.36132,206.716,0.125761
296.9000,1.37664,209.394,0.164125
296.8000,1.19271,208.616,0.153017
296.7000,2.40068,207.809,0.14147
296.6000,1.20231,208.83,0.156077
296.5000,0.77967,207.891,0.14264
296.4000,0.546686,207.373,0.135211
296.3000,0.0778503,208.957,0.157888
296.2000,0.300847,208.113,0.145821
296.1000,0.805976,207.703,0.139943
296.0000,1.12286,207.271,0.133746
295.9000,1.10177,207.43,0.136024
295.8000,0.268694,207.765,0.140837
295.7000,0.886868,207.661,0.139342
295.6000,0.987483,207.468,0.136578
295.5000,0.484732,207.793,0.141243
295.4000,1.76118,207.518,0.137293
295.3000,0.799466,208.326,0.14887
295.2000,0.915816,206.732,0.125989
295.1000,0.741529,208.233,0.14754
295.0000,0.273265,206.992,0.129739
294.9000,1.84383,206.954,0.129185
294.8000,0.550887,208.393,0.149826
294.7000,1.36688,206.751,0.126266
294.6000,1.19815,206.454,0.12199
294.5000,0.591503,208.027,0.144588
294.4000,1.8686,208.456,0.150734
294.3000,2.24269,207.576,0.138123
294.2000,0.824671,208.071,0.145221
294.1000,0.689776,206.83,0.127408
294.0000,3.09751,207.255,0.133518
293.9000,-0.744187,207.988,0.144036
293.8000,-0.482569,207.516,0.137261
293.7000,0.270513,207.9,0.14277
293.6000,0.296903,208.258,0.147897
293.5000,-0.102799,209.348,0.163462
293.4000,1.81458,207.316,0.134397
293.3000,1.23281,206.951,0.129152
293.2000,1.24732,208.32,0.148789
293.1000,1.42046,207.563,0.137943
293.0000,0.109079,206.517,0.122905
292.9000,0.662207,206.807,0.127082
292.8000,0.672314,209.075,0.159569
292.7000,2.00892,207.587,0.138285
292.6000,2.46746,206.48,0.122366
292.5000,2.23614,207.844,0.141974
292.4000,1.43961,206.191,0.118199
292.3000,-0.625793,208.32,0.148789
292.2000,0.414818,206.4,0.121206
292.1000,1.63894,208.141,0.146226
292.0000,2.72868,207.316,0.134397
291.9000,1.44279,206.047,0.116122
291.8000,0.630455,207.461,0.13648
291.7000,0.248839,207.151,0.13202
291.6000,-0.0333142,206.185,0.118117
291.5000,0.601983,207.06,0.130717
291.4000,2.15919,206.877,0.128077
291.3000,1.31737,207.462,0.136496
291.2000,1.51698,206.489,0.122496
291.1000,0.794687,206.735,0.126038
291.0000,1.54464,205.606,0.109753
290.9000,0.23407,207.045,0.130505
290.8000,0.220504,206.668,0.125075
290.7000,1.98177,207.32,0.134446
290.6000,1.0343,206,0.115435
290.5000,0.639595,206.227,0.118722
290.4000,0.970545,207.594,0.138383
290.3000,0.690428,204.358,0.09165
290.2000,3.16311,207.351,0.134902
290.1000,0.612959,207.267,0.133697
290.0000,1.21823,206.358,0.120602
289.9000,1.41629,207.337,0.13469
289.8000,1.55768,207.084,0.131059
289.7000,0.912242,207.077,0.130962
289.6000,1.89625,206.699,0.125516
289.5000,0.111581,206.309,0.119899
289.4000,1.59727,208.455,0.150717
289.3000,0.314861,207.739,0.140463
289.2000,0.664561,207.181,0.13246
289.1000,-0.588837,207.138,0.131841
289.0000,2.56933,206.718,0.125793
288.9000,-0.249522,206.66,0.124961
288.8000,0.0704129,206.875,0.12806
288.7000,0.212666,207.49,0.136886
288.6000,0.452116,207.163,0.132199
288.5000,2.21828,206.574,0.123721
288.4000,1.60051,206.925,0.128778
288.3000,0.914773,206.904,0.128468
288.2000,0.342522,207.289,0.134007
288.1000,1.96872,206.313,0.119965
288.0000,1.71395,208.132,0.146097
287.9000,2.82788,206.278,0.119458
287.8000,1.52847,206.839,0.127539
287.7000,1.21777,206.783,0.126723
287.6000,0.045535,207.377,0.135276
287.5000,2.3484,206.588,0.123917
287.4000,1.66601,207.305,0.134234
287.3000,1.73343,206.511,0.122807
287.2000,1.67701,206.975,0.129495
287.1000,1.21665,206.811,0.127131
287.0000,1.12471,207.027,0.130245
286.9000,0.759469,207.167,0.132248
286.8000,1.05926,206.802,0.127
286.7000,0.958662,206.963,0.129315
286.6000,1.1134,207.63,0.138903
286.5000,1.27359,206.132,0.117349
286.4000,0.596414,208.126,0.146016
286.3000,1.38369,206.685,0.12532
286.2000,1.44014,207.469,0.136594
286.1000,0.502945,207.573,0.13809
286.0000,1.68517,206.038,0.115991
285.9000,0.977305,207.269,0.133713
285.8000,0.588161,206.116,0.11712
285.7000,1.30896,207.314,0.134365
285.6000,0.0519034,207.034,0.130342
285.5000,1.74863,207.575,0.138106
285.4000,1.52604,207.358,0.134999
285.3000,0.0174643,206.409,0.121337
285.2000,1.71178,206.623,0.124423
285.1000,0.731212,207.845,0.14199
285.0000,-1.90532,207.501,0.137049
284.9000,0.679728,204.888,0.0993491
284.8000,2.23963,207.35,0.134885
284.7000,0.12151,206.327,0.12016
284.6000,0.233383,207.602,0.138496
284.5000,-0.45032,206.473,0.122268
284.4000,1.03143,206.264,0.119245
284.3000,0.966658,206.218,0.118592
284.2000,-0.0693736,206.324,0.120112
284.1000,0.431085,207.416,0.135829
284.0000,1.11178,206.134,0.117382
283.9000,0.0957004,206.931,0.128859
283.8000,1.43041,204.482,0.0934611
283.7000,-0.600844,206.667,0.125059
283.6000,2.50987,207.066,0.130799
283.5000,0.666939,206.583,0.123851
283.4000,1.29854,207.895,0.142705
283.3000,1.19733,206.831,0.127424
283.2000,1.44304,206.895,0.128337
283.1000,0.900352,206.836,0.12749
283.0000,0.180061,207.662,0.139358
282.9000,1.33113,206.805,0.12705
282.8000,1.89864,208.131,0.146081
282.7000,1.45879,207.841,0.141925
282.6000,0.206501,207.241,0.133323
282.5000,-0.091631,206.611,0.124259
282.4000,1.21393,206.81,0.127115
282.3000,0.835373,208.9,0.157079
282.2000,-0.567219,208.641,0.153374
282.1000,1.33106,206.281,0.119491
282.0000,0.967366,207.245,0.133372
281.9000,0.323659,207.663,0.139374
281.8000,1.84195,207.579,0.138171
281.7000,0.22064,205.816,0.112784
281.6000,0.990546,206.745,0.126185
281.5000,0.116396,207.63,0.138903
281.4000,0.954074,205.49,0.108065
281.3000,0.860712,206.667,0.125059
281.2000,1.63668,206.32,0.120063
281.1000,2.10577,205.842,0.11316
281.0000,0.159834,207.322,0.134479
280.9000,0.856336,206.832,0.127441
280.8000,-1.16178,206.633,0.12457
280.7000,0.703515,206.316,0.119997
280.6000,0.261972,208.116,0.14587
280.5000,-0.0447062,207.031,0.130293
280.4000,1.70312,206.814,0.12718
280.3000,1.43993,207.734,0.140398
280.2000,1.29984,206.962,0.129299
280.1000,0.924594,206.976,0.129511
280.0000,1.83021,206.929,0.128826
279.9000,0.0121386,206.911,0.128566
279.8000,1.80134,207.104,0.131352
279.7000,-0.0107078,207.57,0.138041
279.6000,0.261455,205.245,0.104522
279.5000,0.5258,208.165,0.146567
279.4000,1.65171,206.438,0.121762
279.3000,-0.81079,207.033,0.130326
279.2000,0.283669,206.89,0.128272
279.1000,1.1216,207.75,0.140625
279.0000,-0.0512563,207.775,0.140983
278.9000,-0.00661797,206.404,0.121272
278.8000,1.71406,208.244,0.147703
278.7000,0.122118,206.628,0.124504
278.6000,1.54497,205.55,0.108934
278.5000,0.175482,208.762,0.155106
278.4000,-0.932781,207.988,0.144036
278.3000,0.72693,207.323,0.134495
278.2000,0.955735,206.129,0.1173
278.1000,0.0364244,207.529,0.137456
278.0000,0.676398,206.589,0.123933
277.9000,0.523203,207.7,0.139911
277.8000,1.76198,207.402,0.135634
277.7000,0.422762,206.753,0.126299
277.6000,-0.308408,207.317,0.134413
277.5000,0.453707,206.773,0.126593
277.4000,0.743556,207.214,0.132932
277.3000,1.7533,208.172,0.146665
277.2000,0.225767,206.857,0.1278
277.1000,1.39446,207.644,0.139098
277.0000,-0.63883,207.638,0.139017
276.9000,1.71554,207.252,0.133469
276.8000,1.67971,206.881,0.128142
276.7000,1.25084,207.077,0.130962
276.6000,1.93483,208.009,0.144328
276.5000,0.576898,206.344,0.120406
276.4000,1.84591,205.81,0.112702
276.3000,1.71351,207.849,0.142039
276.2000,1.748,205.557,0.109032
276.1000,1.4985,207.684,0.139683
276.0000,0.496309,207.572,0.138074
275.9000,-0.0461812,206.962,0.129299
275.8000,-0.00474134,207.428,0.136008
275.7000,2.21217,207.521,0.137342
275.6000,0.369869,207.074,0.130913
275.5000,1.28492,207.927,0.143159
275.4000,0.878485,207.814,0.141535
275.3000,1.7827,208.214,0.147265
275.2000,0.326693,207.107,0.131385
275.1000,2.81173,207.644,0.139098
275.0000,0.550297,208.106,0.145724
274.9000,0.293096,207.402,0.135634
274.8000,1.10515,208.701,0.154232
274.7000,-0.610331,206.536,0.123166
274.6000,0.774604,206.458,0.122055
274.5000,-0.211767,206.495,0.122578
274.4000,1.06979,208.071,0.145221
274.3000,0.781459,207.433,0.136073
274.2000,2.19671,207.602,0.138496
274.1000,0.581052,207.757,0.140723
274.0000,0.631363,207.692,0.139797
273.9000,1.02009,207.373,0.135211
273.8000,1.19599,205.094,0.102339
273.7000,0.0265715,207.78,0.141048
273.6000,0.65978,207.355,0.134951
273.5000,1.19559,207.135,0.131792
273.4000,0.968827,207.775,0.140983
273.3000,0.144883,207.743,0.140528
273.2000,1.72353,207.476,0.136691
273.1000,1.45608,206.485,0.122431
273.0000,0.419644,207.145,0.131939
272.9000,0.265628,206.346,0.120438
272.8000,1.53206,208.104,0.145691
272.7000,0.291715,207.762,0.140788
272.6000,0.363031,207.143,0.131906
272.5000,0.142306,207.006,0.129935
272.4000,0.00512166,207.758,0.140739
272.3000,1.2057,207.095,0.131222
272.2000,1.77053,205.474,0.107836
272.1000,0.725103,206.55,0.123378
272.0000,0.552349,208.217,0.147313
271.9000,1.48831,209.129,0.160345
271.8000,0.701396,207.895,0.142705
271.7000,1.56185,207.473,0.136642
271.6000,0.118569,208.257,0.147881
271.5000,1.7396,207.051,0.130587
271.4000,-0.689687,206.598,0.124064
271.3000,0.407016,207.503,0.137082
271.2000,-0.535076,207.686,0.139699
271.1000,-0.546124,207.606,0.138561
271.0000,1.61067,208.071,0.145221
270.9000,0.28657,206.265,0.119262
270.8000,1.62995,208.427,0.150312
270.7000,0.984017,206.623,0.124423
270.6000,2.44339,207.888,0.142607
270.5000,1.07079,207.271,0.133746
270.4000,2.21284,207.789,0.141178
270.3000,-0.174029,208.129,0.146048
270.2000,0.984592,207.901,0.142786
270.1000,-0.736486,207.876,0.142429
270.0000,0.196319,207.529,0.137456
269.9000,0.369059,208.651,0.153519
269.8000,0.881732,207.851,0.142071
269.7000,1.26714,206.979,0.129544
269.6000,0.322298,208.256,0.147865
269.5000,1.38378,208.165,0.146567
269.4000,0.712293,206.009,0.115566
269.3000,0.0540705,208.51,0.151511
269.2000,0.330504,205.665,0.110605
269.1000,1.49696,208.101,0.145659
269.0000,1.63826,208.406,0.150021
268.9000,0.873949,207.809,0.14147
268.8000,0.186668,208.65,0.153503
268.7000,1.90001,207.984,0.143971
268.6000,1.89313,207.805,0.141405
268.5000,3.12529,208.142,0.146243
268.4000,3.25465,209.138,0.160474
268.3000,0.899729,207.663,0.139374
268.2000,1.37493,208.291,0.148367
268.1000,0.605125,208.283,0.148254
268.0000,2.04934,208.249,0.147767
267.9000,1.4394,207.925,0.143127
267.8000,0.538917,208.508,0.151479
267.7000,0.488425,207.803,0.141389
267.6000,0.622279,208.321,0.148805
267.5000,0.305484,208.501,0.151382
267.4000,0.098683,208.355,0.149291
267.3000,1.2443,208.458,0.150766
267.2000,0.522028,207.768,0.140886
267.1000,0.610006,209.509,0.165755
267.0000,-0.508904,208.735,0.154717
266.9000,1.12709,208.284,0.14827
266.8000,0.287386,209.089,0.15978
266.7000,0.299397,207.846,0.142006
266.6000,1.52144,208.473,0.150977
266.5000,0.182383,208.517,0.151609
266.4000,2.26858,208.718,0.154474
266.3000,0.943906,208.139,0.146194
266.2000,0.0365498,207.734,0.140398
266.1000,1.16519,209.187,0.161169
266.0000,-1.77342,208.056,0.14501
265.9000,1.00099,208.944,0.15771
265.8000,0.35983,208.444,0.150555
265.7000,1.60936,209.211,0.161508
265.6000,0.416907,209.629,0.167465
265.5000,1.52659,208.182,0.146811
265.4000,1.86064,209.076,0.159585
265.3000,1.73365,207.996,0.14415
265.2000,1.79716,209.278,0.162461
265.1000,0.405509,208.629,0.153212
265.0000,1.37298,208.527,0.151754
264.9000,-0.294879,209.273,0.162397
264.8000,2.08389,209.326,0.163156
264.7000,0.841884,209.568,0.166593
264.6000,0.248119,209.031,0.158939
264.5000,0.103826,209.875,0.170962
264.4000,1.60028,209.915,0.171543
264.3000,1.54904,209.189,0.161201
264.2000,0.681102,209.334,0.163269
264.1000,-0.820923,209.42,0.164496
264.0000,1.72369,208.875,0.156724
263.9000,0.159742,208.416,0.150167
263.8000,-0.847812,209.129,0.160345
263.7000,0.170927,209.706,0.168561
263.6000,-0.454409,207.703,0.139943
263.5000,1.32476,209.109,0.160054
263.4000,0.958597,209.718,0.168738
263.3000,0.680543,210.416,0.178656
263.2000,1.0572,209.896,0.171269
263.1000,0.129735,210.063,0.173636
263.0000,-0.157726,210.161,0.175037
262.9000,-0.368427,209.763,0.169367
262.8000,2.03709,210.385,0.178206
262.7000,-0.85091,207.942,0.14337
262.6000,-0.279275,209.682,0.168222
262.5000,1.01752,209.123,0.160264
262.4000,1.39534,209.546,0.166287
262.3000,1.41733,210.641,0.181838
262.2000,2.30269,208.07,0.145204
262.1000,1.79971,210.457,0.179235
262.0000,-0.256564,210.761,0.183541
261.9000,0.260285,208.593,0.152694
261.8000,0.0934706,210.739,0.183235
261.7000,-1.12663,209.234,0.161848
261.6000,-0.414305,210.532,0.180296
261.5000,2.60705,209.684,0.168255
261.4000,-1.25691,209.981,0.172477
261.3000,0.903019,210.155,0.17494
261.2000,0.409912,209.835,0.170398
261.1000,0.775678,209.807,0.169996
261.0000,-0.174336,209.896,0.171269
260.9000,-0.384092,210.271,0.176597
260.8000,-0.127038,209.676,0.168142
260.7000,0.282979,209.536,0.166142
260.6000,-0.126373,210.066,0.173684
260.5000,1.1932,210.971,0.186526
260.4000,-0.701117,210.535,0.180344
260.3000,0.495362,209.871,0.170914
260.2000,0.460695,210.581,0.180987
260.1000,0.776909,210.07,0.173733
260.0000,-0.645559,209.718,0.168738
259.9000,0.39137,211.194,0.189669
259.8000,0.913737,209.423,0.164528
259.7000,-0.621424,210.748,0.183364
259.6000,1.11045,209.867,0.17085
259.5000,2.20346,209.553,0.166384
259.4000,1.12417,210.178,0.175278
259.3000,-0.798934,211.75,0.197531
259.2000,1.0164,211.229,0.190166
259.1000,-0.516407,211.094,0.188258
259.0000,1.71455,210.385,0.178206
258.9000,0.4951,211.123,0.188675
258.8000,-0.667589,210.343,0.177611
258.7000,0.485249,210.693,0.182577
258.6000,2.17259,211.923,0.199977
258.5000,0.896094,210.983,0.186686
258.4000,0.452457,211.599,0.195403
258.3000,1.96198,212.714,0.211117
258.2000,1.04452,211.037,0.187456
258.1000,-0.526908,210.724,0.183027
258.0000,1.37716,210.083,0.173926
257.9000,2.40207,211.306,0.191256
257.8000,-0.480061,210.806,0.184183
257.7000,0.485159,209.675,0.168126
257.6000,-0.128234,210.902,0.185547
257.5000,0.278906,211.102,0.18837
257.4000,1.0241,211.897,0.19961
257.3000,0.023623,211,0.186927
257.2000,1.67972,211.609,0.195547
257.1000,-1.26616,212.239,0.204434
257.0000,1.47434,210.284,0.176775
256.9000,-1.96214,210.943,0.186125
256.8000,0.37689,211.701,0.196843
256.7000,2.31091,211.155,0.189124
256.6000,1.48302,211.008,0.187039
256.5000,0.211971,210.132,0.174618
256.4000,2.11508,210.999,0.186911
256.3000,0.393983,211.796,0.198187
256.2000,0.185622,211.748,0.197499
256.1000,1.66769,211.802,0.198267
256.0000,1.22018,211.316,0.1914
255.9000,0.328298,211.255,0.190534
255.8000,0.0285834,211.788,0.198075
255.7000,0.952347,210.93,0.185932
255.6000,2.80003,211.035,0.187424
255.5000,-0.548448,212.093,0.202374
255.4000,-0.234441,212.02,0.201336
255.3000,2.27411,211.736,0.197339
255.2000,2.00375,210.737,0.183203
255.1000,1.93326,211.498,0.193978
255.0000,-0.840857,211.693,0.196731
254.9000,-0.217033,212.092,0.202358
254.8000,-0.517735,211.903,0.199689
254.7000,-1.29334,211.88,0.19937
254.6000,1.26052,211.882,0.199402
254.5000,0.732872,211.236,0.190262
254.4000,1.12482,211.462,0.193466
254.3000,0.645599,211.782,0.197979
254.2000,-0.0219364,211.676,0.196491
254.1000,0.733623,212.231,0.204322
254.0000,-0.534354,212.293,0.205184
253.9000,0.484319,211.864,0.199146
253.8000,2.18313,210.311,0.17716
253.7000,1.66606,211.519,0.194267
253.6000,-0.00185452,212.352,0.206014
253.5000,0.901497,212.396,0.206636
253.4000,1.84168,211.946,0.200297
253.3000,1.81332,213.204,0.217994
253.2000,1.3361,212.715,0.211133
253.1000,0.723656,212.369,0.206254
253.0000,0.578772,212.362,0.206158
252.9000,-0.198031,212.136,0.202981
252.8000,0.149476,212.127,0.202853
252.7000,1.29806,212.907,0.213825
252.6000,1.08473,212.324,0.205631
252.5000,1.85207,212.604,0.209571
252.4000,-0.531878,212.719,0.211181
252.3000,0.718776,212.684,0.210687
252.2000,-0.641657,211.978,0.200745
252.1000,0.0107431,213.119,0.216801
252.0000,1.61076,212.91,0.213873
251.9000,0.480638,212.397,0.206653
251.8000,1.12864,213.327,0.219728
251.7000,1.54248,212.439,0.207243
251.6000,0.864955,212.859,0.213156
251.5000,-0.265626,212.867,0.213268
251.4000,-0.582647,213.094,0.216451
251.3000,1.33137,213.317,0.219585
251.2000,0.788014,212.837,0.212838
251.1000,1.67673,213.53,0.222572
251.0000,0.793176,213.097,0.216499
250.9000,-0.806354,213.663,0.22443
250.8000,-0.851968,212.987,0.214955
250.7000,0.381084,212.613,0.209699
250.6000,0.72581,213.989,0.229
250.5000,0.23053,213.783,0.226113
250.4000,1.22008,212.33,0.205711
250.3000,-0.908425,211.691,0.196699
250.2000,0.443539,214.431,0.235179
250.1000,1.48722,213.087,0.216356
250.0000,-1.01303,213.928,0.228144
249.9000,0.562822,213.677,0.224637
249.8000,0.837548,214.257,0.232756
249.7000,1.64029,213.392,0.220634
249.6000,-0.285452,213.813,0.226541
249.5000,0.189149,213.633,0.224018
249.4000,3.17917,214.089,0.230395
249.3000,-0.803431,213.277,0.219028
249.2000,1.33622,214.091,0.230427
249.1000,1.79174,214.532,0.236587
249.0000,1.11898,214.736,0.239435
248.9000,-0.2612,213.851,0.227065
248.8000,0.491977,213.169,0.217501
248.7000,0.0706125,214.096,0.230506
248.6000,0.363835,213.701,0.22497
248.5000,0.999947,214.364,0.234245
248.4000,0.380785,212.755,0.211691
248.3000,-1.0674,213.396,0.220697
248.2000,1.58929,213.667,0.224494
248.1000,3.92822,213.397,0.220713
248.0000,-1.08561,214.455,0.235511
247.9000,1.05482,214,0.229159
247.8000,1.71281,214.124,0.230886
247.7000,3.21544,214.215,0.23217
247.6000,1.20504,214.257,0.232756
247.5000,1.11467,215.515,0.250297
247.4000,1.25494,215.334,0.247774
247.3000,1.00926,215.038,0.243654
247.2000,-0.770693,213.224,0.218281
247.1000,1.38287,214.574,0.237173
247.0000,1.31425,214.093,0.230458
246.9000,0.512765,214.161,0.231409
246.8000,0.699259,212.736,0.21142
246.7000,-1.1931,214.533,0.236603
246.6000,-0.0165789,214.97,0.242706
246.5000,0.224727,213.64,0.224113
246.4000,2.91931,214.679,0.238644
246.3000,-0.451018,214.438,0.235274
246.2000,2.28473,214.125,0.230902
246.1000,-0.503437,214.499,0.236129
246.0000,-0.938327,214.491,0.236018
245.9000,0.896547,214.305,0.233421
245.8000,-0.150367,215.771,0.253858
245.7000,0.0335856,214.345,0.233975
245.6000,1.58029,214.828,0.240731
245.5000,0.98739,215.379,0.248405
245.4000,-0.259416,214.896,0.241679
245.3000,2.09835,214.508,0.236255
245.2000,1.41222,214.99,0.24299
245.1000,1.10103,215.848,0.254929
245.0000,0.570101,215.836,0.254755
244.9000,0.237745,214.978,0.242817
244.8000,-0.359308,216.05,0.25773
244.7000,1.02363,214.654,0.238296
244.6000,-0.487303,214.842,0.240921
244.5000,0.665774,213.367,0.220284
244.4000,-0.356602,215.628,0.251873
244.3000,-0.123548,215.061,0.24397
244.2000,0.986802,215.853,0.254992
244.1000,1.14081,217.559,0.278625
244.0000,0.703912,215.872,0.255259
243.9000,-0.48696,214.994,0.243038
243.8000,0.736712,216.067,0.257966
243.7000,1.86665,215.305,0.247379
243.6000,1.36797,214.533,0.236603
243.5000,0.0313745,217.6,0.279188
243.4000,-0.06307,216.146,0.259067
243.3000,0.00388176,216.957,0.27031
243.2000,1.7758,216.042,0.25762
243.1000,0.0607317,216.23,0.26023
243.0000,-0.808332,215.613,0.251652
242.9000,-0.0747255,216.207,0.259916
242.8000,0.449105,216.784,0.26791
242.7000,1.87334,217.407,0.276528
242.6000,1.86018,215.934,0.256125
242.5000,-0.303758,215.157,0.245312
242.4000,0.700894,216.398,0.262557
242.3000,2.40106,215.969,0.256613
242.2000,0.755,217.347,0.275699
242.1000,-1.46749,215.891,0.255527
242.0000,1.92767,215.708,0.252976
241.9000,1.10362,216.712,0.266906
241.8000,-0.122335,216.75,0.267439
241.7000,0.300501,216.031,0.257462
241.6000,-0.0916643,217.509,0.277937
241.5000,0.288572,216.811,0.268287
241.4000,-0.65068,216.843,0.268726
241.3000,-0.27915,215.901,0.255668
241.2000,1.58495,216.673,0.266372
241.1000,-0.319592,217.637,0.279704
241.0000,1.47996,217.249,0.274337
240.9000,2.37766,218.621,0.293252
240.8000,1.08717,217.599,0.279173
240.7000,-0.352511,217.144,0.272896
240.6000,1.3489,217.702,0.280596
240.5000,0.192112,217.857,0.282737
240.4000,1.30718,218.074,0.28572
240.3000,1.09898,217.445,0.277045
240.2000,0.84465,217.099,0.272269
240.1000,0.301453,218.12,0.28636
240.0000,2.34847,218.036,0.285205
239.9000,1.22343,217.745,0.28119
239.8000,1.76928,218.532,0.292037
239.7000,1.202,217.756,0.281346
239.6000,2.45138,218.255,0.288217
239.5000,1.26447,220.273,0.315897
239.4000,2.76445,219.169,0.300785
239.3000,2.86483,218.659,0.293782
239.2000,1.07246,217.666,0.280095
239.1000,0.565159,219.625,0.30703
239.0000,-0.319208,219.032,0.298904
238.9000,0.903046,219.168,0.30077
238.8000,-0.136885,219.655,0.307449
238.7000,-1.0893,217.71,0.280705
238.6000,0.791503,219.344,0.303179
238.5000,-0.302068,219.209,0.301329
238.4000,0.574363,218.573,0.292598
238.3000,0.605582,219.347,0.303225
238.2000,2.5461,219.885,0.310598
238.1000,0.505606,220.482,0.318761
238.0000,1.75017,219.639,0.307232
237.9000,0.628812,220.264,0.315773
237.8000,1.18216,219.416,0.304173
237.7000,2.60002,220.188,0.314736
237.6000,-1.31778,220.085,0.313326
237.5000,1.12556,220.379,0.317352
237.4000,0.667803,220.205,0.314968
237.3000,1.18876,220.521,0.319287
237.2000,-0.0412,220.683,0.321498
237.1000,0.860714,220.2,0.314906
237.0000,0.183918,220.669,0.321312
236.9000,0.839916,220.615,0.32057
236.8000,-0.355507,220.453,0.318358
236.7000,0.2803,220.559,0.319812
236.6000,-0.223887,221.246,0.329173
236.5000,1.15795,221.481,0.332365
236.4000,-0.945424,221.361,0.330731
236.3000,0.00209917,220.664,0.321235
236.2000,0.519818,221.763,0.336201
236.1000,0.135497,220.93,0.324867
236.0000,0.905279,220.973,0.325453
235.9000,0.183066,221.546,0.333259
235.8000,1.57149,220.902,0.32448
235.7000,1.03068,221.142,0.327754
235.6000,1.09466,221.756,0.336109
235.5000,1.05672,222.022,0.339726
235.4000,1.63296,222.546,0.346825
235.3000,0.657973,221.672,0.334969
235.2000,1.34359,221.213,0.328726
235.1000,0.247732,221.676,0.335015
235.0000,0.577812,222.865,0.351152
234.9000,1.05342,222.447,0.34549
234.8000,2.18739,222.21,0.342278
234.7000,-1.12154,223.295,0.356959
234.6000,0.787042,222.702,0.348944
234.5000,0.83113,223.232,0.356117
234.4000,-0.904059,223.666,0.361978
234.3000,3.12784,224.279,0.37024
234.2000,1.86309,223.509,0.359852
234.1000,0.580933,221.713,0.335524
234.0000,0.145592,223.545,0.360341
233.9000,-0.090145,222.96,0.35244
233.8000,-0.737432,223.865,0.364652
233.7000,0.71722,223.849,0.364439
233.6000,-0.207134,224.22,0.369447
233.5000,0.345117,225.156,0.382028
233.4000,0.771786,224.125,0.368165
233.3000,1.50644,226.439,0.399201
233.2000,-0.233723,224.752,0.376596
233.1000,1.60782,223.604,0.361137
233.0000,-0.164216,225.969,0.392914
232.9000,1.35114,224.241,0.369721
232.8000,0.694222,225.259,0.383412
232.7000,1.99483,225.843,0.391231
232.6000,1.61441,227.151,0.408693
232.5000,1.69828,225.938,0.392505
232.4000,0.414616,225.676,0.389001
232.3000,0.856958,225.838,0.391171
232.2000,3.74402,226.465,0.399549
232.1000,-0.900755,226.543,0.400593
232.0000,1.15364,227.816,0.417543
231.9000,-0.723055,226.587,0.401183
231.8000,-1.66784,227.416,0.412224
231.7000,1.7223,226.653,0.40206
231.6000,-0.262693,227.042,0.407244
231.5000,-0.015252,227.461,0.412827
231.4000,0.900518,228.224,0.422961
231.3000,1.56325,227.726,0.416353
231.2000,1.59432,228.107,0.421412
231.1000,0.31579,228.635,0.428415
231.0000,-1.48378,227.861,0.418146
230.9000,0.676274,228.405,0.425366
230.8000,2.36579,229.557,0.440617
230.7000,-0.161518,229.745,0.4431
230.6000,0.823073,229.32,0.437488
230.5000,-0.010098,229.178,0.4356
230.4000,3.32104,229.871,0.44476
230.3000,1.87041,229.497,0.439824
230.2000,0.908675,230.068,0.44736
230.1000,1.02549,231.47,0.465791
230.0000,1.2606,230.418,0.451973
229.9000,1.09208,231.228,0.462624
229.8000,2.75618,230.61,0.454493
229.7000,1.83869,231.218,0.46249
229.6000,-1.32138,231.912,0.471583
229.5000,-0.00985652,231.625,0.467827
229.4000,0.7121,232.116,0.474253
229.3000,-0.100539,231.807,0.470217
229.2000,1.40366,231.414,0.465062
229.1000,1.36416,233.932,0.497946
229.0000,1.46687,233.901,0.497548
228.9000,2.76016,233.607,0.493715
228.8000,-0.961507,234.465,0.504865
228.7000,0.789363,234.314,0.502908
228.6000,-0.112578,234.749,0.508554
228.5000,0.0147149,235.395,0.516918
228.4000,-0.471528,236.189,0.527179
228.3000,1.34957,235.536,0.51875
228.2000,2.69407,236.713,0.533926
228.1000,-1.71557,236.318,0.528845
228.0000,0.684696,236.774,0.534713
227.9000,1.72137,237.925,0.549504
227.8000,-0.117412,238.921,0.562253
227.7000,2.84744,239.49,0.569514
227.6000,0.402814,238.88,0.561731
227.5000,2.44113,238.682,0.559197
227.4000,0.596625,239.784,0.573269
227.3000,2.39853,240.531,0.58277
227.2000,-0.817258,241.439,0.594285
227.1000,0.230007,241.636,0.596782
227.0000,0.704757,244.03,0.626967
226.9000,2.60536,241.815,0.599047
226.8000,0.0425303,242.164,0.60346
226.7000,-0.668655,243.662,0.62234
226.6000,-0.396961,244.02,0.626839
226.5000,-0.391943,244.372,0.631261
226.4000,3.59432,244.542,0.633392
226.3000,-0.279368,246.264,0.654918
226.2000,2.20229,246.688,0.660195
226.1000,1.99821,247.558,0.671008
226.0000,0.0418682,247.112,0.665465
225.9000,0.574357,248.9,0.687617
225.8000,0.875883,248.44,0.68193
225.7000,1.74872,249.642,0.696774
225.6000,0.499329,249.956,0.700639
225.5000,-2.05235,250.261,0.704389
225.4000,2.80278,252.932,0.7371
225.3000,-1.99865,252.733,0.734669
225.2000,-1.35428,254.374,0.754627
225.1000,2.38771,254.166,0.752111
225.0000,2.07766,254.822,0.760067
224.9000,2.60359,256.747,0.783316
224.8000,2.16944,256.219,0.776954
224.7000,0.375732,256.681,0.782511
224.6000,2.55436,257.728,0.795097
224.5000,0.882628,260.032,0.822654
224.4000,1.56451,260.421,0.827281
224.3000,-0.131584,261.709,0.842578
224.2000,2.00628,261.76,0.843182
224.1000,1.71548,264.313,0.873305
224.0000,1.15435,264.213,0.872133
223.9000,0.485619,265.078,0.882283
223.8000,4.64515,265.153,0.88316
223.7000,3.38576,267.418,0.909616
223.6000,-0.00324228,267.577,0.911475
223.5000,0.565298,269.156,0.929792
223.4000,-1.15904,270.547,0.945866
223.3000,-0.374375,272.472,0.967992
223.2000,-3.38037,273.1,0.975179
223.1000,0.478086,273.892,0.984227
223.0000,0.214821,274.943,0.996206
222.9000,0.315164,277.25,1.02235
222.8000,0.676792,278.979,1.04183
222.7000,3.55818,280.787,1.06209
222.6000,3.09653,281.361,1.0685
222.5000,2.58004,282.988,1.08662
222.4000,1.03236,284.233,1.10042
222.3000,1.33376,285.024,1.10916
222.2000,-0.1735,286.642,1.12698
222.1000,3.80408,287.95,1.14132
222.0000,4.20997,288.956,1.15231
221.9000,2.4461,290.585,1.17005
221.8000,-0.465971,292.936,1.19551
221.7000,-3.23819,293.887,1.20575
221.6000,3.92748,296.148,1.23
221.5000,-5.14726,296.238,1.23097
221.4000,1.14693,299.184,1.26233
221.3000,-1.29765,301.178,1.28341
221.2000,-2.52539,303.483,1.30763
221.1000,6.57285,305.256,1.32617
221.0000,3.33965,305.623,1.32999
220.9000,-0.629517,308.636,1.36124
220.8000,-0.358878,310.453,1.37996
220.7000,4.87177,312.818,1.40421
220.6000,-0.391984,315.76,1.43414
220.5000,-0.660526,318.203,1.45882
220.4000,-7.65031,320.925,1.48614
220.3000,-1.98611,322.461,1.50146
220.2000,7.27633,323.425,1.51105
220.1000,11.5146,327.245,1.54881
220.0000,0.18641,329.741,1.57329
219.9000,0.784275,331.108,1.58664
219.8000,2.62641,334.095,1.61562
219.7000,3.26564,336.384,1.63769
219.6000,8.13116,338.962,1.66239
219.5000,2.29828,341.222,1.68393
219.4000,-3.60192,344.226,1.71236
219.3000,1.70227,346.983,1.73827
219.2000,10.9671,350.476,1.77085
219.1000,6.38871,352.051,1.78545
219.0000,7.66916,354.544,1.80845
218.9000,-3.31192,357.136,1.83223
218.8000,8.89507,360.292,1.86098
218.7000,6.0611,363.617,1.89105
218.6000,0.0169025,366.601,1.91783
218.5000,-7.36575,369.918,1.94739
218.4000,-0.42986,373.325,1.97752
218.3000,3.40194,376.114,2.00201
218.2000,-0.200022,379.438,2.03101
218.1000,-4.91096,384.922,2.07839
218.0000,8.18656,386.572,2.09253
217.9000,1.75946,391.744,2.13653
217.8000,-3.36207,394.622,2.16081
217.7000,3.45962,400.826,2.21263
217.6000,2.34488,402.394,2.22563
217.5000,-2.23144,408.256,2.27382
217.4000,6.69327,412.404,2.30757
217.3000,-2.28357,417.384,2.34772
217.2000,-3.76041,422.393,2.3877
217.1000,4.21542,425.052,2.40876
217.0000,-1.57167,430.286,2.44989
216.9000,-12.9092,435.654,2.49165
216.8000,-16.3873,440.759,2.53095
216.7000,-0.667072,444.826,2.56199
216.6000,-14.7392,450.483,2.60476
216.5000,-6.83434,455.682,2.64368
216.4000,20.1856,458.222,2.66255
216.3000,7.79845,461.101,2.68384
216.2000,-3.88654,466.912,2.72648
216.1000,-1.93836,471.664,2.76101
216.0000,10.2413,476.607,2.79661
215.9000,3.96869,480.025,2.82105
215.8000,12.5001,487.043,2.87078
215.7000,9.62231,490.384,2.89423
215.6000,6.77983,495.631,2.9308
215.5000,15.7573,499.386,2.95677
215.4000,-4.64762,506.336,3.00441
215.3000,17.2682,511.298,3.03808
215.2000,3.39484,515.318,3.06515
215.1000,11.1639,523.121,3.11721
215.0000,-0.818554,526.241,3.13783
214.9000,-12.4108,531.566,3.1728
214.8000,-0.757077,536.316,3.20375
214.7000,-13.535,542.95,3.24658
214.6000,2.43152,548.161,3.27991
214.5000,5.722,553.483,3.31367
214.4000,7.22617,558.372,3.34445
214.3000,-0.306114,563.031,3.37357
214.2000,-12.1173,571.256,3.42447
214.1000,7.23007,576.364,3.45578
214.0000,-0.341474,581.298,3.48579
213.9000,-4.18185,588.146,3.52709
213.8000,4.39148,593.453,3.55881
213.7000,0.109231,599.117,3.59241
213.6000,-3.91727,603.063,3.61565
213.5000,4.36636,608.447,3.64716
213.4000,17.9371,615.547,3.68835
213.3000,2.61352,621.612,3.72322
213.2000,-7.33005,627.512,3.75686
213.1000,0.73597,632.379,3.7844
213.0000,3.74756,639.002,3.82161
212.9000,2.1959,644.08,3.8499
212.8000,11.9543,650.018,3.88276
212.7000,-13.3622,656.341,3.91746
212.6000,-0.464379,661.462,3.94536
212.5000,-6.43672,669.986,3.99139
212.4000,-8.17889,674.327,4.01464
212.3000,-1.76745,682.175,4.05634
212.2000,-2.34947,687.884,4.08643
212.1000,-2.60691,694.647,4.1218
212.0000,3.65435,702.155,4.16072
211.9000,-1.95024,707.304,4.1872
211.8000,1.14925,714.75,4.22522
211.7000,1.68135,721.439,4.25907
211.6000,5.64158,726.774,4.28589
211.5000,12.4169,731.779,4.31089
211.4000,-1.71734,737.015,4.33689
211.3000,-1.55504,744.904,4.37577
211.2000,0.95638,747.93,4.39059
211.1000,-9.21903,754.799,4.42404
211.0000,-18.0834,759.23,4.44548
210.9000,-3.82789,765.373,4.47503
210.8000,-0.0898608,769.352,4.49405
210.7000,1.68984,774.499,4.51855
210.6000,2.47922,779.336,4.54144
210.5000,-0.0749183,785.364,4.56979
210.4000,-8.49542,789.959,4.59128
210.3000,8.04144,794.997,4.61473
210.2000,-2.46179,798.861,4.63262
210.1000,-0.738532,804.195,4.65719
210.0000,-2.12636,806.76,4.66896
209.9000,-12.6414,813.267,4.69867
209.8000,-6.86107,818.399,4.72196
209.7000,2.49509,822.955,4.74253
209.6000,-16.3149,827.264,4.7619
209.5000,12.4024,832.146,4.78374
209.4000,-6.42642,834.804,4.79558
209.3000,-3.90535,839.46,4.81625
209.2000,12.3492,843.69,4.83494
209.1000,-6.83824,848.251,4.855
209.0000,0.461011,850.101,4.86312
208.9000,3.27483,851.71,4.87016
208.8000,-0.151288,854.765,4.8835
208.7000,-0.788787,857.326,4.89466
208.6000,-12.5462,860.29,4.90753
208.5000,9.9073,860.919,4.91026
208.4000,-7.12041,864.058,4.92384
208.3000,-2.96864,865.529,4.93019
208.2000,-12.1701,868.725,4.94395
208.1000,7.0409,870.942,4.95348
208.0000,-7.79613,871.352,4.95523
207.9000,-0.908585,874.176,4.96733
207.8000,6.05807,876.523,4.97735
207.7000,12.7559,877.148,4.98002
207.6000,3.94305,878.423,4.98546
207.5000,-0.962248,879.031,4.98805
207.4000,17.4571,879.524,4.99014
207.3000,2.68863,881.335,4.99784
207.2000,0.759986,881.557,4.99878
207.1000,10.1848,880.938,4.99616
207.0000,-2.93056,882.133,5.00123
206.9000,13.0561,881.584,4.9989
206.8000,5.07452,881.56,4.9988
206.7000,3.49028,880.576,4.99462
206.6000,-2.25917,880.436,4.99402
206.5000,4.34187,881.248,4.99747
206.4000,-9.91406,879.182,4.98869
206.3000,-5.08431,879.314,4.98925
206.2000,5.34501,877.572,4.98183
206.1000,4.81495,876.612,4.97774
206.0000,14.2845,875.925,4.9748
205.9000,3.23645,874.195,4.96741
205.8000,6.74909,872.493,4.96012
205.7000,1.04198,871.934,4.95773
205.6000,-5.21419,869.193,4.94596
205.5000,-4.01498,869.136,4.94572
205.4000,-8.87572,866.187,4.93302
205.3000,3.88458,865.488,4.93001
205.2000,4.87528,862.694,4.91794
205.1000,-6.98949,859.27,4.9031
205.0000,0.053232,858.348,4.8991
204.9000,-4.73412,856.498,4.89105
204.8000,-17.9047,854.273,4.88136
204.7000,8.83643,851.575,4.86957
204.6000,-3.53231,850.621,4.8654
204.5000,3.56477,847.381,4.85119
204.4000,6.1762,845.673,4.84368
204.3000,22.9729,843.483,4.83403
204.2000,-2.29624,841.573,4.8256
204.1000,-3.9421,839.015,4.81428
204.0000,-9.93955,837.915,4.8094
203.9000,1.77807,834.819,4.79565
203.8000,-2.17347,830.768,4.77759
203.7000,4.81113,828.619,4.76797
203.6000,10.3217,826.724,4.75948
203.5000,-17.2273,824.596,4.74992
203.4000,5.75777,822.264,4.73942
203.3000,-1.03634,820.734,4.73252
203.2000,-15.1582,818.893,4.7242
203.1000,-2.37618,816.785,4.71465
203.0000,-3.81016,814.391,4.70378
202.9000,-1.18355,813.656,4.70044
202.8000,-6.30158,810.423,4.68571
202.7000,0.646147,809.302,4.68059
202.6000,-13.7388,809.744,4.68261
202.5000,-4.54337,806.02,4.66557
202.4000,1.19759,804.098,4.65675
202.3000,3.00041,802.259,4.64829
202.2000,-2.45029,801.449,4.64456
202.1000,2.95828,798.521,4.63104
202.0000,6.54728,797.959,4.62845
201.9000,1.65973,798.028,4.62877
201.8000,-5.58681,794.132,4.61071
201.7000,-8.34402,795.881,4.61882
201.6000,5.18685,794.132,4.61071
201.5000,0.886127,792.732,4.6042
201.4000,11.6657,793.53,4.60791
201.3000,-1.04499,790.814,4.59527
201.2000,4.48889,791.151,4.59684
201.1000,14.2311,792.883,4.6049
201.0000,-1.5626,791.978,4.60069
200.9000,-2.66162,792.551,4.60336
200.8000,-3.16898,793.225,4.6065
200.7000,1.78975,794.68,4.61325
200.6000,-5.14356,794.891,4.61423
200.5000,-1.88777,795.591,4.61748
200.4000,-7.17717,798.019,4.62872
200.3000,5.66353,799.895,4.63739
200.2000,14.1545,800.552,4.64042
200.1000,4.57913,803.036,4.65186
200.0000,-2.70337,804.435,4.65829
199.9000,3.57037,806.558,4.66804
199.8000,9.26273,809.249,4.68035
199.7000,-1.84724,812.843,4.69674
199.6000,-13.6438,815.691,4.70969
199.5000,-3.99496,817.857,4.71951
199.4000,0.829767,819.077,4.72503
199.3000,2.03993,824.486,4.74942
199.2000,2.74257,827.674,4.76374
199.1000,-0.843061,831.645,4.7815
199.0000,-13.6274,835.664,4.79941
198.9000,-1.2362,840.143,4.81928
198.8000,0.879359,848.576,4.85643
198.7000,14.5287,854.847,4.88386
198.6000,-8.65933,860.982,4.91053
198.5000,8.47901,865.972,4.9321
198.4000,10.3696,875.236,4.97186
198.3000,2.21387,882.052,5.00089
198.2000,-7.9063,887.248,5.02289
198.1000,0.75814,896.892,5.06342
198.0000,8.08028,902.216,5.08564
197.9000,9.11506,913.709,5.13322
197.8000,-6.55751,921.843,5.16659
197.7000,1.38745,929.963,5.19964
197.6000,-4.42647,938.716,5.235
197.5000,-2.18584,948.089,5.27255
197.4000,-1.36949,958.861,5.31531
197.3000,-6.60775,972.623,5.36934
197.2000,-4.5678,982.349,5.40713
197.1000,-1.18056,992.347,5.44565
197.0000,3.37492,1004.98,5.49383
196.9000,6.27588,1017.01,5.53923
196.8000,12.6545,1032.31,5.59632
196.7000,-11.0488,1044.66,5.64186
196.6000,1.12871,1056.66,5.6857
196.5000,-3.82062,1068.75,5.72941
196.4000,-12.515,1073.43,5.7462
196.3000,-10.291,1074.28,5.74926
196.2000,-4.21539,1075.39,5.75322
196.1000,-7.72148,1077.61,5.76118
196.0000,-13.033,1077.87,5.76208
195.9000,7.65741,1075.6,5.75399
195.8000,4.72155,1076.71,5.75795
195.7000,0.391137,1075.85,5.75489
195.6000,-0.0427497,1076.6,5.75755
195.5000,-13.1629,1075.84,5.75482
195.4000,-12.4907,1077.32,5.76012
195.3000,3.08797,1077.22,5.75977
195.2000,-2.05577,1076.7,5.75793
195.1000,14.0826,1076.2,5.75613
195.0000,5.32859,1076.27,5.75637
194.9000,-1.52836,1076.84,5.75841
194.8000,-5.05961,1075.66,5.75419
194.7000,-10.4325,1076.32,5.75654
194.6000,-6.39531,1077.13,5.75945
194.5000,1.87832,1075.69,5.75429
194.4000,5.84591,1075.24,5.75269
194.3000,8.89449,1077.99,5.76252
194.2000,6.48299,1077.39,5.76039
194.1000,16.0388,1076.74,5.75805
194.0000,8.01644,1076.18,5.75607
193.9000,15.9587,1076.44,5.75697
193.8000,2.25064,1076.6,5.75754
193.7000,0.964387,1076.89,5.75858
193.6000,-8.12759,1076.65,5.75772
193.5000,3.36748,1077.01,5.75902
193.4000,-1.88673,1076.39,5.75682
193.3000,-16.2313,1078.01,5.7626
193.2000,-4.21464,1076.48,5.75713
193.1000,18.3769,1076.33,5.75658
193.0000,5.80501,1076.03,5.75551
192.9000,-13.7388,1076.68,5.75783
192.8000,20.7343,1077.12,5.7594
192.7000,-10.5866,1076.7,5.75791
192.6000,-3.34768,1077.5,5.76076
192.5000,24.8745,1077.23,5.75982
192.4000,-3.04979,1076.83,5.75838
192.3000,0.244724,1077.19,5.75967
192.2000,-8.47955,1077.47,5.76068
192.1000,1.53332,1077.09,5.75931
192.0000,9.95709,1078.05,5.76272
191.9000,4.98649,1076.28,5.75643
191.8000,3.28229,1077.04,5.75914
191.7000,1.74257,1077.59,5.7611
191.6000,2.50842,1076.92,5.75869
191.5000,9.05276,1077.28,5.75999
191.4000,-2.46375,1076.6,5.75755
191.3000,-8.52026,1077.8,5.76184
191.2000,6.59701,1076.74,5.75804
191.1000,12.4727,1077.1,5.75933
191.0000,-5.40993,1076.74,5.75806
190.9000,16.627,1077.91,5.76225
190.8000,1.19005,1077.12,5.75941
190.7000,-4.12619,1076.65,5.75775
190.6000,4.07421,1076.9,5.75861
190.5000,-4.12958,1077.09,5.75932
190.4000,-8.50946,1078.26,5.7635
190.3000,-13.7026,1077.44,5.76055
190.2000,-1.63962,1078.49,5.7643
190.1000,0.783261,1077.78,5.76177
190.0000,-1.16454,1077.1,5.75935

##### Extended Information
[Comments]
Sample name,TB TH  KD_ Buffer and Additive 
Comment,Buffer and additive
User,Tara_ Kimani _ Tyler 
Division
Company,Saint Mary's College

[Detailed Information]
Creation date,9/29/2022 3:01 PM

Data array type,Linear data array * 3
Horizontal axis,Wavelength [nm]
Vertical axis(1),CD [mdeg]
Vertical axis(2),HT [V]
Vertical axis(3),Abs
Start,320 nm
End,190 nm
Data interval,0.1 nm
Data points,1301    

[Measurement Information]
Instrument name,J-1500
Model name,J-1500
Serial No.,B051061638

Detector,PM-539
Detector S/N,B051061638
  Lock-in amp.,X mode
  HT volt,Auto

Accessory,PTC-517
Accessory S/N,B026561646
  Temperature,22.25 C
  Control sensor,Holder
  Monitor sensor,Holder

Measurement date,9/29/2022 3:01 PM

CD Overload detect,963
Photometric mode,CD, HT, Abs
Measure range,320 - 190 nm
Data pitch,0.1 nm
CD scale,20 mdeg/0.05 dOD
FL scale,20 mdeg/0.05 dOD
D.I.T.,8 msec
Bandwidth,2.00 nm
Start mode,Immediately
Scanning mode,Continuous
Scanning speed,200 nm/min
Baseline correction,None
Shutter control,Auto
No. of cycle,1/1
N2 Flowmeter,Manual

Solvent,NaPO4 buffer

