TITLE,TB_TH_KD_Buffer and Protein,,
DATA TYPE,,,
ORIGIN,JASCO,,
OWNER,,,
DATE,22/09/29,,
TIME,16:46:33,,
SPECTROMETER/DATA SYSTEM,,,
LOCALE,1033,,
RESOLUTION,,,
DELTAX,-0.1,,
XUNITS,NANOMETERS,,
YUNITS,CD [mdeg],,
Y2UNITS,HT [V],,
Y3UNITS,ABSORBANCE,,
FIRSTX,320,,
LASTX,190,,
NPOINTS,1301,,
FIRSTY,1.52488,,
MAXY,54.35196,,
MINY,-54.54156,,
XYDATA,,,
320,0.819783833,139.3720668,153.3972836
319.9,0.663799567,139.2745627,153.2794541
319.8,0.418298667,139.4804763,153.232925
319.7,1.251410333,139.127905,153.3597718
319.6,0.983249,138.9764347,153.1865612
319.5,0.510667267,139.2204533,153.0770402
319.4,0.905298333,138.6190467,152.9747817
319.3,0.761928,139.4723283,153.1780854
319.2,0.145255,139.5413277,152.9621942
319.1,0.570324067,139.49552,153.0552814
319,0.650112167,139.1875007,152.9458709
318.9,0.169252,139.8705813,152.9799444
318.8,0.859442,139.4738813,153.0444411
318.7,1.134188,139.2581283,153.0307721
318.6,0.743697667,139.6731102,153.0056026
318.5,0.400207667,139.69528,152.8651626
318.4,0.494727,139.3921503,152.7622924
318.3,0.002683786,139.3971563,152.5666134
318.2,0.111527,138.8234367,152.3783212
318.1,-0.999402667,139.742948,152.2811818
318,0.472018333,138.8944067,152.455475
317.9,0.818642,140.29044,153.0030273
317.8,0.261074833,139.287755,152.4496099
317.7,0.959310667,139.4267282,152.6953463
317.6,1.2691223,139.375142,152.7480881
317.5,0.872718233,138.94997,152.4408961
317.4,0.506814,139.180455,152.362423
317.3,-0.1844511,138.61833,151.911293
317.2,0.810752667,139.6864245,152.5657257
317.1,0.800223667,139.4479863,152.4494033
317,0.478595,139.643147,152.373914
316.9,0.035942333,139.5461067,152.160683
316.8,0.379889667,139.459432,152.2131072
316.7,1.385689667,139.5186923,152.534794
316.6,1.051019333,139.528517,152.3931788
316.5,1.0667785,139.6988243,152.4218676
316.4,0.347861,139.3188433,152.0222348
316.3,0.9436358,139.7119753,152.318537
316.2,1.306774667,139.0599297,152.1889014
316.1,0.521460333,139.016799,151.8794198
316,-0.1353075,139.4567217,151.7738047
315.9,0.035551667,139.6184,151.8513172
315.8,0.364248433,139.3094573,151.8245686
315.7,0.451518033,138.9131233,151.6882138
315.6,-0.242765133,139.1679417,151.5083922
315.5,0.811427967,139.395454,151.902294
315.4,-0.085867667,139.2755023,151.5298782
315.3,0.102825633,139.559634,151.6541532
315.2,0.388403667,139.2435321,151.6106453
315.1,0.785878933,139.741411,151.8757633
315,0.478235,139.03637,151.5048683
314.9,0.061170867,138.8605797,151.2739168
314.8,0.441462667,138.9239917,151.3884848
314.7,1.507472667,139.0694433,151.758972
314.6,0.721069,138.5538407,151.2916366
314.5,0.836819967,139.3253893,151.5540698
314.4,0.630206333,138.6598433,151.2300166
314.3,0.787990667,139.1257367,151.4045758
314.2,1.198668,139.5396353,151.6461011
314.1,0.042103333,138.91283,151.0183111
314,1.938464,139.2200313,151.7194984
313.9,0.262971033,138.6928093,150.9519268
313.8,0.1372319,140.1100467,151.3490929
313.7,0.359103,139.9677167,151.3422732
313.6,0.096356,138.5042307,150.7335289
313.5,0.410201667,139.2138477,151.0413498
313.4,1.393399667,139.0260043,151.2731347
313.3,0.960216,138.8760233,151.0454131
313.2,-0.283564667,139.176359,150.6975981
313.1,0.7378643,138.8019115,150.8799253
313,0.873203,138.4607167,150.7779732
312.9,0.274249033,138.9324583,150.7022358
312.8,0.959940667,138.8174203,150.8591203
312.7,0.230127033,139.1198133,150.6833135
312.6,0.562811667,138.9265687,150.6964601
312.5,1.247102,139.61958,151.1222273
312.4,0.711800633,138.7549703,150.622257
312.3,0.738344333,138.4869367,150.508427
312.2,0.6214803,138.8506743,150.5573849
312.1,0.636856,138.9326823,150.5565128
312,0.325673667,139.17338,150.4996846
311.9,1.188734333,138.5469933,150.5452426
311.8,0.772930333,139.2909513,150.6212939
311.7,0.458331933,138.757011,150.3051143
311.6,0.791587333,139.0319877,150.474525
311.5,0.777961,139.0108667,150.4296092
311.4,0.888466,139.3923387,150.5602682
311.3,0.755374,138.8634267,150.3062669
311.2,-0.165467,138.998803,150.011112
311.1,0.245252333,138.8783897,150.0745473
311,0.737991633,139.133517,150.2905029
310.9,0.19557,138.66052,149.9186967
310.8,0.698838333,139.5305623,150.3431336
310.7,0.094682,138.2529967,149.6825596
310.6,0.068749733,139.204734,149.9578279
310.5,0.430189333,139.0764917,150.002227
310.4,-0.0830696,138.7750947,149.6973417
310.3,0.126977667,139.599856,150.0089446
310.2,0.723412,138.9147773,149.9460631
310.1,1.084832633,139.0887353,150.0911893
310,0.438331333,139.4021017,149.946811
309.9,0.987562,138.7606677,149.8827432
309.8,1.066032133,139.334265,150.0667657
309.7,0.122264667,138.9053357,149.5758668
309.6,0.138189,138.781989,149.506726
309.5,0.741913333,139.206111,149.8160081
309.4,0.1620496,139.1054213,149.5558236
309.3,0.791762733,139.6495133,149.9137587
309.2,0.5062903,138.7029155,149.4697353
309.1,0.720081,139.2972067,149.7057626
309,1.135596033,139.0275233,149.7210398
308.9,0.648814333,139.1694483,149.5727542
308.8,0.0627865,138.985684,149.2828235
308.7,1.204694333,139.4623277,149.7890073
308.6,0.7615606,139.2768967,149.5461524
308.5,0.215629333,138.906124,149.2072511
308.4,0.692881667,139.149869,149.4142502
308.3,0.099793,138.9070757,149.1022896
308.2,2.152728,138.874185,149.7423043
308.1,1.450460667,138.5987367,149.3830658
308,0.42064,138.910112,149.1102507
307.9,0.17087405,138.7741973,148.9483571
307.8,0.251212333,139.1539407,149.0683843
307.7,1.156706767,139.00309,149.2865989
307.6,1.3806489,139.167412,149.382687
307.5,0.680820333,139.4991243,149.2266482
307.4,0.270734967,139.2167043,148.9624798
307.3,0.91245,139.0476167,149.0866889
307.2,0.554462733,138.9996747,148.9180458
307.1,0.788926,138.6778017,148.8555759
307,0.880775333,139.5491227,149.1432993
306.9,1.42341523,138.4958487,148.9397546
306.8,0.22221654,139.056366,148.6928608
306.7,1.565555,138.8077903,149.0244484
306.6,-0.258390667,138.406494,148.2493678
306.5,-0.104842333,138.9033463,148.4328347
306.4,0.55261,138.9078757,148.6201619
306.3,0.483992593,139.4716303,148.7518743
306.2,0.663421,138.8071567,148.5568592
306.1,-0.437756333,139.6579493,148.4400643
306,-0.244201567,138.8934527,148.216417
305.9,-0.190159267,138.9990938,148.2363115
305.8,0.744400333,139.3729727,148.6391243
305.7,-0.039357333,139.6835867,148.4480764
305.6,1.18743,138.8848207,148.5574169
305.5,0.714406667,139.4882493,148.567552
305.4,0.225794,139.3248153,148.3168698
305.3,0.812265333,139.1998457,148.4373703
305.2,-0.284303667,138.8106787,147.9087917
305.1,0.810866233,139.0516067,148.3208243
305,1.069012667,139.3447375,148.4712501
304.9,0.406361533,138.6281,147.9781538
304.8,0.780023,138.5122,148.030741
304.7,-0.226280667,139.0796873,147.8511356
304.6,-0.143593,139.3342317,147.9302129
304.5,0.795606967,138.9067537,148.0674535
304.4,0.164004633,138.8857083,147.816571
304.3,-0.238788,138.7852687,147.6154936
304.2,0.594267,138.5319183,147.7753951
304.1,0.807834367,139.2330707,148.0469683
304,1.031969667,138.921525,147.9844982
303.9,0.542965,138.8003003,147.7477551
303.8,0.159997,138.647411,147.5358027
303.7,-0.156406137,138.66509,147.4028946
303.6,0.335933667,138.783102,147.5730119
303.5,0.651243667,138.8250153,147.658753
303.4,0.093397,138.893999,147.4624653
303.3,0.980590667,139.0569977,147.7791961
303.2,0.908704667,138.4389467,147.5158838
303.1,0.641462867,139.244252,147.661905
303,-0.182002667,138.9504083,147.2561352
302.9,0.340014,138.9144603,147.3848248
302.8,0.899583667,138.7770077,147.4921971
302.7,1.332965333,139.3064333,147.7797996
302.6,0.043177,138.87877,147.1739823
302.5,0.251689633,139.0377587,147.2631494
302.4,0.800373333,138.7812427,147.3272053
302.3,0.668867533,139.0029447,147.3239374
302.2,-0.142623333,139.0354377,147.0309381
302.1,0.6665016,138.8824449,147.2163155
302,0.467653833,138.3240023,146.9305521
301.9,0.893037,138.9327773,147.2419381
301.8,0.926817533,138.8725173,147.1997783
301.7,0.892446333,138.57225,147.0548988
301.6,0.850864467,138.8189717,147.0899454
301.5,1.415352333,139.2234117,147.379588
301.4,0.510695067,138.8172657,146.9093202
301.3,0.655512,139.051003,147.0021717
301.2,0.763595,138.4995433,146.8210461
301.1,0.5034765,138.0148833,146.5394533
301,-0.114848,138.7348383,146.5399968
300.9,0.262989,138.8446737,146.6692209
300.8,0.3015274,139.2717867,146.7911047
300.7,0.085659233,138.7346703,146.5067765
300.6,0.329756667,138.346564,146.4254402
300.5,0.298978667,138.5672233,146.4554007
300.4,0.893393333,139.070159,146.7878508
300.3,0.555913,139.2570767,146.7043299
300.2,0.407889333,138.6808893,146.4295929
300.1,1.020003,138.5565033,146.5588354
300,-0.742516767,138.726726,145.9947364
299.9,1.197103,138.8449133,146.6473388
299.8,0.629451333,139.273015,146.5674888
299.7,-0.133749133,138.7144927,146.0935812
299.6,0.342543667,139.0105848,146.3177095
299.5,0.785832333,138.8705313,146.3854546
299.4,0.39573,138.1032067,145.9663122
299.3,0.755518633,138.818799,146.2914392
299.2,0.8078141,138.8387777,146.2821973
299.1,0.494179833,138.50108,146.0317533
299,0.010287333,138.927614,145.9793004
298.9,0.498262,138.604762,146.001008
298.8,1.435356667,138.5366353,146.2573307
298.7,0.153953333,138.473032,145.7756618
298.6,0.602168,139.207103,146.1364237
298.5,0.689194667,138.6626463,145.9506137
298.4,0.409825833,138.982624,145.9308166
298.3,0.652264,138.638528,145.8635973
298.2,0.548502167,138.4055867,145.7180296
298.1,0.096394667,138.7915287,145.6626411
298,-0.032628,138.3846633,145.4506784
297.9,0.526631667,138.438135,145.6215889
297.8,-0.307427333,138.7220832,145.4048853
297.7,1.0911489,138.6860297,145.8257262
297.6,1.0148495,137.84986,145.4882365
297.5,0.130920333,138.3141233,145.3150146
297.4,0.317087667,139.065011,145.5940329
297.3,0.850743367,138.7387217,145.6298217
297.2,0.271923973,138.795649,145.4225243
297.1,0.684118,138.929362,145.57116
297,0.679645667,138.559003,145.4128829
296.9,0.82331,138.4631863,145.3954988
296.8,0.002088333,138.0736987,144.9585957
296.7,0.398743467,138.8866773,145.3284736
296.6,0.685585,138.663865,145.3164833
296.5,0.482530567,138.786957,145.2564959
296.4,0.004531367,138.2519903,144.8855072
296.3,0.227350333,138.102038,144.8764628
296.2,1.2731589,138.933224,145.4687943
296.1,0.376497667,138.4154679,144.9639885
296,0.059106,138.6936913,144.9175991
295.9,0.242844667,138.7169463,144.9532637
295.8,0.113632667,138.2973983,144.7370103
295.7,0.191046,138.241884,144.7109767
295.6,0.175710667,138.4545618,144.7434241
295.5,0.1738039,138.4091593,144.6943211
295.4,0.294953267,138.0707267,144.58856
295.3,0.800855667,137.63491,144.5785886
295.2,0.1532416,138.8127943,144.722012
295.1,0.590177567,138.17827,144.6228159
295,0.325214267,138.5299141,144.6183761
294.9,0.081665333,138.822244,144.6013031
294.8,0.791716833,138.530783,144.7074999
294.7,0.308361233,138.391344,144.4665684
294.6,0.177544,139.0627613,144.6134351
294.5,-0.005015333,137.8395733,144.1115193
294.4,0.536677,138.1349067,144.3571946
294.3,0.070941667,138.345146,144.2386959
294.2,0.742365,138.1882467,144.3768706
294.1,0.364267667,138.24118,144.2351492
294,0.660837267,138.6519743,144.4376039
293.9,0.616814667,138.296082,144.2709656
293.8,0.621336333,138.4255913,144.2823092
293.7,0.689719533,138.8534563,144.414392
293.6,0.1309189,138.7875803,144.1728331
293.5,1.470200333,138.8395203,144.6032402
293.4,0.491539667,139.002938,144.2981592
293.3,0.118741333,138.2160243,143.8782552
293.2,0.428313,138.73736,144.121891
293.1,0.8591483,138.5540933,144.1710805
293,0.852965667,138.556003,144.1363229
292.9,0.950582333,138.4041123,144.0848982
292.8,0.133681033,138.459434,143.797705
292.7,0.828539333,138.5280787,144.0188727
292.6,-0.049688667,138.4688187,143.6730433
292.5,0.744428667,138.4476516,143.8973601
292.4,0.698810667,137.9832557,143.6940221
292.3,0.669958,137.9817367,143.6505649
292.2,-0.537745733,138.2505051,143.3042531
292.1,0.086036,138.0855533,143.4238631
292,0.141273667,138.1801837,143.4404858
291.9,0.134769633,138.4049411,143.4799036
291.8,0.395306,138.2817673,143.4923578
291.7,1.065118,138.519455,143.7615243
291.6,0.590715,137.66282,143.2845117
291.5,0.332469333,138.2836507,143.37204
291.4,0.519044567,138.003803,143.3076159
291.3,1.167839,137.6117867,143.3598752
291.2,0.048194433,138.7920693,143.3467546
291.1,0.1925811,138.2110253,143.1678688
291,-0.4804312,138.2110421,142.9102036
290.9,-0.1997878,138.8109263,143.1703795
290.8,-0.13202506,138.394266,143.020747
290.7,-0.059993767,138.5351777,143.0583946
290.6,0.530346333,138.2385538,143.1229667
290.5,0.792438667,137.7772067,143.0232151
290.4,1.072297,138.1366857,143.2029942
290.3,0.066669733,138.4428287,142.9364995
290.2,0.155892,138.6690273,143.0083064
290.1,0.736722333,138.4078957,143.0815393
290,0.986481767,138.380136,143.1222059
289.9,0.2695169,138.2301567,142.7998912
289.8,0.040767933,138.2493317,142.6966999
289.7,0.643881,138.6690537,143.0043116
289.6,0.602363333,138.9138373,143.0387336
289.5,0.3914908,139.48458,143.1253569
289.4,0.11852822,138.2975627,142.6053636
289.3,1.224661,138.616251,143.0469707
289.2,-0.216490067,138.7560483,142.5798528
289.1,-0.355027,138.920544,142.5551723
289,0.171507667,138.3365707,142.5026928
288.9,0.829536333,138.7623116,142.830616
288.8,0.03115,138.5029367,142.4446956
288.7,0.14511,138.28396,142.3763567
288.6,0.688138333,138.6113453,142.6331612
288.5,0.917287033,138.5941707,142.6704859
288.4,0.403294333,138.8457303,142.5496749
288.3,0.361726,138.51199,142.3912387
288.2,0.9195992,138.8790213,142.6662068
288.1,0.500854033,138.706131,142.4356617
288,0.825074167,138.5515023,142.4588588
287.9,-0.160244867,138.355922,142.0318924
287.8,0.462676,138.6407267,142.3011342
287.7,0.859723333,139.0971283,142.5522839
287.6,0.266891167,138.728044,142.1983117
287.5,0.445403,138.8204007,142.2552679
287.4,0.944795,138.5930807,142.3126252
287.3,0.593514667,139.30763,142.4003816
287.2,1.054373667,138.664321,142.3062316
287.1,0.985336333,138.3097897,142.1317087
287,0.455324667,138.0993133,141.851546
286.9,0.124394467,138.5398052,141.8547332
286.8,0.087367333,138.3491113,141.7454929
286.7,0.770809667,138.7469756,142.0725951
286.6,0.542219,138.947726,142.0299817
286.5,-0.043649667,138.9019147,141.7860883
286.4,0.338166,138.9351403,141.8911021
286.3,0.561564,138.9150474,141.9255371
286.2,0.545916667,139.19572,141.9805456
286.1,-0.313457,138.63599,141.4741777
286,-0.041419667,138.6103687,141.522983
285.9,0.577327177,138.8993167,141.7922146
285.8,0.123121263,138.7808133,141.5679782
285.7,0.4221038,138.6582833,141.5934624
285.6,0.155945467,138.6595267,141.471824
285.5,0.437648,138.9181243,141.6185908
285.4,-0.2719437,138.4944633,141.2075065
285.3,0.363494,138.761903,141.4751323
285.2,0.591604,138.8238424,141.5384821
285.1,-0.446830667,138.5718113,141.0749936
285,0.701702333,138.457491,141.3863978
284.9,-0.569683667,138.1062533,140.8121899
284.8,-0.357308367,138.8906433,141.1111117
284.7,0.895471933,137.9305533,141.1753418
284.6,0.108231343,139.3094639,141.3392318
284.5,0.911227267,138.6125883,141.3412719
284.4,-0.074901,138.21452,140.8465397
284.3,0.216117733,138.542403,141.0195069
284.2,0.313646367,138.7424737,141.0853733
284.1,-0.391658667,139.140216,140.9495191
284,0.190035,139.1380963,141.1093771
283.9,0.039313667,138.3064,140.7485712
283.8,0.242699133,138.475845,140.8395147
283.7,0.503116333,138.6566557,140.9532573
283.6,0.606373333,139.1145583,141.1069772
283.5,0.353886667,138.385259,140.7463819
283.4,0.836054333,138.512264,140.9161061
283.3,1.043101667,138.9994807,141.1141941
283.2,0.676373667,138.558289,140.8115542
283.1,0.719096667,138.9951547,140.9380838
283,-0.249221333,138.505985,140.4189212
282.9,0.612219,138.8452077,140.7858089
282.8,-1.046338633,138.662062,140.1385745
282.7,0.345891387,138.9749713,140.6736209
282.6,0.464142667,139.3100357,140.7913928
282.5,-0.277955667,138.639854,140.2872994
282.4,1.147573667,138.7597137,140.7690958
282.3,0.554180667,139.0742403,140.642807
282.2,1.086425233,138.6905623,140.6589959
282.1,0.3358311,138.800695,140.4121754
282,0.570803667,138.600699,140.3905009
281.9,0.086774333,139.40715,140.4646414
281.8,0.103102333,139.3611057,140.4214027
281.7,0.255560167,139.4477849,140.4677817
281.6,1.196646,139.2466763,140.6811074
281.5,0.050698667,138.57789,140.0428629
281.4,0.069583667,138.27839,139.9159912
281.3,0.028914,139.1892853,140.1727331
281.2,0.522893,139.195304,140.3060657
281.1,0.657783667,139.3814706,140.3797514
281,1.007405667,138.5279767,140.1784608
280.9,0.021313233,138.6905587,139.870624
280.8,0.493194,138.2648877,139.8526939
280.7,0.536588333,138.928196,140.0549281
280.6,0.5676369,138.39761,139.8550823
280.5,-1.444666567,138.7327367,139.26269
280.4,0.624906667,138.2331373,139.7526813
280.3,0.305688333,138.5424367,139.7160417
280.2,0.088043333,138.2307667,139.50627
280.1,-0.060251,139.7577697,139.9325062
280,-0.155964533,139.3309637,139.7249997
279.9,0.232704667,138.332675,139.4884599
279.8,0.287687,138.5218027,139.5364966
279.7,0.01595,138.6985203,139.4714901
279.6,0.206907,138.621565,139.4761573
279.5,-0.292725333,138.5178297,139.2417014
279.4,0.334070333,138.946711,139.5602604
279.3,0.435648567,138.4514033,139.395684
279.2,-0.404432667,138.700783,139.1654501
279.1,0.4136751,138.8091403,139.4409385
279,1.315772333,138.8379917,139.7179213
278.9,0.16430536,138.8863794,139.3168949
278.8,0.516733667,138.9897377,139.4354904
278.7,0.126573,138.8846447,139.2370726
278.6,0.131316,138.996038,139.2424513
278.5,0.019421033,138.8919917,139.1371376
278.4,-0.383719,138.9786873,138.9983228
278.3,-0.018530467,138.1227,138.8013898
278.2,0.646781433,138.9460623,139.2642813
278.1,0.050525267,139.3203873,139.1569709
278,0.793161367,139.2356703,139.3429439
277.9,0.321574,139.028587,139.083387
277.8,0.988869333,138.6979433,139.1622709
277.7,0.404031333,139.0810845,139.0617053
277.6,-0.6020858,139.505232,138.8343821
277.5,-0.628745467,139.3408787,138.7373777
277.4,0.178569,138.8022737,138.7936142
277.3,0.406076333,139.1799903,138.9620222
277.2,0.455995,139.2013593,138.9524514
277.1,0.738349233,139.131992,138.9901137
277,-0.1312811,138.985812,138.618177
276.9,0.372543667,138.9952353,138.7559263
276.8,0.276670067,139.1345353,138.7370685
276.7,-0.718266667,138.7200167,138.2339167
276.6,0.576010333,138.2835,138.4865034
276.5,0.2537079,138.4954667,138.4163915
276.4,0.935119667,138.810742,138.7152872
276.3,0.340306333,138.575391,138.4052324
276.2,0.521343,139.3876547,138.7029992
276.1,0.0970522,138.8926133,138.3632218
276,0.1011728,139.61725,138.5728076
275.9,0.735673,139.3118067,138.6491599
275.8,0.080356333,138.27915,138.0531688
275.7,0.393349667,138.734291,138.2758802
275.6,0.2509,138.9957417,138.2822139
275.5,-0.13855,139.1845037,138.1819846
275.4,0.017204333,138.5941943,138.0037996
275.3,0.747430167,138.81302,138.2868167
275.2,0.515273,138.9789023,138.2313918
275.1,0.855737,138.8741,138.2766123
275,0.397442333,138.7195993,138.0390139
274.9,0.357326333,138.9087177,138.055348
274.8,0.020348,138.9107283,137.9103588
274.7,0.198447167,138.6344977,137.8443149
274.6,-0.226123333,139.0164087,137.7967618
274.5,1.039413,139.350236,138.2965497
274.4,0.0085822,139.1461677,137.8515833
274.3,0.247586,138.8580967,137.8018942
274.2,0.0107592,138.8632567,137.6913386
274.1,-0.423282067,138.4141567,137.3636249
274,0.067811667,138.9506787,137.6728301
273.9,0.737420333,138.9868613,137.8747606
273.8,0.862647,139.1805821,137.947743
273.7,0.133849333,138.804212,137.5460204
273.6,-0.356743,139.3209733,137.5214101
273.5,0.734019033,138.951098,137.7283723
273.4,-0.3199097,139.2734427,137.4511777
273.3,0.974567333,138.795642,137.6900698
273.2,0.0744353,138.904734,137.3930564
273.1,-0.582219667,138.4360633,136.9846146
273,-0.1942594,138.944056,137.2499322
272.9,0.441732667,138.6585067,137.3334131
272.8,-0.026032033,139.091475,137.288481
272.7,0.998231,139.6938447,137.7973586
272.6,-0.2640745,139.0858437,137.1405897
272.5,0.622361667,139.8322967,137.6515528
272.4,0.3369729,138.6373773,137.1247834
272.3,-0.452367467,139.4964343,137.114689
272.2,0.550838333,139.0237967,137.2582117
272.1,0.263936033,138.8654413,137.0764591
272,-0.257981,138.9010673,136.8810288
271.9,-0.207319,139.0186767,136.9037859
271.8,0.4187579,138.7700133,136.9962571
271.7,0.569467333,139.0569387,137.108802
271.6,0.167196,138.7478257,136.8383406
271.5,-0.001043137,138.8574633,136.7854734
271.4,-0.105637667,139.245452,136.8466048
271.3,0.339366267,138.7624947,136.8006203
271.2,-0.005558,139.3300207,136.8414876
271.1,-0.449873333,139.8410767,136.8304011
271,0.755793667,138.6989873,136.8182603
270.9,-0.19892366,138.6675657,136.456214
270.8,0.244247,139.0339597,136.6927356
270.7,-0.027750733,138.4504777,136.3742423
270.6,0.537352667,139.6592373,136.9321967
270.5,0.745727,139.347398,136.864375
270.4,-0.251129033,139.436821,136.528564
270.3,-0.267779667,139.4862377,136.5061527
270.2,-0.279975333,139.2110885,136.3770377
270.1,-0.6086347,139.2585243,136.2499632
270,-0.022685333,138.8110163,136.262777
269.9,0.26276,139.2653023,136.4760208
269.8,-0.345259333,139.1637203,136.2061537
269.7,-0.365799333,139.210418,136.1815396
269.6,0.1115879,139.577224,136.429604
269.5,0.4211042,139.241321,136.3874751
269.4,0.189202333,139.246768,136.2786568
269.3,0.540941,139.743984,136.5283083
269.2,0.226131,139.6484523,136.3581944
269.1,0.432786733,139.720397,136.4177279
269,0.105086,138.824827,135.9766377
268.9,-0.026114667,139.6649345,136.1796066
268.8,0.011509333,139.1579957,135.989835
268.7,0.443644,139.5343443,136.2259961
268.6,0.225943,139.2139943,136.0133124
268.5,0.33913302,139.7234453,136.1875261
268.4,0.030523333,139.4129703,135.9478312
268.3,-0.239563,139.4878403,135.8494258
268.2,-0.411934333,139.5800487,135.7893715
268.1,0.395988533,139.6618433,136.0526106
268,-0.262454967,139.467476,135.735007
267.9,0.181225667,139.6434347,135.9082201
267.8,0.22803363,140.0430097,136.0236811
267.7,-0.14919663,139.5855157,135.7121064
267.6,-0.119827667,139.6982395,135.7261373
267.5,-0.523118,139.7949407,135.5906076
267.4,-0.734376,139.3682767,135.3446336
267.3,-0.745803333,139.5742187,135.3761384
267.2,-0.002902333,139.2693943,135.4888307
267.1,0.265745667,140.0970793,135.8209417
267,0.283854733,139.556298,135.6133842
266.9,0.113607667,140.0889863,135.7008647
266.8,0.719457667,139.5573033,135.6922537
266.7,-0.565646,139.9896433,135.3746658
266.6,0.078848333,139.7773303,135.4853929
266.5,0.424419467,139.3310433,135.4184876
266.4,-0.1223253,140.111985,135.4632199
266.3,-0.567125667,139.794092,135.1756554
266.2,0.056630667,139.817297,135.3579759
266.1,0.0881045,139.5939057,135.2606701
266,-0.421365,139.569178,135.049271
265.9,0.452527333,140.1312117,135.4945797
265.8,0.164236333,140.1482732,135.3708365
265.7,0.599537333,140.2142368,135.5045914
265.6,0.803795333,139.3991467,135.2676473
265.5,0.425772667,139.6976887,135.2078204
265.4,0.026704333,139.6069253,135.0112099
265.3,0.2406918,139.6953777,135.0786898
265.2,0.840551367,140.1191243,135.3865586
265.1,-0.214629667,140.2925873,135.0593192
265,0.720427233,139.89437,135.2049324
264.9,-0.049578667,140.243942,135.0314544
264.8,0.41954,139.8822213,135.0339204
264.7,0.639932333,139.6635037,135.0011453
264.6,-0.1630553,139.1519643,134.5296363
264.5,0.1722153,140.1713962,134.9478705
264.4,0.022262333,140.8707923,135.0976849
264.3,-0.286708867,139.9856533,134.6663148
264.2,-0.412009333,139.902981,134.5636572
264.1,-0.764407667,140.9362583,134.7572836
264,-0.715060467,140.1701677,134.4850357
263.9,-0.007339733,139.88405,134.5922368
263.8,0.163571,140.070239,134.6779367
263.7,0.339426733,139.745951,134.5951259
263.6,-0.432046333,140.271313,134.4797556
263.5,0.435031,140.2354033,134.7234781
263.4,-0.234715183,139.792491,134.3192586
263.3,-1.158188433,140.1550247,134.0989454
263.2,0.627319667,139.9031129,134.5768109
263.1,0.280802667,140.4521757,134.6109928
263,-0.398065667,139.758386,134.1201068
262.9,0.756399,140.1624083,134.6062691
262.8,-0.108785767,139.500144,134.0637861
262.7,0.83366,140.373185,134.635615
262.6,0.217824567,140.5171083,134.4449776
262.5,-0.089822667,140.087775,134.1659841
262.4,0.185400433,140.5140037,134.366468
262.3,-0.162898333,140.9089253,134.3486757
262.2,0.392646,140.1942147,134.2622869
262.1,0.236452467,139.8724633,134.0696386
262,-0.111377433,140.6066737,134.1650987
261.9,-0.33599591,140.0902467,133.8847503
261.8,0.20045324,140.0833967,134.02795
261.7,-0.255989667,139.9521387,133.7987163
261.6,0.334018333,140.3154577,134.0831587
261.5,-0.632573,140.5601974,133.8092081
261.4,-0.220249667,140.29344,133.8243968
261.3,-0.168580333,140.1205383,133.7506527
261.2,0.053508667,140.0196057,133.7577048
261.1,-0.282437667,140.5056433,133.7744019
261,-0.1907834,140.17993,133.6630489
260.9,-0.072731333,141.2411797,134.0228161
260.8,0.337886333,140.7197647,133.9525503
260.7,0.018916333,139.960518,133.5598114
260.6,-0.55216,140.6350514,133.5609638
260.5,0.406084567,140.9542023,133.953429
260.4,0.100506167,140.6808623,133.7271228
260.3,-0.2748735,140.7650947,133.5967404
260.2,-0.4509871,141.2807923,133.6766017
260.1,0.522412667,140.6063233,133.742912
260,-0.863933633,140.9618787,133.3659817
259.9,-0.824393,140.7247957,133.2668009
259.8,0.417088667,141.082889,133.7666592
259.7,0.327527333,141.0710066,133.6995113
259.6,0.421562443,140.7449407,133.5888344
259.5,0.099832167,140.7815223,133.4604515
259.4,0.070751433,140.9956153,133.4887889
259.3,0.266542333,140.7069983,133.4245136
259.2,0.465346333,141.0256247,133.563657
259.1,0.154022667,140.53465,133.2628909
259,0.531650333,140.3447773,133.2921426
258.9,0.620552,140.687771,133.4027743
258.8,0.561266,140.8285627,133.3966096
258.7,0.173266033,141.6879067,133.5203909
258.6,-0.340306333,140.9984515,133.0860484
258.5,0.79488,140.9273687,133.4074162
258.4,0.450480667,140.8211533,133.223878
258.3,0.247887333,141.2360293,133.2613056
258.2,-0.092050333,140.73578,132.9479099
258.1,-0.682134667,141.3871443,132.9350032
258,0.103343167,141.3165417,133.1399616
257.9,0.626079867,141.7902067,133.4387622
257.8,0.504413667,140.8504293,133.0516143
257.7,0.854068953,141.3075463,133.2872051
257.6,0.312181333,141.136734,133.0163051
257.5,-0.075260333,141.189329,132.8713562
257.4,-0.199891333,141.4746303,132.8915797
257.3,0.488465,141.0735627,132.9540092
257.2,0.40379,141.7844853,133.1294251
257.1,0.409635067,142.1792893,133.2296415
257,-0.419490233,141.4752133,132.685241
256.9,0.095535667,141.8553857,132.9503071
256.8,-0.341663667,141.0454633,132.5012666
256.7,0.024412333,141.2107093,132.6450406
256.6,0.228368133,141.7579155,132.8620945
256.5,-0.099492667,141.7147255,132.7050776
256.4,0.186469667,141.2948203,132.6270967
256.3,0.647429667,141.4001784,132.782536
256.2,-0.359861333,141.664193,132.5014439
256.1,0.431745433,141.323788,132.6185111
256,-0.1432746,140.820371,132.2256988
255.9,-0.018760867,141.32985,132.4036964
255.8,0.478549167,141.5805657,132.6197049
255.7,-0.067765467,142.2539743,132.6287363
255.6,1.040668433,142.2446667,132.9617784
255.5,0.190572333,141.5444497,132.411674
255.4,0.6150087,141.8992037,132.6380708
255.3,0.148914667,142.0118933,132.486936
255.2,-0.290405667,141.2538367,132.054477
255.1,-0.0963363,141.61531,132.2063246
255,0.188094667,141.8211527,132.3364158
254.9,0.128382,142.181492,132.4032913
254.8,-0.2744974,141.569828,132.0317769
254.7,0.2423666,141.9641737,132.3021801
254.6,-0.015558167,142.016348,132.2002633
254.5,0.071160533,142.2498757,132.2736787
254.4,-0.458248,142.134225,132.0253257
254.3,-0.1832205,142.244882,132.1205538
254.2,-0.111358,141.926507,132.0050497
254.1,0.076931667,141.5840167,131.9203161
254,0.627004667,142.4080642,132.3450229
253.9,0.047294,142.0178737,131.9883892
253.8,0.504416333,142.1644843,132.1563002
253.7,-0.25482999,141.5311333,131.6587678
253.6,-1.083625333,141.40764,131.3080049
253.5,-0.493188667,142.9598247,131.9888787
253.4,0.350425333,141.6706003,131.8070086
253.3,0.301889667,142.2522323,131.951374
253.2,0.569590667,142.3592517,132.0429474
253.1,0.410736933,141.9315321,131.8140897
253,0.5166003,142.3198707,131.9454903
252.9,0.168853,142.46028,131.8430443
252.8,0.141786667,141.9193303,131.6203723
252.7,0.484057,141.95898,131.7143457
252.6,0.128616333,141.7374113,131.4886759
252.5,0.646861667,141.2244033,131.4570883
252.4,0.039877967,141.8603383,131.4334054
252.3,-0.290430667,142.3117097,131.4404263
252.2,-0.6345645,142.8178983,131.4611113
252.1,-0.211061333,142.4354055,131.441448
252,-0.0875745,142.4312633,131.4478963
251.9,-0.568503,142.4531863,131.2615611
251.8,0.026666333,142.5686487,131.465105
251.7,0.746220667,142.6099155,131.6853787
251.6,0.426490333,142.397738,131.4747428
251.5,-0.715877533,142.3233803,131.0358343
251.4,-0.565472667,142.442652,131.0923931
251.3,0.0259391,142.424147,131.2500287
251.2,-0.375704767,142.480613,131.1016361
251.1,-0.067545667,142.4519253,131.1614599
251,-0.157165667,142.652841,131.1652251
250.9,0.5182196,142.5545853,131.3242683
250.8,-0.403741,142.1713323,130.8558638
250.7,-0.110127,142.9969213,131.1955981
250.6,0.65917,142.451565,131.2369117
250.5,0.1901272,142.7700487,131.153392
250.4,0.594554333,142.723594,131.2393828
250.3,0.0088558,142.934387,131.0810809
250.2,-0.048586,142.538135,130.8965163
250.1,-0.293585,143.3002267,131.0355472
250,-0.161821467,142.685803,130.8413272
249.9,-0.003692,142.8972417,130.9311832
249.8,-0.111875,142.9192837,130.8691362
249.7,0.819447667,142.99739,131.1722792
249.6,-0.275498,142.4628167,130.5957729
249.5,0.449424867,143.3367473,131.0953907
249.4,-0.671959,142.7464192,130.4914867
249.3,-0.6086401,142.766679,130.486013
249.2,-0.07150167,142.974676,130.7010581
249.1,-0.537347,143.319027,130.6272267
249,0.164072767,142.838063,130.6673786
248.9,-0.243518833,143.1037283,130.5867365
248.8,-0.0461202,143.1479123,130.6339307
248.7,0.346306333,142.8032857,130.6165307
248.6,0.036120667,143.469926,130.7020156
248.5,0.203192333,142.9681067,130.5570997
248.4,0.276751333,142.8117297,130.4961603
248.3,-0.709154333,143.2559767,130.2822741
248.2,-0.706164667,143.0094613,130.1677656
248.1,-0.763808,143.7560177,130.3640699
248,-0.479502433,143.2185697,130.2463557
247.9,-0.425780667,143.18338,130.2191998
247.8,-0.278098333,143.4171467,130.3130161
247.7,-0.492136333,143.2724893,130.1601177
247.6,-0.191922,143.5374977,130.3151919
247.5,-0.527908,143.290096,130.087396
247.4,-0.413567667,143.749756,130.2453961
247.3,0.7686897,143.74185,130.6035132
247.2,-0.4167187,143.5509566,130.1114126
247.1,-0.2650798,143.2122403,130.0157202
247,-0.314900133,143.1886343,129.9579114
246.9,-0.4047793,143.130784,129.8753349
246.8,-0.452864,144.0972718,130.1481359
246.7,-0.653204,143.5419753,129.8629238
246.6,-0.194032333,143.369869,129.9252789
246.5,-1.39525642,143.62829,129.5776779
246.4,-0.353649,144.0569017,130.0344176
246.3,-0.097853333,143.9625525,130.0548997
246.2,-0.297716167,143.5842443,129.8288427
246.1,-0.29499,143.9041957,129.9030686
246,-0.047879733,143.69023,129.8807834
245.9,-0.906287167,144.0383833,129.6773654
245.8,-0.800462667,143.7904933,129.5966769
245.7,-0.072819067,143.49182,129.7063336
245.6,-0.411643247,144.0540708,129.7474759
245.5,0.033663333,143.7953533,129.7763389
245.4,-1.495918333,144.2284833,129.3775217
245.3,-0.673544,144.195934,129.6074633
245.2,-0.299615333,143.811306,129.5705636
245.1,-0.46152,144.3633643,129.6672814
245,-0.4527287,144.1710787,129.5727833
244.9,-0.4036387,144.3258263,129.6073959
244.8,-0.422882,144.3465583,129.5745588
244.7,-0.70445337,144.162208,129.3859182
244.6,-1.308396333,144.0069933,129.0995323
244.5,-1.115672533,144.2671589,129.2171621
244.4,-0.939663667,144.5528527,129.3377297
244.3,-1.197758433,144.0765493,129.059597
244.2,-1.085002,144.485181,129.2000597
244.1,-1.8920701,144.5637177,128.9238825
244,-0.029159333,144.442171,129.4710039
243.9,-1.426215667,144.671444,129.0484094
243.8,-1.489021,145.032186,129.1143883
243.7,-1.006236933,144.35105,129.0149377
243.6,-1.641506367,144.9354165,128.9646367
243.5,-1.074328,144.5952103,129.0069608
243.4,-1.327255,144.6198681,128.8975377
243.3,-2.087820333,144.7582157,128.6567984
243.2,-2.131904,144.5804817,128.5495259
243.1,-1.688598,145.2465627,128.8859882
243,-1.9088,144.7830807,128.6247602
242.9,-1.453157333,144.8216697,128.7561708
242.8,-1.808979667,145.183216,128.7247454
242.7,-2.364139333,144.9763223,128.4373943
242.6,-1.946017,144.8175083,128.4904971
242.5,-2.215806667,144.9448083,128.4096672
242.4,-2.246863,145.1979143,128.4503504
242.3,-2.591870733,145.384996,128.3643751
242.2,-2.594011,145.4748103,128.3602664
242.1,-2.210049667,145.6848012,128.5249172
242,-3.145821667,145.7179917,128.1907233
241.9,-3.212056667,145.6687573,128.1189002
241.8,-2.220930767,145.878877,128.4859821
241.7,-2.346675233,145.4602303,128.271185
241.6,-2.451332333,145.762371,128.3036796
241.5,-3.143661667,145.9009773,128.0857719
241.4,-2.79088277,145.387185,127.9987674
241.3,-2.708438667,145.959854,128.1838051
241.2,-3.249516433,145.680693,127.8770589
241.1,-2.921860333,145.2165533,127.798231
241,-2.753232,146.2609553,128.1692411
240.9,-2.610031333,145.9662483,128.0854057
240.8,-3.7384341,145.3521567,127.4712409
240.7,-3.156457333,145.73206,127.7585342
240.6,-3.226639233,146.341345,127.9049019
240.5,-3.845109667,146.6252137,127.7600347
240.4,-3.04375,146.289228,127.881826
240.3,-3.827500133,146.7369823,127.7364941
240.2,-3.132634667,146.5308026,127.866056
240.1,-3.987289667,146.4963893,127.5363666
240,-4.751301,146.8107567,127.3531519
239.9,-3.800640433,146.7806153,127.6266583
239.8,-4.836079733,147.0087663,127.3242289
239.7,-4.073629733,147.3267017,127.651024
239.6,-3.82262379,147.0390514,127.6054759
239.5,-4.424130333,147.0952705,127.3903801
239.4,-4.572993,147.118005,127.315004
239.3,-4.548895667,146.9519063,127.2343369
239.2,-4.260950867,147.7243633,127.5544708
239.1,-4.763103,147.264142,127.2003463
239,-4.710021,147.4251733,127.2383841
238.9,-4.137359,147.8355333,127.5327248
238.8,-5.865654667,147.64678,126.8603751
238.7,-4.185436,147.3604017,127.2916552
238.6,-5.059848667,147.51409,127.0180804
238.5,-5.160034667,147.6238256,126.9879303
238.4,-5.477582333,147.9047273,126.9423817
238.3,-6.16337274,148.4465747,126.8610673
238.2,-6.028543667,148.2664253,126.8126272
238.1,-6.191245333,148.1364793,126.6817447
238,-5.304094367,148.598208,127.0980379
237.9,-6.212605667,148.5602833,126.7492259
237.8,-6.092430333,148.7479963,126.818522
237.7,-7.024715,148.4926223,126.3893024
237.6,-5.520950667,148.5308557,126.8699683
237.5,-6.518018,148.9672667,126.6497496
237.4,-6.870871333,148.69587,126.4083329
237.3,-6.438881667,148.769027,126.5433818
237.2,-7.082704,148.3736967,126.1636642
237.1,-8.235952667,149.3658777,126.0766417
237,-6.838614333,148.64979,126.2703919
236.9,-7.529837667,148.86992,126.0800274
236.8,-8.565933567,149.5228653,125.9189773
236.7,-7.826200667,149.5727613,126.1488536
236.6,-8.581053667,149.9381824,125.9857096
236.5,-9.029081667,149.8499433,125.7736206
236.4,-9.268617333,150.1558973,125.7624267
236.3,-8.465164333,150.049416,125.9614172
236.2,-8.526058333,150.097409,125.9237836
236.1,-8.848503333,149.7459767,125.6658244
236,-9.6784915,149.71667,125.3460595
235.9,-9.313069,149.9902027,125.5257112
235.8,-10.090118,150.42358,125.3778207
235.7,-8.6809155,150.6970893,125.9053913
235.6,-9.179353667,150.8686113,125.7630859
235.5,-9.659240333,150.8088633,125.5498743
235.4,-9.794198567,150.7256167,125.443806
235.3,-10.61869797,150.7080597,125.1297872
235.2,-10.18832267,151.12218,125.3779524
235.1,-9.538124667,151.6474967,125.7364573
235,-9.756455833,151.171438,125.4716607
234.9,-10.11215967,151.9263413,125.5713939
234.8,-10.885481,151.1598483,125.0247891
234.7,-11.01079767,151.3130023,125.0007349
234.6,-12.86520213,152.1117343,124.6155107
234.5,-11.71729943,151.6837107,124.8221371
234.4,-11.61991533,152.0107907,124.9302918
234.3,-12.327324,152.012513,124.6617297
234.2,-12.06865933,151.9522223,124.694521
234.1,-13.04221533,152.0025047,124.3534298
234,-12.82624,151.91603,124.3632633
233.9,-12.79022167,152.8215913,124.6437899
233.8,-12.78150443,153.16833,124.7289419
233.7,-13.16192167,152.4027123,124.3135969
233.6,-13.29663447,152.9180327,124.4071327
233.5,-13.57207823,153.1010563,124.3429927
233.4,-14.51314933,153.2923383,124.0597297
233.3,-14.042341,153.4154179,124.224359
233.2,-14.935849,153.4192863,123.8944791
233.1,-14.024692,153.3007533,124.1253538
233,-13.5865851,153.9291293,124.4475147
232.9,-14.46904973,153.5091837,123.9800446
232.8,-14.95456767,154.108695,123.9847091
232.7,-14.7763202,154.1064307,124.0100368
232.6,-15.0715945,154.2409937,123.9231331
232.5,-14.34333407,154.287017,124.1478943
232.4,-16.13777067,154.68839,123.6502064
232.3,-16.0082763,154.7616953,123.684473
232.2,-17.45832733,154.475217,123.0722966
232.1,-16.45361367,155.0360257,123.560804
232,-15.3922947,154.915071,123.8409254
231.9,-16.47375993,155.1429053,123.5230485
231.8,-17.205752,155.7037003,123.4326494
231.7,-18.03964767,155.178391,122.9462478
231.6,-16.3013466,155.665691,123.6547815
231.5,-17.38478597,155.6305387,123.2485843
231.4,-18.356709,155.7330563,122.9254491
231.3,-19.30920198,156.11593,122.7022427
231.2,-19.04252967,156.1442447,122.7672383
231.1,-19.04710677,156.0027592,122.6852175
231,-18.1914018,156.5841297,123.1309093
230.9,-19.11958167,155.62072,122.4670461
230.8,-18.72753567,156.5337007,122.8687217
230.7,-18.908914,156.1225367,122.6378742
230.6,-20.30286377,157.268058,122.5217314
230.5,-20.58981967,156.3279387,122.079373
230.4,-19.104679,156.1685233,122.4879481
230.3,-20.1332103,156.9982107,122.3883335
230.2,-20.3725976,156.897134,122.2415121
230.1,-20.64164167,157.011604,122.1566541
230,-20.96882132,156.932136,121.9877716
229.9,-21.602643,157.3354417,121.8775996
229.8,-21.67594867,157.3630683,121.8290399
229.7,-21.154358,157.642926,122.062856
229.6,-21.46360333,158.3421824,122.1595263
229.5,-21.19399329,157.9758313,122.093946
229.4,-22.36910667,157.8569793,121.6292909
229.3,-22.55702767,157.807741,121.5169044
229.2,-22.40033667,158.433595,121.7444194
229.1,-23.00377267,158.0518973,121.3827082
229,-22.99934333,158.290444,121.4303669
228.9,-22.72735567,158.2227592,121.4651345
228.8,-23.42009633,158.0953833,121.158429
228.7,-23.76051277,159.5042747,121.481254
228.6,-22.01981167,158.46795,121.6827128
228.5,-24.65025033,159.0413937,120.9637144
228.4,-23.94196733,158.8504467,121.1028264
228.3,-24.26458367,158.9329967,120.989471
228.2,-23.38621217,159.614152,121.4759799
228.1,-24.37701033,159.802208,121.1750659
228,-24.46133463,159.8973303,121.1453319
227.9,-24.679587,159.9912001,121.0705377
227.8,-24.623153,159.9792933,121.0520468
227.7,-25.28436567,160.2274323,120.8810222
227.6,-25.213992,160.588617,120.9915417
227.5,-24.026899,160.405669,121.2929233
227.4,-26.44896433,160.8666313,120.605889
227.3,-26.80161067,161.0694467,120.522612
227.2,-25.67739333,161.49353,121.0053789
227.1,-24.97853167,161.6461483,121.2558722
227,-26.87550933,160.7360643,120.2868517
226.9,-27.205759,161.4903543,120.3948651
226.8,-28.14671533,161.598501,120.0839286
226.7,-27.15217753,162.1160017,120.554608
226.6,-26.71113605,162.273395,120.720753
226.5,-26.87810233,161.49815,120.3733492
226.4,-28.74567833,162.279737,119.9780196
226.3,-26.968987,162.8866867,120.7392332
226.2,-27.74576,162.409602,120.2879473
226.1,-28.235466,163.0820503,120.3155281
226,-28.355016,162.6993233,120.1147691
225.9,-27.7213573,162.5742368,120.2509598
225.8,-29.23717233,163.6297853,120.0642043
225.7,-28.43614,163.1956433,120.1531678
225.6,-27.74182267,163.266525,120.3749008
225.5,-28.36552033,163.6989141,120.2777979
225.4,-28.449531,163.8977073,120.2827254
225.3,-29.440886,164.7756587,120.2115909
225.2,-30.79811267,164.082186,119.4946911
225.1,-29.221353,164.4594179,120.1126883
225,-29.69268971,163.4460827,119.5844643
224.9,-28.23155767,163.9225707,120.1970043
224.8,-28.4389336,164.5756643,120.3122436
224.7,-29.83261033,164.9154856,119.9276251
224.6,-29.850171,164.639337,119.7963887
224.5,-30.97868333,165.0689411,119.5300859
224.4,-29.06685777,165.01823,120.1171241
224.3,-30.483203,165.8340933,119.8836301
224.2,-30.67883733,165.4715133,119.6642253
224.1,-30.73618973,165.2916913,119.5518339
224,-30.15599867,165.4527,119.7655671
223.9,-30.882511,165.6019913,119.5398268
223.8,-30.250352,166.3784475,119.9760318
223.7,-31.93581267,166.4407565,119.401648
223.6,-29.94348533,166.1853733,119.947296
223.5,-29.483591,165.6575023,119.8913038
223.4,-30.50440767,167.1772933,120.0242952
223.3,-31.133042,166.03848,119.4018127
223.2,-31.13259633,166.6024723,119.5566253
223.1,-31.1802227,167.1117933,119.6771902
223,-31.65605867,166.7651319,119.3696911
222.9,-29.501195,167.185421,120.194742
222.8,-31.04410537,167.2570883,119.6709943
222.7,-29.93784133,167.2639947,120.0087178
222.6,-32.190325,168.0570487,119.4889079
222.5,-31.97313067,167.9351697,119.4873463
222.4,-31.10434233,167.016877,119.4375116
222.3,-31.52828733,168.2375167,119.6697431
222.2,-31.20845577,168.2547388,119.748761
222.1,-32.40462,168.3181173,119.3378324
222,-31.63763667,169.1922652,119.8515428
221.9,-32.138996,168.533583,119.431529
221.8,-31.93120179,169.1945023,119.6877668
221.7,-31.73765021,169.3678296,119.7767265
221.6,-31.631712,168.8290217,119.5991032
221.5,-30.09569667,169.5182497,120.3075177
221.4,-31.42493333,169.1776373,119.717568
221.3,-32.0228035,169.5451203,119.6074389
221.2,-32.6837715,169.6901987,119.4021424
221.1,-32.05861367,170.0440912,119.6951592
221,-30.62969863,170.069684,120.1466618
220.9,-30.89152867,170.0876937,120.032055
220.8,-31.84903187,170.8772107,119.9427263
220.7,-30.31113076,170.4299743,120.2729478
220.6,-30.827981,170.1903437,119.9874542
220.5,-29.64491133,170.6396353,120.4982413
220.4,-30.4334597,171.3087723,120.4251042
220.3,-30.8624514,171.2322037,120.2232508
220.2,-32.288842,171.355143,119.7554337
220.1,-31.78051767,171.897474,120.0723188
220,-30.67149127,171.6355254,120.3213447
219.9,-31.34942233,171.920336,120.1569712
219.8,-31.17649073,172.594265,120.4059248
219.7,-30.697482,171.920842,120.3077867
219.6,-31.39442763,172.1716233,120.1257319
219.5,-32.51170093,172.7804243,119.9229078
219.4,-31.27024067,172.3680147,120.1659247
219.3,-30.73636643,173.1396303,120.5677546
219.2,-31.27938933,172.2590933,120.0599013
219.1,-32.056992,172.8428424,119.9619501
219,-28.946831,173.195332,121.0828337
218.9,-31.52567667,173.1152767,120.1632
218.8,-31.419012,173.50715,120.296046
218.7,-30.206136,173.505197,120.6663537
218.6,-31.34192847,173.9679673,120.4086796
218.5,-32.333047,173.2787443,119.8152324
218.4,-32.31880533,174.246653,120.1092826
218.3,-30.66486743,174.268654,120.6345955
218.2,-32.1941498,174.0952187,120.0336896
218.1,-31.10681067,174.4454417,120.4795437
218,-31.07635167,174.9709733,120.6315406
217.9,-30.82253467,174.845557,120.6410074
217.8,-32.26643467,175.242544,120.2587031
217.7,-31.1767729,175.0882917,120.5371729
217.6,-31.74660367,174.9267733,120.2600566
217.5,-29.9252504,175.7652382,121.1133293
217.4,-29.74577767,175.4607533,121.0383252
217.3,-30.86567167,175.7238654,120.7193979
217.2,-30.79152933,175.70015,120.7028736
217.1,-32.440139,176.603328,120.421063
217,-30.79244967,176.7443373,120.9839626
216.9,-33.29809333,176.8020617,120.1346561
216.8,-31.6366568,176.38784,120.5170611
216.7,-32.9028481,177.0543834,120.2838451
216.6,-32.53307767,177.285021,120.4506478
216.5,-30.92116533,177.1019717,120.8936021
216.4,-29.2707522,177.0677193,121.398989
216.3,-29.46491467,178.0425907,121.625892
216.2,-30.40321533,177.39526,121.0640149
216.1,-30.91593327,178.0237337,121.0692668
216,-30.686199,178.272274,121.1953583
215.9,-28.91030767,178.3381567,121.7759497
215.8,-30.88460633,178.8799597,121.2651178
215.7,-31.76053833,178.4407127,120.7933915
215.6,-30.82625,178.6734033,121.1490511
215.5,-30.336952,179.3117433,121.4915971
215.4,-32.59281967,179.1584933,120.6552246
215.3,-30.7594322,179.4890997,121.3432225
215.2,-30.56193033,179.7595493,121.465873
215.1,-29.30848133,179.8252667,121.8722618
215,-30.66891144,179.8860367,121.4057084
214.9,-30.91261187,179.8476107,121.2783329
214.8,-32.432282,180.6280127,120.9985769
214.7,-30.88260672,180.54361,121.4536678
214.6,-30.02458033,180.9823763,121.8525987
214.5,-31.24974277,180.6972267,121.315828
214.4,-29.160301,180.4753,121.9049997
214.3,-31.35120933,181.9594467,121.6360791
214.2,-29.66624933,181.634795,122.0561819
214.1,-29.583672,181.3489067,121.9550782
214,-31.62183567,181.8142863,121.3974836
213.9,-31.525434,181.7233613,121.3659758
213.8,-29.27768567,182.4927137,122.3383427
213.7,-30.48130267,182.7323537,121.9836837
213.6,-30.8007408,182.3631073,121.7207888
213.5,-31.11333833,182.606814,121.6644919
213.4,-31.73405933,183.0046893,121.5568767
213.3,-30.75630633,183.4804653,122.008053
213.2,-30.33759767,183.6985604,122.1869876
213.1,-32.08704867,183.3105973,121.4411829
213,-31.021477,183.10969,121.696071
212.9,-32.19636767,183.9281903,121.5439409
212.8,-30.73398633,184.2463667,122.1041268
212.7,-30.85976867,184.3777767,122.0726693
212.6,-30.22858833,184.5303767,122.3005961
212.5,-30.781415,184.9105467,122.2097106
212.4,-31.399388,185.0602343,122.0202821
212.3,-33.16124233,184.98713,121.3752959
212.2,-31.182939,186.2160127,122.4110246
212.1,-31.40971533,185.49051,122.0602649
212,-28.46127933,186.104669,123.2144632
211.9,-31.6561078,186.409212,122.2177014
211.8,-31.03920267,186.412139,122.3909788
211.7,-32.24929087,186.4376923,121.9628005
211.6,-30.99791453,186.9107853,122.5042903
211.5,-32.78590633,187.672293,122.1287956
211.4,-34.16903533,187.6994493,121.6434713
211.3,-31.30784813,187.51758,122.503244
211.2,-31.98200133,187.7969727,122.3383238
211.1,-32.0773627,188.49792,122.5068524
211,-31.34921133,189.4864403,123.045743
210.9,-32.72768555,189.6065091,122.5929412
210.8,-32.75892,188.9157073,122.3189291
210.7,-32.42161967,189.1744643,122.4842816
210.6,-33.35319567,189.682457,122.3097538
210.5,-35.26697233,190.32264,121.8518892
210.4,-33.19252167,190.155978,122.4544854
210.3,-34.255382,190.89764,122.314086
210.2,-33.53679733,190.8339713,122.499058
210.1,-33.50149667,190.9431784,122.5138939
210,-32.09458467,191.8525007,123.2526387
209.9,-32.964735,191.6523183,122.8625278
209.8,-32.57006733,192.359368,123.1964336
209.7,-34.36289627,192.8655413,122.734215
209.6,-34.17628763,192.8807723,122.7681616
209.5,-32.69584967,192.8318623,123.2120042
209.4,-34.114877,193.6135007,122.9662079
209.3,-33.03632033,194.242335,123.5020049
209.2,-32.26829833,194.28114,123.7376139
209.1,-33.952704,195.0516033,123.3996331
209,-34.15061637,194.9721473,123.2738437
208.9,-33.18601167,195.8794245,123.864471
208.8,-32.12526233,195.7525667,124.1424348
208.7,-32.42996133,196.0470843,124.1057077
208.6,-32.70446733,197.4945117,124.4633481
208.5,-33.07049233,197.1009133,124.176807
208.4,-34.80431417,197.83583,123.8105053
208.3,-33.88891867,197.475173,123.9620848
208.2,-32.19761133,197.26313,124.4218396
208.1,-31.715821,198.0795987,124.8212592
208,-34.332867,198.7384133,124.1351821
207.9,-29.66078133,199.1519153,125.7970447
207.8,-32.90886533,199.850622,124.9139189
207.7,-33.57306533,201.0166777,125.0478708
207.6,-32.6725377,200.3454033,125.0909552
207.5,-32.23265367,200.3293767,125.1989077
207.4,-31.29907433,201.1925843,125.7645033
207.3,-31.96753167,202.8409133,126.0577939
207.2,-30.621164,202.1419043,126.2402468
207.1,-31.58603733,203.3324803,126.2821477
207,-30.13505667,203.5169583,126.7939672
206.9,-28.527845,203.7308117,127.3676556
206.8,-29.473521,203.6465167,126.9909986
206.7,-29.1251437,204.0795007,127.218119
206.6,-29.5701487,205.2980593,127.4426369
206.5,-29.61003,205.5516523,127.4805408
206.4,-30.73729122,205.774314,127.1456743
206.3,-28.69357467,205.6515933,127.7526729
206.2,-26.56842057,206.9867977,128.8727924
206.1,-27.76100233,207.5845467,128.6411814
206,-26.4540607,207.8137657,129.1199017
205.9,-27.75473867,208.451217,128.8654928
205.8,-26.534433,208.8401447,129.3685706
205.7,-27.05916533,209.4187443,129.353193
205.6,-27.79533067,209.5554427,129.1200373
205.5,-27.452274,210.5644737,129.5373999
205.4,-25.5377622,211.456505,130.4395809
205.3,-26.943557,211.5840983,129.9801804
205.2,-25.375096,212.06254,130.629148
205.1,-21.28858993,213.2303533,132.3472545
205,-23.7246418,214.0229277,131.7660953
204.9,-24.78430333,213.7491933,131.2882967
204.8,-27.229142,214.6864573,130.7524384
204.7,-20.48298867,215.088571,133.1018608
204.6,-19.07531467,216.858129,134.1276048
204.5,-22.00921003,215.926179,132.8056563
204.4,-16.611268,217.3294666,135.0393995
204.3,-18.621661,217.995281,134.5578733
204.2,-19.601272,218.874609,134.4911123
204.1,-17.5218445,219.4564033,135.3448529
204,-17.17536123,219.6949713,135.5065367
203.9,-16.79780967,220.0551603,135.7191169
203.8,-18.47322437,222.0652323,135.797336
203.7,-17.50200967,222.7006883,136.2995596
203.6,-13.649979,223.1090213,137.6863474
203.5,-14.4283074,223.4387683,137.503487
203.4,-13.82385733,224.35621,137.9774509
203.3,-9.904829,224.7048943,139.3666884
203.2,-14.02620243,225.583756,138.2525179
203.1,-8.969342333,226.152673,140.0944436
203,-10.73892167,227.3585813,139.8732199
202.9,-13.013473,228.0429137,139.3098136
202.8,-9.950137667,228.486532,140.4454648
202.7,-7.334849333,228.7582517,141.3744674
202.6,-8.265981667,229.7114167,141.3484783
202.5,-4.7455,230.7466012,142.8337004
202.4,-4.020526333,231.153057,143.1775102
202.3,-8.592320667,232.8987033,142.2021276
202.2,-5.615951333,233.0351367,143.2063951
202.1,-8.188796067,234.3968163,142.7693401
202,-5.765941,235.54679,143.9269497
201.9,-3.787940333,235.9643267,144.6921288
201.8,-0.2689823,237.1606107,146.2305428
201.7,2.302157333,238.190353,147.3975034
201.6,2.628411967,238.65824,147.628884
201.5,3.241622,239.429147,148.056923
201.4,1.991882667,240.8677327,148.0865384
201.3,2.488288333,241.0688867,148.285725
201.2,3.673892273,242.6491753,149.1743559
201.1,5.569591333,243.4904763,150.0533559
201,6.866127867,244.0894123,150.6518467
200.9,8.144616833,244.9246863,151.3231011
200.8,6.305173,245.65392,150.9196977
200.7,7.223965667,246.3995613,151.4411757
200.6,3.862124,248.2143263,150.8921501
200.5,6.584855333,249.0784298,152.0544284
200.4,7.177001333,250.117152,152.5647178
200.3,5.014381,251.245089,152.18649
200.2,12.04722333,252.291252,154.8461584
200.1,11.73590533,252.7719947,154.8693
200,10.68189067,254.5466697,155.0761868
199.9,11.89794567,255.7951837,155.8643764
199.8,10.85245367,256.4925733,155.715009
199.7,18.59459567,257.7230443,158.6725467
199.6,11.93380833,257.8869767,156.473595
199.5,15.85257167,259.4430593,158.2652103
199.4,16.43773183,259.8071047,158.5482788
199.3,20.87220633,261.032005,160.4014038
199.2,13.03699383,262.13641,158.1244679
199.1,15.180198,263.088734,159.1229773
199,25.52056347,263.7728133,162.7644589
198.9,19.1002099,265.28009,161.0934333
198.8,17.51798233,266.7648197,161.0276007
198.7,25.58626067,267.0098,163.7653536
198.6,17.77452933,269.0743227,161.816284
198.5,24.52789133,269.9219967,164.3166293
198.4,26.89163767,271.1454793,165.479039
198.3,24.13169047,271.7725507,164.734747
198.2,19.1756069,273.159498,163.5117016
198.1,24.14961133,274.6404467,165.6300193
198,24.901913,275.1873293,166.0297474
197.9,25.98943297,276.5570377,166.8154902
197.8,25.68015333,277.84076,167.1069711
197.7,30.2781696,278.9064803,168.96155
197.6,24.5373934,279.846483,167.3279588
197.5,24.24812367,280.9292927,167.5591388
197.4,25.037482,282.662819,168.366767
197.3,22.972549,283.16676,167.813103
197.2,27.990868,284.1644473,169.7851051
197.1,24.902373,285.7333033,169.2452254
197,25.61953817,286.9221704,169.8472362
196.9,23.13253567,288.1484337,169.3936564
196.8,27.04531533,289.358787,171.0680341
196.7,25.419284,290.0123333,170.7105391
196.6,26.78888703,291.0770647,171.4886506
196.5,28.41358233,292.7918107,172.5684643
196.4,25.95112867,294.5086113,172.28658
196.3,23.256257,294.9583307,171.5048626
196.2,24.28063013,296.052044,172.177558
196.1,23.66104333,297.958406,172.5731498
196,27.712889,299.1439377,174.2856089
195.9,24.62340243,299.07783,173.2004108
195.8,27.6785152,300.9277893,174.8021015
195.7,31.42894033,302.3524683,176.4938029
195.6,20.61025567,302.7064483,172.9722347
195.5,29.29056137,303.6106167,176.133726
195.4,33.61436907,305.2619733,178.0921141
195.3,28.67986272,306.4867163,176.822193
195.2,28.51479451,307.25797,176.9909215
195.1,24.134569,308.1550103,175.7965264
195,28.28600571,309.1577827,177.4812628
194.9,27.4282076,310.1323233,177.4868436
194.8,26.47786867,310.76198,177.3466162
194.7,28.40100503,312.4694807,178.5234952
194.6,28.5182315,313.0745733,178.7309349
194.5,29.11652567,314.0620807,179.2262021
194.4,24.885994,314.740001,178.008665
194.3,27.42540167,315.743107,179.1561696
194.2,23.22138797,316.7218167,178.0477349
194.1,22.37111377,318.3738003,178.281638
194,28.5131194,319.1520587,180.5550594
193.9,22.49916267,320.5413503,178.980171
193.8,24.12281633,321.52272,179.8151788
193.7,27.79692017,323.5365387,181.6778196
193.6,28.96927433,323.9975307,182.188935
193.5,24.43317273,325.2465613,181.0599114
193.4,26.931852,325.2956717,181.8758412
193.3,25.97236293,326.1700323,181.8141318
193.2,21.78923433,327.0764783,180.6885709
193.1,25.17461767,327.3902277,181.8882818
193,23.57556933,328.878282,181.8179504
192.9,26.22677223,329.1015833,182.7427852
192.8,26.27763467,330.8011887,183.2929411
192.7,16.23524867,332.2567539,180.3973342
192.6,14.31651067,333.2662983,180.0609363
192.5,23.444785,333.6491563,183.1979804
192.4,27.226199,335.1411027,184.9224339
192.3,20.80589167,336.2961616,183.1340178
192.2,18.888805,336.828779,182.6391947
192.1,15.12275567,337.694062,181.6389392
192,17.17269667,338.8054475,182.6593814
191.9,24.55245967,339.634633,185.3623642
191.8,16.80753867,340.9168433,183.174794
191.7,21.2412336,342.0539407,184.9983914
191.6,22.4560121,343.145753,185.7339217
191.5,21.18173667,343.7281683,185.4699683
191.4,14.70819867,344.3965833,183.501594
191.3,19.860713,345.99806,185.719591
191.2,18.7509283,346.8706083,185.6071789
191.1,15.23273433,347.7101807,184.6809717
191,8.789013,350.7759733,183.5216621
190.9,17.4908,350.7886113,186.3931371
190.8,14.5128594,352.638572,185.9838105
190.7,19.220009,353.622873,187.8476273
190.6,14.13351457,355.0832817,186.6055987
190.5,11.31258,355.49797,185.7701833
190.4,12.7528535,357.1255913,186.7594816
190.3,16.82028833,358.4406157,188.5203013
190.2,13.69748903,359.092448,187.6633123
190.1,20.46103233,360.441613,190.3342151
190,14.77575167,361.0063767,188.5940428
,,,
##### Extended Information,,,
[Comments],,,
Sample name,TB_TH_KD_Buffer and Protein,,
Comment,Buffer and Protein,,
User,Tara_Tyler_Kimani,,
Division,,,
Company,Saint Mary's College,,
,,,
[Detailed Information],,,
Creation date,9/29/2022 15:46,,
,,,
Data array type,Linear data array * 3,,
Horizontal axis,Wavelength [nm],,
Vertical axis(1),CD [mdeg],,
Vertical axis(2),HT [V],,
Vertical axis(3),Abs,,
Start,320 nm,,
End,190 nm,,
Data interval,0.1 nm,,
Data points,1301,,
,,,
[Measurement Information],,,
Instrument name,J-1500,,
Model name,J-1500,,
Serial No.,B051061638,,
,,,
Detector,PM-539,,
Detector S/N,B051061638,,
Lock-in amp.,X mode,,
HT volt,Auto,,
,,,
Accessory,PTC-517,,
Accessory S/N,B026561646,,
Temperature,22.15 C,,
Control sensor,Holder,,
Monitor sensor,Holder,,
,,,
Measurement date,9/29/2022 15:46,,
,,,
CD Overload detect,968,,
Photometric mode,CD,HT,Abs
Measure range,320 - 190 nm,,
Data pitch,0.1 nm,,
CD scale,20 mdeg/0.05 dOD,,
FL scale,20 mdeg/0.05 dOD,,
D.I.T.,8 msec,,
Bandwidth,2.00 nm,,
Start mode,Immediately,,
Scanning mode,Continuous,,
Scanning speed,200 nm/min,,
Baseline correction,None,,
Shutter control,Auto,,
No. of cycle,1-Jan,,
N2 Flowmeter,Manual,,
,,,
Solvent,NaPO4 buffer,,
,,,
,,,
