TITLE,TB_TH_KD_Protein and Additive 
DATA TYPE,
ORIGIN,JASCO
OWNER,
DATE,22/09/29
TIME,16:58:05
SPECTROMETER/DATA SYSTEM,
LOCALE,1033
RESOLUTION,
DELTAX,-0.1
XUNITS,NANOMETERS
YUNITS,CD [mdeg]
Y2UNITS,HT [V]
Y3UNITS,ABSORBANCE
FIRSTX,  320.0000
LASTX,  190.0000
NPOINTS,    1301
FIRSTY,     0.32430
MAXY,    22.16539
MINY,   -62.76704
XYDATA
320.0000,0.3243,208.974,0.15813
319.9000,-0.258896,210.317,0.177241
319.8000,2.07632,209.653,0.167803
319.7000,1.76339,209.646,0.167706
319.6000,1.09391,209.645,0.16769
319.5000,1.68274,209.424,0.164544
319.4000,1.51106,209.905,0.171398
319.3000,0.795349,209.772,0.169496
319.2000,0.106057,209.858,0.170721
319.1000,1.24025,209.159,0.160765
319.0000,1.05273,209.35,0.163495
318.9000,1.41218,208.862,0.15653
318.8000,-0.147954,209.979,0.172445
318.7000,1.6764,208.779,0.155348
318.6000,1.01992,209.196,0.161299
318.5000,0.193395,208.764,0.155138
318.4000,-0.226791,208.641,0.153374
318.3000,0.252789,209.299,0.162768
318.2000,1.7089,209.091,0.159796
318.1000,1.98845,209.503,0.165674
318.0000,0.615007,209.478,0.165319
317.9000,1.32334,209.19,0.161218
317.8000,2.44385,209.127,0.160313
317.7000,1.29914,209.12,0.160216
317.6000,0.205831,209.585,0.166835
317.5000,0.742822,209.897,0.171285
317.4000,0.634271,208.735,0.154717
317.3000,1.96158,208.422,0.150248
317.2000,1.47449,209.563,0.166529
317.1000,2.29149,208.733,0.154685
317.0000,-0.0688241,208.855,0.156432
316.9000,-0.090632,209.334,0.163269
316.8000,1.55098,208.904,0.157128
316.7000,0.412749,209.661,0.167916
316.6000,2.53639,209.917,0.171559
316.5000,1.03575,209.861,0.170769
316.4000,1.56332,208.52,0.151641
316.3000,1.85795,208.636,0.153309
316.2000,1.18271,209.129,0.160345
316.1000,1.77539,209.116,0.160151
316.0000,1.28635,208.725,0.154571
315.9000,0.873062,209.117,0.160168
315.8000,0.629964,208.984,0.158276
315.7000,-1.16404,210.065,0.173668
315.6000,0.724345,208.933,0.157548
315.5000,2.14761,209.606,0.167142
315.4000,1.53454,208.859,0.156497
315.3000,1.58167,208.398,0.149907
315.2000,1.20069,209.19,0.161218
315.1000,2.02157,208.99,0.158357
315.0000,2.19653,208.725,0.154571
314.9000,1.26189,209.436,0.164722
314.8000,0.208334,209.282,0.162526
314.7000,1.23526,208.33,0.148935
314.6000,-0.235711,209.223,0.161686
314.5000,1.80905,209.04,0.159068
314.4000,-0.0719219,209.108,0.160038
314.3000,1.17674,209.014,0.158696
314.2000,-0.268552,208.867,0.15661
314.1000,-0.102052,208.751,0.154944
314.0000,0.972934,208.761,0.15509
313.9000,1.6953,208.764,0.155138
313.8000,-1.11087,209.148,0.16062
313.7000,-0.270713,208.961,0.157953
313.6000,1.97936,208.547,0.15203
313.5000,0.794,208.742,0.154814
313.4000,2.1712,209.099,0.159909
313.3000,0.895438,208.097,0.145594
313.2000,-0.598739,208.041,0.144799
313.1000,0.790424,208.51,0.151511
313.0000,3.04322,209.389,0.164044
312.9000,1.469,208.411,0.150085
312.8000,1.82167,208.551,0.152094
312.7000,-1.34902,208.733,0.154685
312.6000,1.57963,208.667,0.153746
312.5000,0.592377,209.105,0.160006
312.4000,1.94931,208.453,0.150685
312.3000,0.271003,208.82,0.155931
312.2000,-0.8676,208.206,0.147151
312.1000,0.17692,208.821,0.155947
312.0000,0.159838,209.548,0.166319
311.9000,0.484633,209.452,0.164948
311.8000,0.930888,209.1,0.159925
311.7000,-0.21478,208.825,0.156012
311.6000,1.14604,207.884,0.142542
311.5000,1.24641,208.696,0.154167
311.4000,0.798113,208.253,0.147832
311.3000,-0.313846,207.828,0.141746
311.2000,-0.727884,210.428,0.178817
311.1000,1.1053,208.584,0.152564
311.0000,1.72995,208.937,0.157597
310.9000,-0.72434,207.968,0.143744
310.8000,2.39845,207.981,0.143938
310.7000,2.2659,209.128,0.160329
310.6000,0.124678,208.06,0.145058
310.5000,0.73515,208.921,0.157371
310.4000,1.05093,209.108,0.160038
310.3000,1.32423,208.656,0.153584
310.2000,0.876029,208.445,0.150572
310.1000,0.714946,209.38,0.163915
310.0000,2.18994,208.711,0.154377
309.9000,2.48142,209.445,0.164851
309.8000,1.90068,208.714,0.154426
309.7000,3.55693,209.125,0.16028
309.6000,0.934719,209.016,0.158729
309.5000,0.806897,208.569,0.152354
309.4000,-0.702363,208.679,0.153924
309.3000,0.82606,209.753,0.169238
309.2000,1.03601,208.948,0.157759
309.1000,1.89932,208.369,0.149486
309.0000,1.3227,209.712,0.168642
308.9000,-0.46672,208.887,0.156885
308.8000,0.556486,209.331,0.16322
308.7000,1.17837,208.96,0.157937
308.6000,0.553187,208.892,0.156966
308.5000,0.354207,209.026,0.158874
308.4000,1.92031,208.77,0.155219
308.3000,1.93856,209.168,0.160895
308.2000,-0.0278769,208.242,0.14767
308.1000,1.5438,208.584,0.152564
308.0000,1.93357,208.722,0.154539
307.9000,0.959699,208.842,0.156254
307.8000,1.67666,208.486,0.151155
307.7000,0.510405,209.044,0.159133
307.6000,1.6654,208.561,0.15224
307.5000,-0.535461,207.698,0.139878
307.4000,2.491,207.948,0.143468
307.3000,1.34745,208.345,0.149145
307.2000,0.296471,208.325,0.148854
307.1000,0.336495,209.238,0.161896
307.0000,0.613025,208.676,0.153876
306.9000,1.03508,208.676,0.153876
306.8000,0.484746,208.607,0.152888
306.7000,-0.651243,207.688,0.139732
306.6000,0.0262216,208.718,0.154474
306.5000,1.545,208.524,0.151706
306.4000,0.900847,208.683,0.153973
306.3000,1.90404,208.805,0.155721
306.2000,0.444735,209.135,0.160426
306.1000,0.762265,208.252,0.147816
306.0000,0.85955,208.761,0.15509
305.9000,-0.432055,209.096,0.159876
305.8000,1.52844,209.976,0.172396
305.7000,0.841036,208.174,0.146697
305.6000,-0.145555,209.001,0.158519
305.5000,1.01475,208.67,0.153795
305.4000,0.792634,208.939,0.157629
305.3000,1.06392,208.38,0.149648
305.2000,0.465811,208.898,0.157047
305.1000,1.94633,208.446,0.150588
305.0000,-0.201248,208.299,0.148481
304.9000,-0.151828,207.948,0.143468
304.8000,-0.0557673,208.573,0.152402
304.7000,1.50914,208.454,0.150701
304.6000,0.379879,208.194,0.146989
304.5000,0.186082,208.547,0.15203
304.4000,0.64513,209.308,0.162897
304.3000,0.652592,208.369,0.149486
304.2000,1.07878,208.993,0.158406
304.1000,1.05937,208.909,0.157209
304.0000,1.21447,207.816,0.141568
303.9000,0.246087,208.857,0.156465
303.8000,0.945271,208.735,0.154717
303.7000,1.74409,208.717,0.154458
303.6000,1.14875,208.413,0.150118
303.5000,1.20026,208.76,0.155073
303.4000,1.92546,208.785,0.155429
303.3000,0.186501,208.445,0.150572
303.2000,1.63385,208.771,0.155235
303.1000,0.809108,208.942,0.157678
303.0000,0.0452883,208.371,0.149518
302.9000,1.70483,208.716,0.154442
302.8000,0.411105,208.532,0.151819
302.7000,-0.967612,208.295,0.148432
302.6000,3.53606,208.073,0.145253
302.5000,0.949513,208.483,0.151123
302.4000,0.291482,208.018,0.144458
302.3000,0.872932,208.311,0.148659
302.2000,0.713045,208.589,0.152629
302.1000,0.669081,208.285,0.148286
302.0000,-1.56856,208.484,0.151139
301.9000,-0.67566,207.958,0.143598
301.8000,0.944392,208.648,0.153471
301.7000,0.467212,208.657,0.1536
301.6000,1.77179,208.252,0.147816
301.5000,1.28267,208.56,0.152224
301.4000,1.26847,208.343,0.149113
301.3000,1.35145,208.336,0.149016
301.2000,0.0843449,208.84,0.156222
301.1000,1.99971,207.596,0.138415
301.0000,0.788452,207.975,0.143841
300.9000,-0.110918,208.083,0.145399
300.8000,1.28178,208.236,0.147589
300.7000,-1.32107,207.943,0.143386
300.6000,1.68439,208.378,0.149615
300.5000,1.29535,208.841,0.156238
300.4000,1.59555,208.478,0.151042
300.3000,0.636172,208.7,0.154215
300.2000,0.698936,207.931,0.143224
300.1000,-0.104647,208.001,0.144215
300.0000,-0.0560919,208.299,0.148481
299.9000,2.00848,207.958,0.143598
299.8000,1.82697,208.329,0.148919
299.7000,2.27607,208.192,0.146956
299.6000,0.0284384,208.407,0.150037
299.5000,-0.110572,208.155,0.146421
299.4000,1.94621,208.242,0.14767
299.3000,1.92153,208.917,0.157322
299.2000,0.919959,208.568,0.152337
299.1000,0.321759,207.194,0.132639
299.0000,1.57892,208.343,0.149113
298.9000,2.65614,207.846,0.142006
298.8000,-0.365157,208.309,0.148627
298.7000,1.6154,207.567,0.137992
298.6000,0.627399,207.948,0.143468
298.5000,1.11643,207.603,0.138512
298.4000,-0.253862,208.905,0.157144
298.3000,0.933513,208.18,0.146778
298.2000,-0.128573,208.412,0.150102
298.1000,1.35069,207.936,0.143289
298.0000,1.37327,208.03,0.144636
297.9000,0.956735,207.643,0.139081
297.8000,2.36894,208.199,0.147054
297.7000,-0.135782,207.534,0.137521
297.6000,0.183951,208.404,0.149988
297.5000,-0.75553,207.914,0.14298
297.4000,0.714431,208.275,0.14814
297.3000,0.0928661,208.219,0.147346
297.2000,1.92448,208.113,0.145821
297.1000,-0.187888,208.189,0.146908
297.0000,1.65317,207.752,0.140658
296.9000,1.03106,207.848,0.142023
296.8000,0.087013,207.672,0.139504
296.7000,3.0516,209.372,0.163802
296.6000,2.01743,208.848,0.156335
296.5000,0.833055,208.617,0.153034
296.4000,1.20742,208.328,0.148902
296.3000,-0.58545,208.256,0.147865
296.2000,0.462432,208.06,0.145058
296.1000,-0.392123,208.312,0.148675
296.0000,0.439768,208.496,0.151301
295.9000,0.893765,209.123,0.160264
295.8000,1.20953,208.088,0.145464
295.7000,0.72258,207.544,0.137667
295.6000,1.01484,208.075,0.145286
295.5000,0.269918,207.925,0.143127
295.4000,2.17698,207.513,0.137228
295.3000,0.351894,208.501,0.151382
295.2000,2.02219,207.67,0.139472
295.1000,0.790144,207.614,0.138675
295.0000,1.09871,207.738,0.140447
294.9000,0.865534,208.334,0.148983
294.8000,0.195145,207.751,0.140642
294.7000,0.326684,208.581,0.152515
294.6000,0.230283,209.034,0.158987
294.5000,-0.164805,207.339,0.134723
294.4000,-0.273536,208.24,0.147638
294.3000,0.641754,207.442,0.136203
294.2000,1.8988,207.442,0.136203
294.1000,-0.795616,207.757,0.140723
294.0000,0.408596,207.694,0.139813
293.9000,0.337187,208.198,0.147037
293.8000,-0.522474,208.471,0.150944
293.7000,2.15569,208.135,0.146145
293.6000,-0.065304,207.985,0.143987
293.5000,1.40867,207.791,0.14121
293.4000,0.9936,207.929,0.143192
293.3000,-0.477358,208.558,0.152192
293.2000,0.464262,208.473,0.150977
293.1000,1.65786,208.314,0.148708
293.0000,0.925635,208.141,0.146226
292.9000,0.229003,208.063,0.145107
292.8000,1.20422,207.615,0.138692
292.7000,0.942705,207.303,0.134202
292.6000,-0.0924967,207.786,0.141145
292.5000,2.13408,208.173,0.146681
292.4000,0.534347,208.054,0.144977
292.3000,1.25902,207.78,0.141048
292.2000,0.612691,207.745,0.140544
292.1000,1.74134,208.039,0.144766
292.0000,0.250574,207.657,0.139293
291.9000,-0.445018,208.448,0.15062
291.8000,2.83696,206.458,0.122055
291.7000,0.649388,207.929,0.143192
291.6000,0.857329,208.278,0.148189
291.5000,1.52565,207.512,0.137212
291.4000,1.20146,205.942,0.114601
291.3000,1.09575,207.299,0.134153
291.2000,0.994766,207.542,0.137635
291.1000,0.586188,208.004,0.144263
291.0000,1.92076,208.64,0.153357
290.9000,0.69389,206.899,0.128403
290.8000,1.57943,207.739,0.140463
290.7000,-0.20228,207.884,0.142542
290.6000,0.680334,207.653,0.139228
290.5000,1.12098,207.385,0.13539
290.4000,2.48371,207.372,0.135195
290.3000,0.857987,207.167,0.132248
290.2000,-0.541909,207.423,0.135927
290.1000,0.232722,208.453,0.150685
290.0000,0.984352,207.573,0.13809
289.9000,-0.988248,208.641,0.153374
289.8000,1.28262,207.718,0.140171
289.7000,1.41837,208.448,0.15062
289.6000,2.20062,208.713,0.15441
289.5000,-0.249171,208.173,0.146681
289.4000,-0.944819,208.42,0.150215
289.3000,1.41819,208.372,0.149534
289.2000,1.80368,207.914,0.14298
289.1000,0.57609,208.064,0.145123
289.0000,-0.0291414,207.622,0.138789
288.9000,0.797303,207.815,0.141551
288.8000,-0.281158,208.149,0.14634
288.7000,-0.164961,208.498,0.151333
288.6000,0.0228138,208.317,0.14874
288.5000,1.05184,208.972,0.158098
288.4000,0.574797,208.456,0.150734
288.3000,0.13747,208.557,0.152175
288.2000,1.80534,208.036,0.144718
288.1000,0.663313,208.736,0.154733
288.0000,1.37176,207.93,0.143208
287.9000,0.834737,208.682,0.153957
287.8000,0.397679,208.611,0.152953
287.7000,1.25685,207.309,0.1343
287.6000,0.328265,208.554,0.152127
287.5000,0.896582,208.132,0.146097
287.4000,-0.060431,207.878,0.142461
287.3000,1.42791,208.498,0.151333
287.2000,1.74019,208.182,0.146811
287.1000,-0.299875,208.612,0.152969
287.0000,1.74601,209.04,0.159068
286.9000,1.37509,208.586,0.152596
286.8000,0.400501,208.926,0.157451
286.7000,0.099122,208.319,0.148773
286.6000,-0.0117469,208.795,0.155575
286.5000,2.11068,208.645,0.153438
286.4000,0.0770384,207.865,0.142266
286.3000,1.49985,209.13,0.160361
286.2000,1.18918,209.163,0.16083
286.1000,0.406874,208.231,0.147508
286.0000,0.516758,208.282,0.148238
285.9000,1.95765,209.232,0.161815
285.8000,1.90462,208.16,0.146502
285.7000,1.68337,208.19,0.146924
285.6000,1.38001,208.948,0.157759
285.5000,0.396625,209.61,0.16719
285.4000,0.692803,208.703,0.154264
285.3000,0.843867,208.439,0.150491
285.2000,0.641958,208.297,0.148465
285.1000,0.349615,208.563,0.152256
285.0000,0.835289,207.401,0.135618
284.9000,0.63144,208.887,0.156885
284.8000,1.26418,208.481,0.15109
284.7000,0.928738,209.068,0.159472
284.6000,-0.138809,208.412,0.150102
284.5000,1.2146,209.17,0.160927
284.4000,0.756641,208.656,0.153584
284.3000,-0.165329,208.501,0.151382
284.2000,-0.437717,208.279,0.148205
284.1000,1.5299,207.477,0.136708
284.0000,-0.729584,208.653,0.153552
283.9000,1.57178,209.082,0.159666
283.8000,-1.2185,208.752,0.15496
283.7000,-0.0031616,208.54,0.151932
283.6000,-1.54503,208.245,0.147719
283.5000,1.64352,209.259,0.162203
283.4000,0.257501,208.418,0.150183
283.3000,0.473553,208.651,0.153519
283.2000,2.58565,208.455,0.150717
283.1000,0.30979,208.483,0.151123
283.0000,1.83543,209.418,0.164464
282.9000,0.282426,208.978,0.158195
282.8000,0.115927,208.972,0.158098
282.7000,2.02224,209.9,0.171317
282.6000,0.0684524,207.282,0.133909
282.5000,0.517071,208.384,0.149696
282.4000,-0.11135,209.574,0.16669
282.3000,0.223074,209.324,0.163123
282.2000,1.11256,208.559,0.152208
282.1000,0.496102,209.046,0.159165
282.0000,-0.861675,209.118,0.160184
281.9000,1.91432,208.683,0.153973
281.8000,0.109791,208.407,0.150037
281.7000,0.837606,208.189,0.146908
281.6000,1.53531,209.733,0.168948
281.5000,0.0765184,209.088,0.159763
281.4000,-0.364525,208.123,0.145967
281.3000,0.174224,209.146,0.160588
281.2000,0.110551,208.554,0.152127
281.1000,1.10469,208.428,0.150329
281.0000,0.527032,208.573,0.152402
280.9000,-1.85346,207.235,0.133225
280.8000,1.21224,208.659,0.153633
280.7000,0.716084,208.88,0.156788
280.6000,0.548613,208.719,0.154491
280.5000,0.729544,208.469,0.150912
280.4000,-1.33997,208.742,0.154814
280.3000,0.755958,208.991,0.158373
280.2000,0.116079,208.263,0.147978
280.1000,1.39867,208.844,0.156271
280.0000,1.39547,209.006,0.158583
279.9000,1.53795,208.998,0.15847
279.8000,-0.719809,208.328,0.148902
279.7000,-0.547694,209.217,0.161605
279.6000,0.319381,208.347,0.149178
279.5000,0.741434,208.866,0.156594
279.4000,0.736642,209.247,0.162025
279.3000,2.36134,209.332,0.163237
279.2000,0.0236529,208.493,0.151268
279.1000,-0.28581,209.045,0.159149
279.0000,0.377513,208.56,0.152224
278.9000,0.269128,208.867,0.15661
278.8000,0.382371,208.219,0.147346
278.7000,0.372744,208.686,0.154021
278.6000,-0.385364,208.887,0.156885
278.5000,2.10368,209.484,0.165399
278.4000,0.999153,208.897,0.157031
278.3000,0.0449596,208.811,0.155802
278.2000,-0.0886836,208.658,0.153617
278.1000,1.02154,208.802,0.155672
278.0000,-0.589973,208.727,0.154604
277.9000,-0.461542,209.443,0.164819
277.8000,0.725865,209.568,0.166593
277.7000,0.329645,208.58,0.152499
277.6000,1.15393,208.88,0.156788
277.5000,0.0349925,208.886,0.156869
277.4000,1.41876,208.458,0.150766
277.3000,2.2158,208.905,0.157144
277.2000,-0.135431,209.487,0.165448
277.1000,-0.730537,208.84,0.156222
277.0000,2.09142,209.278,0.162461
276.9000,1.33868,210.738,0.183219
276.8000,1.48284,209.165,0.160862
276.7000,0.407643,208.926,0.157451
276.6000,0.399854,209.017,0.158745
276.5000,-0.417957,207.998,0.144182
276.4000,0.0439605,208.448,0.15062
276.3000,1.06667,209.314,0.162978
276.2000,0.31087,208.45,0.150653
276.1000,-0.921272,210.91,0.185659
276.0000,-0.133749,208.352,0.149243
275.9000,0.765126,208.829,0.15606
275.8000,-0.606996,208.812,0.155818
275.7000,0.0381364,208.567,0.152321
275.6000,-0.104104,208.473,0.150977
275.5000,-0.545525,208.447,0.150604
275.4000,-0.381064,208.673,0.153827
275.3000,0.935436,207.627,0.138854
275.2000,0.004341,208.394,0.149842
275.1000,-1.64566,208.951,0.157807
275.0000,-0.374087,208.294,0.148416
274.9000,0.429672,208.781,0.155381
274.8000,0.818688,209.408,0.164318
274.7000,0.665604,209.441,0.164786
274.6000,-1.31705,208.212,0.147248
274.5000,0.0752219,208.814,0.15585
274.4000,-0.306398,208.76,0.155073
274.3000,0.819853,209.939,0.171881
274.2000,1.43369,208.452,0.150669
274.1000,0.726725,209.763,0.169367
274.0000,1.33343,208.744,0.154847
273.9000,0.719162,208.906,0.15716
273.8000,0.521013,208.261,0.147946
273.7000,0.36132,208.964,0.157985
273.6000,0.0641639,208.847,0.156319
273.5000,-0.0927632,208.556,0.152159
273.4000,-0.935655,209.122,0.160248
273.3000,-0.166948,209.159,0.160765
273.2000,0.336041,208.063,0.145107
273.1000,1.41685,209.559,0.166465
273.0000,1.63956,209.217,0.161605
272.9000,0.0668195,209.455,0.164996
272.8000,0.630731,208.65,0.153503
272.7000,-1.42201,209.442,0.164802
272.6000,0.122903,209.927,0.171704
272.5000,0.930897,208.771,0.155235
272.4000,-0.178355,208.125,0.146
272.3000,-0.654863,208.686,0.154021
272.2000,-0.168518,209.062,0.159392
272.1000,-0.338653,208.593,0.152694
272.0000,-1.09505,209.038,0.159052
271.9000,0.506604,209.913,0.17151
271.8000,0.892721,209.497,0.165593
271.7000,0.537533,208.719,0.154491
271.6000,0.2718,208.998,0.15847
271.5000,0.844853,209.283,0.162542
271.4000,-0.397593,209.36,0.16364
271.3000,-0.697825,208.409,0.150053
271.2000,-0.139557,209.78,0.169609
271.1000,-0.0260902,209.095,0.15986
271.0000,1.55892,209.038,0.159052
270.9000,-0.929849,209.172,0.160959
270.8000,-0.778371,208.785,0.155429
270.7000,0.0453824,208.998,0.15847
270.6000,-0.0972536,208.592,0.152677
270.5000,0.393012,208.948,0.157759
270.4000,-0.0276814,209.083,0.159683
270.3000,1.15824,208.76,0.155073
270.2000,0.462615,209.249,0.162058
270.1000,0.29433,209.18,0.161072
270.0000,0.649689,209.59,0.166916
269.9000,0.184002,209.778,0.169593
269.8000,1.538,208.929,0.157484
269.7000,0.74196,209.547,0.166303
269.6000,2.26124,209.332,0.163237
269.5000,2.05823,209.5,0.165625
269.4000,3.22857,209.072,0.159537
269.3000,0.551265,209.314,0.162978
269.2000,0.0931752,209.602,0.167077
269.1000,0.348588,210.024,0.173089
269.0000,-0.348859,209.37,0.163785
268.9000,1.69156,209.702,0.168513
268.8000,1.9873,209.77,0.16948
268.7000,-0.572547,209.622,0.167368
268.6000,-0.102252,209.408,0.164318
268.5000,0.288847,209.579,0.166755
268.4000,1.09847,209.273,0.162397
268.3000,1.1819,209.665,0.16798
268.2000,-0.533678,209.965,0.172251
268.1000,0.131977,210.311,0.17716
268.0000,-1.3019,209.827,0.170286
267.9000,-0.420136,210.1,0.174167
267.8000,-0.84166,210.105,0.174232
267.7000,0.547506,209.709,0.168609
267.6000,-0.235597,210.196,0.175536
267.5000,0.722753,209.5,0.165625
267.4000,2.36528,209.629,0.167465
267.3000,0.531634,210.041,0.17333
267.2000,2.52067,209.9,0.171317
267.1000,0.108677,209.82,0.170189
267.0000,-0.413348,209.233,0.161831
266.9000,0.000329817,210.2,0.175584
266.8000,2.05619,209.316,0.163011
266.7000,-0.539286,210.429,0.178833
266.6000,1.27163,209.35,0.163495
266.5000,1.7414,210.219,0.175857
266.4000,1.11972,209.748,0.169158
266.3000,-0.763362,209.99,0.172606
266.2000,-1.1144,209.241,0.161945
266.1000,-1.43001,209.6,0.167061
266.0000,0.702441,210.161,0.175037
265.9000,1.67627,209.579,0.166755
265.8000,-1.33751,209.739,0.169028
265.7000,-0.00687765,209.998,0.172718
265.6000,1.48816,210.038,0.173282
265.5000,-0.224844,210.843,0.184712
265.4000,-0.555078,210.296,0.176951
265.3000,-0.082446,211.421,0.192889
265.2000,1.24262,210.431,0.178865
265.1000,0.530232,210.839,0.184648
265.0000,2.23115,209.769,0.169464
264.9000,1.08697,209.99,0.172606
264.8000,0.139728,211.084,0.188114
264.7000,-0.483367,210.436,0.178929
264.6000,-0.218056,210.186,0.175391
264.5000,-0.028155,209.707,0.168577
264.4000,0.526266,210.854,0.184857
264.3000,-0.0258129,210.519,0.180119
264.2000,0.449958,210.575,0.180906
264.1000,-0.552275,210.309,0.177128
264.0000,-0.0497421,210.23,0.176018
263.9000,2.53335,210.596,0.181212
263.8000,-0.115127,211.318,0.191432
263.7000,-1.79199,210.08,0.173878
263.6000,-0.997491,210.813,0.184279
263.5000,2.14136,210.189,0.175423
263.4000,0.564473,209.76,0.169335
263.3000,-0.79692,211.365,0.192088
263.2000,-0.180846,209.408,0.164318
263.1000,-0.0216161,210.668,0.182224
263.0000,-0.630587,210.485,0.179637
262.9000,0.718835,209.894,0.171237
262.8000,-0.533273,210.819,0.184359
262.7000,0.800246,210.022,0.173056
262.6000,-0.2971,211.093,0.188242
262.5000,-0.835637,211.114,0.188547
262.4000,-1.2798,210.698,0.182657
262.3000,0.127097,211.084,0.188114
262.2000,1.19642,211.095,0.188274
262.1000,1.24492,211.519,0.194267
262.0000,0.915903,211.03,0.18736
261.9000,-0.130976,210.781,0.183829
261.8000,-1.40285,210.906,0.185595
261.7000,-0.286308,211.689,0.196667
261.6000,-0.133604,210.797,0.184054
261.5000,0.434347,211.496,0.193946
261.4000,1.364,211.035,0.187424
261.3000,0.316089,211.089,0.188194
261.2000,0.150912,211.229,0.190166
261.1000,1.49863,211.056,0.187729
261.0000,0.965994,210.934,0.185996
260.9000,0.350202,210.494,0.179765
260.8000,0.451284,210.94,0.186076
260.7000,-0.324738,211.403,0.192633
260.6000,1.10309,210.916,0.18574
260.5000,0.947834,211.265,0.190679
260.4000,1.71067,210.875,0.185162
260.3000,0.395357,211.544,0.194619
260.2000,0.534161,211.659,0.196251
260.1000,1.24098,212.027,0.201447
260.0000,-0.0362018,211.275,0.190823
259.9000,-0.674312,211.411,0.192745
259.8000,1.95435,210.898,0.185483
259.7000,-0.970209,211.573,0.195035
259.6000,0.765569,211.042,0.18752
259.5000,-0.0473932,211.521,0.194299
259.4000,0.324385,211.676,0.196491
259.3000,1.48887,211.358,0.191992
259.2000,0.334685,212.151,0.203189
259.1000,0.605299,212.075,0.202119
259.0000,0.122302,211.497,0.193962
258.9000,0.452008,211.927,0.200025
258.8000,0.058487,211.165,0.189268
258.7000,0.516927,211.316,0.1914
258.6000,-0.147389,212.159,0.203301
258.5000,0.374077,211.354,0.191945
258.4000,-0.368068,211.999,0.201048
258.3000,-0.171588,211.949,0.200345
258.2000,-1.17985,212.06,0.201911
258.1000,1.37994,212.21,0.204019
258.0000,0.635931,212.031,0.201495
257.9000,-2.10495,212.374,0.206333
257.8000,0.0159476,212.05,0.201767
257.7000,0.905342,211.582,0.195163
257.6000,0.166284,211.566,0.194939
257.5000,1.86759,212.4,0.2067
257.4000,0.802849,212.867,0.213268
257.3000,-0.0239375,212.192,0.203763
257.2000,-1.25788,211.297,0.191127
257.1000,1.94898,212.493,0.208008
257.0000,-0.35112,211.831,0.198682
256.9000,-0.593118,211.961,0.200505
256.8000,0.959333,212.363,0.206174
256.7000,1.39235,212.047,0.201719
256.6000,0.912447,211.979,0.20076
256.5000,-0.0482464,212.307,0.205392
256.4000,-0.418014,213.011,0.21529
256.3000,0.0297714,212.944,0.21435
256.2000,-0.883343,212.422,0.207003
256.1000,2.44055,212.127,0.202853
256.0000,0.365328,213.24,0.218503
255.9000,0.746022,212.439,0.207243
255.8000,1.26283,212.295,0.205216
255.7000,-0.311209,212.426,0.207067
255.6000,-0.193545,212.21,0.204019
255.5000,-0.114701,213.111,0.21669
255.4000,-0.162212,214.017,0.229396
255.3000,-0.361119,213.28,0.21906
255.2000,1.29576,213.414,0.220952
255.1000,-0.448714,213.01,0.215274
255.0000,1.71663,214.958,0.242533
254.9000,0.422077,212.596,0.209459
254.8000,-1.14675,212.644,0.210129
254.7000,1.58858,213.744,0.225573
254.6000,0.948442,213.15,0.217247
254.5000,1.29502,212.776,0.211993
254.4000,-0.376336,212.416,0.206924
254.3000,1.1396,213.298,0.219314
254.2000,1.91812,212.527,0.208487
254.1000,0.915972,213.294,0.219267
254.0000,0.492757,213.23,0.21836
253.9000,0.442308,213.314,0.219537
253.8000,1.32138,213.382,0.220491
253.7000,-0.917925,213.754,0.225716
253.6000,0.899715,212.641,0.210081
253.5000,-0.141863,212.74,0.211483
253.4000,0.359125,213.461,0.221603
253.3000,1.16805,213.523,0.222477
253.2000,-2.24927,213.507,0.222255
253.1000,0.624634,212.885,0.213523
253.0000,-0.168282,213.703,0.225002
252.9000,1.52722,213.614,0.223747
252.8000,0.845081,213.735,0.225446
252.7000,1.26799,213.493,0.222048
252.6000,-0.481573,212.703,0.210958
252.5000,-0.234324,213.417,0.220984
252.4000,0.698801,214.246,0.232598
252.3000,-0.802969,214.228,0.232344
252.2000,2.24305,213.582,0.223303
252.1000,0.644558,213.28,0.21906
252.0000,1.78597,214.193,0.231853
251.9000,1.10316,213.906,0.227842
251.8000,-0.820779,213.837,0.226875
251.7000,2.06475,214.427,0.235131
251.6000,0.416459,214.95,0.242422
251.5000,2.01358,214.797,0.240288
251.4000,-0.353403,214.251,0.232661
251.3000,-0.184698,213.238,0.218472
251.2000,1.33771,214.734,0.239419
251.1000,1.26649,214.014,0.229349
251.0000,0.895915,213.962,0.228619
250.9000,1.85806,213.913,0.227937
250.8000,-0.713324,214.06,0.229999
250.7000,0.660835,213.844,0.22697
250.6000,-0.655284,213.306,0.219426
250.5000,-0.0409868,214.507,0.236239
250.4000,-0.619602,214.387,0.234562
250.3000,0.474894,214.675,0.238597
250.2000,-0.135569,214.807,0.240431
250.1000,-1.7248,214.627,0.237916
250.0000,0.360231,214.329,0.233754
249.9000,-0.915006,214.579,0.237252
249.8000,1.15743,214.792,0.240225
249.7000,-1.02418,214.283,0.233121
249.6000,0.487351,215.027,0.243496
249.5000,-0.520748,215.341,0.247868
249.4000,-2.19739,214.867,0.241268
249.3000,0.955162,215.551,0.250801
249.2000,-1.22002,213.656,0.224335
249.1000,0.73586,214.495,0.236081
249.0000,0.202539,215.009,0.243243
248.9000,-0.056514,213.863,0.227239
248.8000,-0.759604,213.638,0.224081
248.7000,-0.467414,214.867,0.241268
248.6000,-0.934133,215.085,0.244301
248.5000,-0.313495,215.447,0.249351
248.4000,-0.308366,215.84,0.254818
248.3000,-1.15236,214.822,0.240636
248.2000,-1.64366,214.619,0.237806
248.1000,-0.214387,214.142,0.23114
248.0000,-0.987263,213.445,0.221381
247.9000,-0.712405,215.128,0.244901
247.8000,-1.49189,215.758,0.253669
247.7000,-1.00741,214.937,0.242248
247.6000,2.08015,217.12,0.272551
247.5000,-0.717805,214.143,0.231156
247.4000,-1.66944,214.986,0.242927
247.3000,-0.438977,216.288,0.261032
247.2000,0.476562,214.646,0.238185
247.1000,-1.89953,214.762,0.239798
247.0000,-1.74923,215.882,0.255401
246.9000,-0.534854,215.764,0.253763
246.8000,1.06973,216.835,0.268616
246.7000,-2.43045,214.875,0.241379
246.6000,-1.29292,216.792,0.26802
246.5000,-0.432774,215.863,0.255133
246.4000,-1.47386,216.08,0.258155
246.3000,-2.12683,215.626,0.251841
246.2000,-2.7216,216.61,0.265493
246.1000,-0.974607,215.198,0.24588
246.0000,-1.61164,215.879,0.255353
245.9000,-2.13312,215.818,0.254503
245.8000,0.444689,216.095,0.258359
245.7000,-0.946324,216.064,0.257919
245.6000,-1.78564,215.766,0.253779
245.5000,-0.220166,217.107,0.272379
245.4000,-2.29404,217.497,0.277765
245.3000,-2.68143,216.307,0.261299
245.2000,0.423009,216.935,0.269996
245.1000,-1.82952,216.494,0.263892
245.0000,-1.1473,216.759,0.267565
244.9000,-2.22933,217.191,0.273538
244.8000,-0.380562,216.952,0.270231
244.7000,-0.243629,216.681,0.266482
244.6000,-3.22789,217.167,0.273209
244.5000,-2.43898,216.44,0.263138
244.4000,-1.21168,216.454,0.263342
244.3000,-1.36622,216.317,0.261441
244.2000,-2.03648,216.508,0.26408
244.1000,-0.832833,215.879,0.255353
244.0000,-1.02413,218.672,0.293953
243.9000,-4.34593,215.721,0.253165
243.8000,-3.85842,216.636,0.265854
243.7000,-3.55722,216.074,0.25806
243.6000,-2.51461,216.884,0.269291
243.5000,-2.62365,217.926,0.28369
243.4000,-2.3915,218.205,0.28753
243.3000,-2.59553,217.608,0.279298
243.2000,-2.48451,218.248,0.288123
243.1000,-3.64998,218.278,0.288529
243.0000,-3.78467,217.606,0.279266
242.9000,-3.04501,218.334,0.289309
242.8000,-4.52972,219.182,0.300956
242.7000,-5.08174,218.676,0.294016
242.6000,-4.19635,218.161,0.286922
242.5000,-4.08881,218.88,0.296819
242.4000,-4.21796,218.472,0.291211
242.3000,-4.60344,217.369,0.275996
242.2000,-4.06943,218.625,0.293315
242.1000,-5.6095,218.578,0.292661
242.0000,-4.80794,217.824,0.282284
241.9000,-4.74116,219.005,0.29853
241.8000,-5.35092,219.076,0.29951
241.7000,-3.96071,219.08,0.299557
241.6000,-5.4206,218.82,0.295993
241.5000,-4.11963,219.954,0.311544
241.4000,-5.32587,219.662,0.307542
241.3000,-5.85076,218.836,0.296211
241.2000,-5.97035,219.254,0.301951
241.1000,-5.4933,219.377,0.303629
241.0000,-5.64723,218.256,0.288233
240.9000,-6.65738,220.102,0.313559
240.8000,-5.23457,219.51,0.305462
240.7000,-6.14608,218.151,0.286781
240.6000,-5.03686,219.523,0.305633
240.5000,-6.03386,219.403,0.303987
240.4000,-6.90335,220.105,0.313605
240.3000,-6.08335,220.955,0.325206
240.2000,-7.50087,219.695,0.307992
240.1000,-6.05125,220.34,0.316811
240.0000,-6.07877,219.532,0.305757
239.9000,-8.92673,220.421,0.317925
239.8000,-6.51758,221.143,0.327769
239.7000,-8.33356,220.067,0.313078
239.6000,-7.43278,219.621,0.306984
239.5000,-7.12433,221.652,0.334692
239.4000,-8.49225,221.136,0.327676
239.3000,-10.0446,221.305,0.329975
239.2000,-6.7842,222.347,0.344138
239.1000,-9.3361,221.274,0.329559
239.0000,-9.03193,221.899,0.338048
238.9000,-11.104,222.636,0.348053
238.8000,-8.43125,223.396,0.358322
238.7000,-7.82584,222.759,0.349711
238.6000,-9.25459,223.43,0.358781
238.5000,-10.7769,222.369,0.34443
238.4000,-11.9229,223.323,0.357342
238.3000,-10.106,224.36,0.371323
238.2000,-12.6239,222.131,0.341202
238.1000,-10.6968,223.407,0.358475
238.0000,-10.6083,223.685,0.362222
237.9000,-12.8772,223.103,0.354371
237.8000,-13.8608,223.806,0.363858
237.7000,-11.125,224.302,0.370545
237.6000,-12.6514,224.464,0.372726
237.5000,-11.6601,224.943,0.379168
237.4000,-13.3926,224.666,0.375438
237.3000,-9.88371,223.932,0.365554
237.2000,-11.8263,224.787,0.377068
237.1000,-13.9727,224.39,0.371735
237.0000,-13.4587,226.113,0.39484
236.9000,-13.1683,227.141,0.408572
236.8000,-13.7408,225.824,0.390974
236.7000,-13.7255,225.55,0.387301
236.6000,-16.0052,225.964,0.392854
236.5000,-14.648,226.984,0.406473
236.4000,-13.2093,226.475,0.399685
236.3000,-16.2651,225.517,0.38686
236.2000,-15.2397,226.135,0.395143
236.1000,-13.2142,228.619,0.428205
236.0000,-16.8717,227.403,0.412058
235.9000,-17.7468,227.839,0.41786
235.8000,-15.7755,227.556,0.414093
235.7000,-16.7899,226.987,0.406519
235.6000,-17.5719,227.468,0.412917
235.5000,-16.2666,229.067,0.434131
235.4000,-17.4207,229.179,0.435615
235.3000,-18.4383,228.413,0.425471
235.2000,-19.368,229.669,0.442098
235.1000,-18.4119,229.356,0.437952
235.0000,-19.9687,230.081,0.447524
234.9000,-20.4432,229.102,0.434596
234.8000,-21.9018,229.013,0.433427
234.7000,-19.6517,230.476,0.452733
234.6000,-20.3132,229.497,0.439824
234.5000,-22.3202,230.212,0.449256
234.4000,-22.6357,231.371,0.464498
234.3000,-20.4821,230.002,0.446493
234.2000,-22.9835,231.747,0.46943
234.1000,-22.874,231.58,0.467232
234.0000,-22.234,231.422,0.465167
233.9000,-23.072,230.708,0.45579
233.8000,-23.8223,231.259,0.463025
233.7000,-24.3582,232.779,0.482917
233.6000,-26.1232,232.791,0.48308
233.5000,-22.1481,233.041,0.486348
233.4000,-25.6784,232.926,0.48484
233.3000,-24.6406,233.767,0.495795
233.2000,-25.6955,233.609,0.493745
233.1000,-25.4335,234.544,0.505894
233.0000,-25.5445,233.931,0.497932
232.9000,-27.3055,234.374,0.503688
232.8000,-27.6966,234.878,0.510228
232.7000,-28.643,234.791,0.509097
232.6000,-29.3526,234.948,0.511138
232.5000,-29.5226,235.846,0.522747
232.4000,-28.7737,235.995,0.524678
232.3000,-30.9849,236.814,0.535239
232.2000,-30.0497,236.364,0.529429
232.1000,-29.9226,237.123,0.539204
232.0000,-29.7695,237.078,0.538635
231.9000,-30.2528,237.348,0.542102
231.8000,-29.6314,238.511,0.557008
231.7000,-32.2898,237.975,0.550143
231.6000,-33.3756,238.205,0.553091
231.5000,-31.5518,239.17,0.565437
231.4000,-33.1342,237.438,0.543252
231.3000,-32.3476,238.574,0.55782
231.2000,-34.6421,239.044,0.563831
231.1000,-34.0477,240.035,0.576458
231.0000,-33.1329,239.821,0.573731
230.9000,-32.533,240.787,0.586022
230.8000,-34.3399,240.027,0.576357
230.7000,-33.7898,240.572,0.583288
230.6000,-36.6349,239.964,0.575564
230.5000,-37.5066,240.891,0.587346
230.4000,-36.292,241.965,0.600953
230.3000,-36.722,240.597,0.583605
230.2000,-36.3488,242.475,0.607395
230.1000,-37.4682,241.459,0.594543
230.0000,-37.9676,244.415,0.631801
229.9000,-37.0837,243.077,0.614982
229.8000,-36.8303,242.882,0.612526
229.7000,-37.9913,243.262,0.617308
229.6000,-39.59,244.339,0.630849
229.5000,-41.3819,243.93,0.625715
229.4000,-41.0404,245.257,0.642343
229.3000,-43.3292,245.579,0.646365
229.2000,-38.9436,244.659,0.634855
229.1000,-42.9181,245.885,0.650184
229.0000,-41.1647,246.724,0.660646
228.9000,-40.6014,247.031,0.664465
228.8000,-41.2043,246.342,0.655892
228.7000,-45.4367,246.541,0.658361
228.6000,-46.2372,247.972,0.676136
228.5000,-44.7683,248.459,0.682169
228.4000,-44.8397,248.925,0.687925
228.3000,-43.5146,249.804,0.69877
228.2000,-47.6685,249.312,0.692709
228.1000,-45.2613,251.066,0.714283
228.0000,-42.4192,251.579,0.720573
227.9000,-44.6878,251.774,0.722958
227.8000,-45.4454,253.092,0.739047
227.7000,-44.1023,254.542,0.756675
227.6000,-43.5009,253.731,0.746825
227.5000,-48.6882,253.884,0.748684
227.4000,-46.8146,256.87,0.784789
227.3000,-44.5281,255.989,0.774179
227.2000,-45.8629,256.124,0.775806
227.1000,-46.8522,255.068,0.763045
227.0000,-47.5128,257.084,0.787365
226.9000,-49.9804,257.018,0.786575
226.8000,-48.7639,258.043,0.798875
226.7000,-49.4217,257.503,0.792403
226.6000,-49.5476,257.53,0.79273
226.5000,-49.3333,258.572,0.805214
226.4000,-52.618,260.762,0.831336
226.3000,-51.9488,260.434,0.827442
226.2000,-53.6161,261.058,0.83485
226.1000,-51.296,261.092,0.835253
226.0000,-53.5322,261.58,0.841047
225.9000,-53.6635,262.592,0.853022
225.8000,-51.6599,263.572,0.864586
225.7000,-55.6468,264.899,0.880184
225.6000,-51.1831,265.456,0.886717
225.5000,-53.4519,265.682,0.889357
225.4000,-47.4678,266.793,0.902342
225.3000,-53.9628,267.794,0.913992
225.2000,-53.966,268.727,0.924831
225.1000,-51.9283,269.329,0.931799
225.0000,-54.0967,268.204,0.918757
224.9000,-53.3499,271.28,0.954307
224.8000,-55.0275,271.9,0.961429
224.7000,-52.5574,272.839,0.972197
224.6000,-55.5295,273.519,0.979971
224.5000,-52.0099,274.318,0.989085
224.4000,-53.2593,275.412,1.00154
224.3000,-56.2985,275.513,1.00268
224.2000,-56.7225,276.772,1.01695
224.1000,-56.4805,278.109,1.03204
224.0000,-57.7053,278.983,1.04187
223.9000,-57.9717,279.008,1.04215
223.8000,-52.5759,280.128,1.05472
223.7000,-54.5735,282.193,1.07777
223.6000,-54.3873,281.362,1.06852
223.5000,-62.1162,283.078,1.08761
223.4000,-57.9959,285.056,1.10951
223.3000,-55.5923,287.298,1.13418
223.2000,-57.5328,288.13,1.14329
223.1000,-60.0643,288.951,1.15226
223.0000,-53.0555,289.331,1.1564
222.9000,-53.2224,291.866,1.18394
222.8000,-55.1356,292.645,1.19236
222.7000,-52.3572,293.718,1.20393
222.6000,-55.8894,294.622,1.21365
222.5000,-57.7943,296.881,1.23783
222.4000,-57.9289,297.906,1.24875
222.3000,-52.866,299.493,1.26561
222.2000,-55.554,300.594,1.27724
222.1000,-52.4714,302.632,1.29871
222.0000,-52.2432,303.389,1.30665
221.9000,-60.1432,304.703,1.3204
221.8000,-60.8195,305.983,1.33373
221.7000,-55.1083,307.663,1.35118
221.6000,-62.767,308.795,1.36288
221.5000,-58.568,311.713,1.39289
221.4000,-54.7523,312.971,1.40577
221.3000,-53.512,314.907,1.42548
221.2000,-60.7419,316.962,1.4463
221.1000,-52.7644,318.374,1.46054
221.0000,-53.8669,319.848,1.47535
220.9000,-57.8928,321.502,1.4919
220.8000,-56.489,323.33,1.51011
220.7000,-56.7491,324.395,1.52068
220.6000,-51.6244,328.372,1.55989
220.5000,-59.6481,329.834,1.5742
220.4000,-57.1095,331.673,1.59213
220.3000,-60.162,334.051,1.6152
220.2000,-52.6469,336.276,1.63665
220.1000,-53.3516,337.174,1.64527
220.0000,-56.1145,339.473,1.66727
219.9000,-53.1103,342.619,1.69717
219.8000,-53.2716,344.132,1.71147
219.7000,-58.4212,347.883,1.74669
219.6000,-49.9697,348.339,1.75095
219.5000,-54.8018,350.712,1.77304
219.4000,-55.7735,353,1.79423
219.3000,-51.4948,356.471,1.82614
219.2000,-47.7465,357.185,1.83268
219.1000,-54.3851,359.479,1.8536
219.0000,-52.3543,362.268,1.87887
218.9000,-44.0045,365.094,1.90432
218.8000,-45.1343,368.604,1.93571
218.7000,-49.6435,370.212,1.95
218.6000,-43.9687,372.533,1.97054
218.5000,-41.9731,375.678,1.99819
218.4000,-51.4544,379.843,2.03453
218.3000,-47.2472,381.98,2.05304
218.2000,-42.1978,384.81,2.07742
218.1000,-40.9921,389.259,2.11544
218.0000,-49.8797,391.354,2.13323
217.9000,-36.6854,394.809,2.16238
217.8000,-49.4137,397.69,2.18652
217.7000,-45.3515,400.956,2.21371
217.6000,-45.1703,404.938,2.24661
217.5000,-36.1372,408.464,2.27552
217.4000,-39.9742,412.187,2.30582
217.3000,-37.7379,416.904,2.34387
217.2000,-43.3395,419.484,2.36454
217.1000,-26.6931,424.908,2.40763
217.0000,-22.2105,427.288,2.42638
216.9000,-34.9063,432.15,2.46444
216.8000,-52.6246,435.757,2.49244
216.7000,-35.1549,439.724,2.52301
216.6000,-24.7124,443.811,2.55426
216.5000,-37.7578,448.141,2.58711
216.4000,-21.3435,450.764,2.60687
216.3000,-28.9111,454.742,2.63667
216.2000,-23.8453,458.744,2.66642
216.1000,-32.119,461.343,2.68563
216.0000,-33.2737,466.427,2.72294
215.9000,-35.9004,469.986,2.74885
215.8000,-16.3383,474.522,2.78163
215.7000,-30.3025,476.047,2.79259
215.6000,-22.1711,481.111,2.82878
215.5000,-21.9706,485.888,2.86263
215.4000,-17.3362,489.81,2.89021
215.3000,-21.9921,494.064,2.91991
215.2000,-26.7602,498.969,2.9539
215.1000,-6.92629,503.123,2.98245
215.0000,-24.1995,506.334,3.00439
214.9000,-11.3292,511.035,3.0363
214.8000,-23.4023,515.586,3.06696
214.7000,-22.5273,519.412,3.09255
214.6000,-19.6933,524.211,3.12443
214.5000,-26.8977,527.665,3.14721
214.4000,-20.2533,532.891,3.18146
214.3000,-7.86109,534.841,3.19416
214.2000,-5.90869,541.244,3.2356
214.1000,-23.2368,545.345,3.26193
214.0000,-28.6005,549.865,3.29075
213.9000,6.98993,554.174,3.31804
213.8000,-7.04772,559.827,3.35357
213.7000,-16.8241,563.14,3.37425
213.6000,-0.457407,567.035,3.39842
213.5000,-10.3409,571.342,3.425
213.4000,-12.2106,575.934,3.45315
213.3000,-27.5479,580.46,3.48071
213.2000,-18.421,585.124,3.50891
213.1000,-21.7087,588.116,3.52691
213.0000,-12.1887,592.074,3.55059
212.9000,8.33113,595.442,3.57064
212.8000,-1.35036,599.68,3.59573
212.7000,-6.48293,604.647,3.62494
212.6000,-23.1612,609.002,3.65039
212.5000,-8.70171,612.94,3.67327
212.4000,-10.2877,616.615,3.69451
212.3000,-6.43346,621.974,3.72528
212.2000,-12.9063,626.337,3.75018
212.1000,-3.70329,632.03,3.78243
212.0000,-24.508,635.502,3.80199
211.9000,8.35766,639.18,3.8226
211.8000,1.42074,644.296,3.8511
211.7000,-18.7666,649.084,3.87761
211.6000,-3.04969,651.089,3.88865
211.5000,-11.1679,654.399,3.90683
211.4000,-21.9005,659.359,3.93392
211.3000,-8.08928,662.032,3.94845
211.2000,3.63601,664.869,3.96382
211.1000,-0.934799,670.107,3.99204
211.0000,-4.27956,672.627,4.00555
210.9000,-2.29532,674.653,4.01638
210.8000,-9.58798,678.092,4.0347
210.7000,-14.0371,681.726,4.05397
210.6000,-9.71513,684.359,4.06788
210.5000,-10.8327,687.464,4.08423
210.4000,0.286184,690.673,4.10105
210.3000,-6.77721,693.671,4.11671
210.2000,-11.8996,697.528,4.13677
210.1000,-9.80937,698.903,4.14391
210.0000,-3.76206,701.533,4.15751
209.9000,-3.22739,703.77,4.16904
209.8000,-2.16946,707.853,4.19002
209.7000,-3.9002,708.431,4.19298
209.6000,-5.6731,712.031,4.21137
209.5000,8.74295,715.491,4.22898
209.4000,-5.1428,717.312,4.23822
209.3000,-5.51151,719.374,4.24865
209.2000,-7.91522,721.526,4.25951
209.1000,3.57114,723.95,4.27171
209.0000,-10.075,725.262,4.2783
208.9000,2.57121,726.522,4.28462
208.8000,-7.77358,728.399,4.29402
208.7000,-7.00111,729.777,4.30091
208.6000,0.687376,732.258,4.31328
208.5000,4.13962,732.161,4.31279
208.4000,0.0475003,732.493,4.31445
208.3000,12.0486,734.671,4.32527
208.2000,-25.3527,737.616,4.33986
208.1000,-12.5885,738.478,4.34413
208.0000,11.1474,740.456,4.35389
207.9000,-26.3306,742.713,4.36501
207.8000,8.00711,743.057,4.3667
207.7000,-3.67622,745.566,4.37902
207.6000,2.74667,745.853,4.38042
207.5000,13.3633,746.263,4.38243
207.4000,-1.84923,748.626,4.39399
207.3000,-10.5789,748.055,4.3912
207.2000,2.08989,749.877,4.40009
207.1000,6.78448,751.662,4.4088
207.0000,0.124146,751.564,4.40832
206.9000,-21.7722,752.113,4.41099
206.8000,-16.3007,753.158,4.41607
206.7000,5.43565,754.385,4.42203
206.6000,1.47791,755.058,4.42529
206.5000,-5.23063,755.45,4.4272
206.4000,2.59937,756.753,4.43351
206.3000,6.42033,756.428,4.43193
206.2000,4.63473,757.441,4.43683
206.1000,3.85948,758.023,4.43965
206.0000,-0.374319,759.894,4.44868
205.9000,-3.87268,759.64,4.44746
205.8000,4.69502,760.147,4.4499
205.7000,-1.56322,760.692,4.45253
205.6000,3.9424,762.151,4.45955
205.5000,9.88715,763.619,4.46661
205.4000,-4.17695,762.293,4.46023
205.3000,-18.4773,762.802,4.46269
205.2000,-14.0766,764.885,4.47269
205.1000,1.83646,764.506,4.47086
205.0000,1.57577,765.183,4.47411
204.9000,8.0212,765.158,4.47399
204.8000,8.3651,766.863,4.48216
204.7000,-5.0862,766.342,4.47967
204.6000,5.09381,766.48,4.48033
204.5000,-1.03251,767.098,4.48328
204.4000,2.10134,768.314,4.4891
204.3000,-13.4586,767.836,4.48681
204.2000,-2.2655,768.735,4.49111
204.1000,-6.16823,770.137,4.4978
204.0000,1.6281,770.189,4.49805
203.9000,9.5588,770.925,4.50156
203.8000,-5.68002,771.935,4.50636
203.7000,-12.7996,773.505,4.51383
203.6000,2.53643,772.807,4.51051
203.5000,16.6185,771.928,4.50633
203.4000,-5.71516,772.661,4.50982
203.3000,5.39655,773.864,4.51553
203.2000,6.87501,774.809,4.52001
203.1000,-8.39094,775.136,4.52157
203.0000,-14.8449,775.564,4.5236
202.9000,11.0142,776.536,4.5282
202.8000,-8.3942,777.034,4.53056
202.7000,-2.48665,776.74,4.52917
202.6000,0.700629,778.272,4.53641
202.5000,2.60379,779.898,4.54409
202.4000,-5.21131,778.568,4.53781
202.3000,3.09038,780.538,4.54711
202.2000,0.630357,781.028,4.54941
202.1000,-3.35099,783.07,4.55902
202.0000,8.19417,783.268,4.55995
201.9000,-11.0337,783.598,4.5615
201.8000,-20.9022,785.797,4.57182
201.7000,-3.98033,785.873,4.57218
201.6000,-4.53173,787.406,4.57936
201.5000,-1.19248,788.842,4.58607
201.4000,-4.69158,789.455,4.58893
201.3000,3.43197,790.451,4.59358
201.2000,-5.95841,792.299,4.60218
201.1000,5.97264,793.028,4.60558
201.0000,-9.58417,793.998,4.61009
200.9000,4.04726,795.099,4.6152
200.8000,0.43379,795.623,4.61763
200.7000,1.41207,798.007,4.62867
200.6000,-7.15319,799.937,4.63758
200.5000,-3.08828,800.63,4.64078
200.4000,0.72663,802.624,4.64997
200.3000,9.89292,802.978,4.6516
200.2000,0.399324,805.236,4.66197
200.1000,3.43172,807.116,4.67059
200.0000,2.19477,809.531,4.68164
199.9000,3.21424,810.477,4.68596
199.8000,13.7513,811.853,4.69223
199.7000,-4.17645,812.787,4.69649
199.6000,14.0559,815.182,4.70738
199.5000,1.94728,816.307,4.71248
199.4000,-0.965886,818.028,4.72028
199.3000,1.28311,818.952,4.72446
199.2000,0.274859,820.214,4.73017
199.1000,-8.53446,821.399,4.73552
199.0000,-7.73381,822.925,4.7424
198.9000,14.9239,824.784,4.75076
198.8000,-14.0962,825.97,4.75609
198.7000,-11.32,827.786,4.76424
198.6000,5.35934,829.576,4.77226
198.5000,-12,830.297,4.77548
198.4000,-5.26557,832.746,4.78641
198.3000,6.57687,833.921,4.79165
198.2000,7.91622,835.362,4.79806
198.1000,-5.1686,836.025,4.80101
198.0000,-6.25919,837.808,4.80893
197.9000,1.00898,838.612,4.81249
197.8000,1.04567,840.196,4.81951
197.7000,-10.5157,841.135,4.82366
197.6000,-14.1702,841.682,4.82608
197.5000,-2.51218,842.813,4.83107
197.4000,5.36598,843.27,4.83309
197.3000,-3.11751,844.741,4.83958
197.2000,-6.00008,846.174,4.84588
197.1000,-5.78451,846.197,4.84598
197.0000,-2.66316,846.348,4.84665
196.9000,22.1654,848.373,4.85554
196.8000,-3.97424,849.004,4.85831
196.7000,11.6727,849.234,4.85932
196.6000,16.71,850.884,4.86655
196.5000,-1.28073,851.312,4.86842
196.4000,-11.001,852.552,4.87384
196.3000,1.95793,853.224,4.87678
196.2000,-8.64707,853.973,4.88005
196.1000,-0.328057,854.12,4.88069
196.0000,1.53534,854.014,4.88023
195.9000,-4.40444,855.536,4.88686
195.8000,3.25924,855.645,4.88734
195.7000,-2.36867,856.496,4.89104
195.6000,-26.1755,856.037,4.88905
195.5000,10.628,856.88,4.89272
195.4000,-12.9817,857.924,4.89725
195.3000,-5.92681,857.531,4.89555
195.2000,-2.53241,858.364,4.89917
195.1000,-8.21791,858.814,4.90112
195.0000,11.4441,858.441,4.8995
194.9000,6.28711,860.114,4.90676
194.8000,-2.06351,859.252,4.90302
194.7000,1.02781,860.053,4.9065
194.6000,18.524,858.933,4.90164
194.5000,-3.78371,860.477,4.90834
194.4000,11.7657,860.922,4.91027
194.3000,18.1316,861.289,4.91186
194.2000,0.136499,861.143,4.91122
194.1000,-6.64629,860.568,4.90873
194.0000,-9.04853,862.356,4.91648
193.9000,-4.63549,860.907,4.9102
193.8000,4.76458,861.746,4.91384
193.7000,9.14456,863.134,4.91984
193.6000,-0.915278,863.542,4.92161
193.5000,-1.31283,864.061,4.92385
193.4000,-0.878097,864.644,4.92637
193.3000,-5.80571,864.102,4.92403
193.2000,13.7021,865.096,4.92832
193.1000,-2.738,863.936,4.92331
193.0000,6.48246,865.431,4.92976
192.9000,2.92892,865.423,4.92973
192.8000,-4.62872,865.686,4.93086
192.7000,5.66755,864.884,4.9274
192.6000,8.18357,865.728,4.93105
192.5000,6.4234,865.82,4.93144
192.4000,-2.4056,866.284,4.93344
192.3000,-4.41834,867.266,4.93767
192.2000,7.18179,866.608,4.93484
192.1000,5.80056,866.467,4.93423
192.0000,2.55021,868.13,4.94139
191.9000,-1.93506,867.603,4.93913
191.8000,14.8321,867.446,4.93845
191.7000,11.9613,867.49,4.93864
191.6000,9.63228,868.103,4.94128
191.5000,11.3517,868.08,4.94118
191.4000,2.32199,867.744,4.93973
191.3000,9.86664,868.968,4.94499
191.2000,3.95971,868.989,4.94509
191.1000,-10.1422,868.812,4.94433
191.0000,-4.3818,869.904,4.94902
190.9000,0.371982,868.619,4.94349
190.8000,5.67016,869.178,4.9459
190.7000,2.68586,868.288,4.94207
190.6000,-9.08549,870.282,4.95064
190.5000,-4.47091,870.118,4.94994
190.4000,2.3269,870.025,4.94954
190.3000,0.385523,869.369,4.94672
190.2000,1.19976,870.267,4.95058
190.1000,3.01855,870.856,4.95311
190.0000,-6.34217,870.069,4.94973

##### Extended Information
[Comments]
Sample name,TB_TH_KD_Protein and Additive 
Comment, Protein and Additive 
User,Tara_Tyler_Kimani
Division
Company,Saint Mary's College

[Detailed Information]
Creation date,9/29/2022 3:58 PM

Data array type,Linear data array * 3
Horizontal axis,Wavelength [nm]
Vertical axis(1),CD [mdeg]
Vertical axis(2),HT [V]
Vertical axis(3),Abs
Start,320 nm
End,190 nm
Data interval,0.1 nm
Data points,1301    

[Measurement Information]
Instrument name,J-1500
Model name,J-1500
Serial No.,B051061638

Detector,PM-539
Detector S/N,B051061638
  Lock-in amp.,X mode
  HT volt,Auto

Accessory,PTC-517
Accessory S/N,B026561646
  Temperature,21.88 C
  Control sensor,Holder
  Monitor sensor,Holder

Measurement date,9/29/2022 3:57 PM

CD Overload detect,944
Photometric mode,CD, HT, Abs
Measure range,320 - 190 nm
Data pitch,0.1 nm
CD scale,20 mdeg/0.05 dOD
FL scale,20 mdeg/0.05 dOD
D.I.T.,8 msec
Bandwidth,2.00 nm
Start mode,Immediately
Scanning mode,Continuous
Scanning speed,200 nm/min
Baseline correction,None
Shutter control,Auto
No. of cycle,1/1
N2 Flowmeter,Manual

Solvent,NaPO4 buffer

