TITLE,TB_TH_KD_Protein and Additive 
DATA TYPE,
ORIGIN,JASCO
OWNER,
DATE,22/09/29
TIME,16:59:09
SPECTROMETER/DATA SYSTEM,
LOCALE,1033
RESOLUTION,
DELTAX,-0.1
XUNITS,NANOMETERS
YUNITS,CD [mdeg]
Y2UNITS,HT [V]
Y3UNITS,ABSORBANCE
FIRSTX,  320.0000
LASTX,  190.0000
NPOINTS,    1301
FIRSTY,     0.84122
MAXY,    28.98565
MINY,   -60.63684
XYDATA
320.0000,0.84122,209.917,0.171559
319.9000,1.5097,209.667,0.168013
319.8000,1.05868,209.74,0.169045
319.7000,1.20319,209.896,0.171269
319.6000,1.00089,209.397,0.164157
319.5000,0.190402,210.079,0.173861
319.4000,-0.0539998,209.414,0.164399
319.3000,0.990008,209.165,0.160862
319.2000,1.84935,209.416,0.164431
319.1000,1.02511,208.781,0.155381
319.0000,2.82782,208.967,0.158034
318.9000,2.966,209.198,0.161331
318.8000,1.14326,209.4,0.164205
318.7000,1.69234,209.741,0.169061
318.6000,1.84277,208.89,0.156934
318.5000,1.01334,208.794,0.155559
318.4000,1.0827,209.193,0.16125
318.3000,2.37011,209.459,0.165045
318.2000,1.8871,209.4,0.164205
318.1000,0.774193,210.386,0.178222
318.0000,0.907497,209.315,0.162994
317.9000,2.54573,209.776,0.169561
317.8000,0.700003,210.207,0.17568
317.7000,0.0846295,208.808,0.155769
317.6000,1.56419,208.869,0.156627
317.5000,1.23147,209.563,0.166529
317.4000,0.611178,208.917,0.157322
317.3000,0.191258,210.711,0.182834
317.2000,0.852195,208.983,0.15826
317.1000,1.58206,208.977,0.158179
317.0000,2.01361,209.106,0.160022
316.9000,1.81576,208.629,0.153212
316.8000,1.52234,209.543,0.166239
316.7000,1.94213,209.722,0.168787
316.6000,-0.274712,208.219,0.147346
316.5000,0.725615,209.293,0.162688
316.4000,1.62924,208.044,0.144831
316.3000,2.25655,209.697,0.168432
316.2000,0.653576,210.94,0.186076
316.1000,1.76916,209.862,0.170785
316.0000,0.793811,209.978,0.172429
315.9000,1.18361,208.381,0.149664
315.8000,0.295545,209.738,0.169012
315.7000,0.153131,209.161,0.160797
315.6000,-0.276171,208.982,0.158244
315.5000,-0.0759573,208.927,0.157468
315.4000,0.920913,208.982,0.158244
315.3000,2.53052,209.338,0.163317
315.2000,1.51092,208.053,0.144961
315.1000,0.318748,208.854,0.156416
315.0000,1.73088,208.483,0.151123
314.9000,0.379708,208.762,0.155106
314.8000,-0.488947,207.935,0.143273
314.7000,0.548721,208.691,0.154086
314.6000,0.497583,208.939,0.157629
314.5000,2.64946,208.717,0.154458
314.4000,-2.00394,208.736,0.154733
314.3000,0.898063,208.77,0.155219
314.2000,1.53287,208.706,0.154313
314.1000,1.6065,209.102,0.159957
314.0000,2.4178,207.896,0.142721
313.9000,1.23252,209.21,0.161492
313.8000,2.18086,208.712,0.154393
313.7000,2.5352,209.435,0.164706
313.6000,1.90866,208.873,0.156691
313.5000,2.39922,209.034,0.158987
313.4000,2.37779,208.84,0.156222
313.3000,1.05866,208.083,0.145399
313.2000,1.62913,209.238,0.161896
313.1000,1.14396,208.639,0.153341
313.0000,0.323272,209.285,0.162574
312.9000,1.01701,209.178,0.16104
312.8000,2.21547,209.634,0.167545
312.7000,2.10218,208.5,0.151366
312.6000,2.11225,208.149,0.14634
312.5000,1.30347,208.954,0.15784
312.4000,0.882951,208.598,0.152758
312.3000,0.785907,208.205,0.147135
312.2000,0.935193,208.694,0.154135
312.1000,-0.276473,207.592,0.13835
312.0000,0.70787,208.739,0.154782
311.9000,1.65137,208.658,0.153617
311.8000,0.846369,209.031,0.158939
311.7000,0.11854,208.437,0.150458
311.6000,1.38919,208.504,0.151414
311.5000,1.27945,208.348,0.149194
311.4000,3.14913,208.717,0.154458
311.3000,2.2341,208.039,0.144766
311.2000,0.731884,208.653,0.153552
311.1000,0.771247,209.327,0.163172
311.0000,-0.0666631,209.472,0.165238
310.9000,0.664156,209.195,0.161282
310.8000,0.724948,208.821,0.155947
310.7000,0.894518,209.069,0.159489
310.6000,0.195948,209.526,0.165997
310.5000,2.54622,210.005,0.172815
310.4000,0.280198,208.828,0.156044
310.3000,-0.333085,208.348,0.149194
310.2000,3.26069,208.459,0.150782
310.1000,1.42125,208.513,0.151544
310.0000,2.07472,209.25,0.162074
309.9000,0.888658,209.258,0.162187
309.8000,1.1267,208.918,0.157338
309.7000,1.51982,209.253,0.162106
309.6000,2.57377,208.858,0.156481
309.5000,2.2095,209.138,0.160474
309.4000,1.17818,208.89,0.156934
309.3000,0.658154,208.654,0.153568
309.2000,1.35889,208.827,0.156028
309.1000,0.783156,209.187,0.161169
309.0000,0.215195,209.756,0.16927
308.9000,2.35149,208.93,0.1575
308.8000,0.436918,208.552,0.152111
308.7000,0.565244,209.177,0.161024
308.6000,0.852893,207.88,0.142493
308.5000,1.08995,208.316,0.148724
308.4000,1.5642,209.052,0.159246
308.3000,1.599,208.02,0.14449
308.2000,1.49291,208.368,0.149469
308.1000,1.02067,208.101,0.145659
308.0000,1.82503,208.473,0.150977
307.9000,0.913329,208.614,0.152985
307.8000,1.02716,209.018,0.158761
307.7000,0.234643,208.404,0.149988
307.6000,0.751623,209.044,0.159133
307.5000,0.516522,208.436,0.150442
307.4000,0.94091,209.63,0.167481
307.3000,0.727388,209.287,0.162591
307.2000,-0.0571151,207.781,0.141064
307.1000,-0.0552234,207.482,0.136773
307.0000,0.090784,209.153,0.160684
306.9000,2.02856,209.358,0.163608
306.8000,1.69158,208.089,0.14548
306.7000,0.857966,208.66,0.153649
306.6000,2.04718,208.304,0.148562
306.5000,0.71512,208.441,0.150523
306.4000,-1.52903,207.728,0.1403
306.3000,-0.532405,208.045,0.144847
306.2000,2.28647,208.575,0.152434
306.1000,0.297835,208.907,0.157177
306.0000,1.00235,208.365,0.149437
305.9000,0.888686,208.309,0.148627
305.8000,0.156996,208.29,0.148351
305.7000,-0.353138,208.588,0.152613
305.6000,-1.07873,208.763,0.155122
305.5000,1.2723,209.367,0.163737
305.4000,1.63638,208.144,0.146275
305.3000,1.56974,208.947,0.157743
305.2000,1.90137,208.92,0.157354
305.1000,0.918259,208.874,0.156707
305.0000,0.855782,210.028,0.173137
304.9000,2.25528,209.161,0.160797
304.8000,0.881444,209.018,0.158761
304.7000,1.59303,208.642,0.15339
304.6000,0.923105,209.021,0.15881
304.5000,0.805877,208.878,0.156756
304.4000,1.80764,208.5,0.151366
304.3000,2.73302,208.476,0.151025
304.2000,1.09229,208.896,0.157015
304.1000,0.241794,209.616,0.167287
304.0000,1.72431,208.667,0.153746
303.9000,0.7362,208.294,0.148416
303.8000,2.32512,207.874,0.142396
303.7000,1.91221,209.111,0.160087
303.6000,1.59052,208.954,0.15784
303.5000,2.60548,208.389,0.149778
303.4000,-0.39507,208.427,0.150312
303.3000,-0.0287011,208.001,0.144215
303.2000,1.79419,207.75,0.140625
303.1000,0.501857,209.046,0.159165
303.0000,0.710512,208.811,0.155802
302.9000,2.16183,208.424,0.15028
302.8000,0.778244,208.52,0.151641
302.7000,-0.91602,207.811,0.141503
302.6000,2.10892,208.972,0.158098
302.5000,0.480317,209.386,0.164011
302.4000,0.930617,208.129,0.146048
302.3000,-0.135234,208.748,0.154912
302.2000,1.99896,208.106,0.145724
302.1000,1.55933,207.888,0.142607
302.0000,1.59523,208.857,0.156465
301.9000,1.84057,208.166,0.146583
301.8000,2.54997,207.739,0.140463
301.7000,1.25113,207.819,0.141617
301.6000,1.27852,208.256,0.147865
301.5000,2.14371,208.086,0.145432
301.4000,2.5772,208.2,0.14707
301.3000,0.879698,208.558,0.152192
301.2000,1.46819,208.898,0.157047
301.1000,-0.282197,208.685,0.154005
301.0000,0.430117,208.007,0.144312
300.9000,1.34111,208.285,0.148286
300.8000,1.99205,207.828,0.141746
300.7000,2.14447,208.233,0.14754
300.6000,0.0694659,208.571,0.15237
300.5000,1.15157,208.484,0.151139
300.4000,-0.314022,209.339,0.163333
300.3000,0.766181,207.64,0.139049
300.2000,0.594178,208.433,0.15041
300.1000,0.477175,208.084,0.145415
300.0000,1.99277,208.199,0.147054
299.9000,1.46152,208.446,0.150588
299.8000,0.451552,207.902,0.142802
299.7000,1.45526,208.299,0.148481
299.6000,-0.0875206,207.84,0.141909
299.5000,0.676645,208.91,0.157225
299.4000,1.3316,207.885,0.142558
299.3000,0.175192,207.537,0.13757
299.2000,1.49367,208.623,0.153114
299.1000,-0.032961,207.443,0.13622
299.0000,1.75103,208.95,0.157791
298.9000,0.643858,207.959,0.143614
298.8000,1.56586,208.071,0.145221
298.7000,-0.248405,208.019,0.144474
298.6000,1.81775,208.222,0.147378
298.5000,1.81971,208.28,0.148221
298.4000,0.923249,207.633,0.138952
298.3000,1.72796,208.761,0.15509
298.2000,2.20537,207.342,0.134771
298.1000,-0.153509,207.979,0.143906
298.0000,1.4392,208.043,0.144815
297.9000,1.73554,208.161,0.146519
297.8000,0.524894,207.958,0.143598
297.7000,1.89958,208.566,0.152305
297.6000,1.38334,207.958,0.143598
297.5000,2.93576,207.959,0.143614
297.4000,0.454167,207.337,0.13469
297.3000,1.07485,208.696,0.154167
297.2000,1.37456,208.482,0.151106
297.1000,1.60998,207.732,0.140365
297.0000,-1.22169,207.304,0.134218
296.9000,0.974535,207.973,0.143825
296.8000,0.522566,207.247,0.133404
296.7000,1.54668,207.098,0.131255
296.6000,0.228069,207.954,0.143549
296.5000,1.98048,207.843,0.141958
296.4000,-0.245717,208.245,0.147719
296.3000,1.17207,208.26,0.147929
296.2000,-0.8577,208.566,0.152305
296.1000,0.52687,208.274,0.148124
296.0000,1.395,208.073,0.145253
295.9000,2.31732,206.806,0.127066
295.8000,1.24964,208.534,0.151851
295.7000,1.87541,207.644,0.139098
295.6000,0.700186,208.184,0.146843
295.5000,1.44468,208.114,0.145837
295.4000,2.08485,208.423,0.150264
295.3000,1.83674,208.3,0.148497
295.2000,1.85282,207.369,0.135162
295.1000,1.49499,207.386,0.135406
295.0000,1.43014,208.28,0.148221
294.9000,1.84019,208.19,0.146924
294.8000,0.626041,208.012,0.144377
294.7000,0.253651,208.351,0.149226
294.6000,1.38767,208.009,0.144328
294.5000,0.0769617,207.414,0.135797
294.4000,0.557327,207.635,0.138968
294.3000,-0.0723092,207.93,0.143208
294.2000,1.63928,207.247,0.133404
294.1000,1.66349,208.206,0.147151
294.0000,0.194364,208.286,0.148302
293.9000,2.33755,208.363,0.149405
293.8000,1.30098,207.993,0.144101
293.7000,0.46841,207.843,0.141958
293.6000,0.85824,208.266,0.14801
293.5000,-0.415137,207.792,0.141227
293.4000,0.839847,208.286,0.148302
293.3000,0.26084,207.848,0.142023
293.2000,1.1374,207.754,0.140674
293.1000,1.0371,207.666,0.139423
293.0000,-0.762801,207.716,0.140138
292.9000,0.871019,208.147,0.146308
292.8000,2.63529,207.615,0.138692
292.7000,2.27329,208.986,0.158309
292.6000,1.50307,207.856,0.142136
292.5000,0.444326,207.495,0.136968
292.4000,2.29527,208.393,0.149826
292.3000,0.345464,207.042,0.130456
292.2000,1.24433,207.009,0.129984
292.1000,0.783252,208.084,0.145415
292.0000,-0.574666,208.386,0.149729
291.9000,0.322186,208.56,0.152224
291.8000,0.794326,207.403,0.13565
291.7000,0.285459,207.911,0.142932
291.6000,-0.695359,207.03,0.130277
291.5000,-0.659923,207.444,0.136236
291.4000,1.59844,207.601,0.13848
291.3000,0.449342,207.533,0.137505
291.2000,0.0783099,207.347,0.134837
291.1000,0.898252,208.092,0.145529
291.0000,1.39866,208.129,0.146048
290.9000,-0.00478153,207.134,0.131776
290.8000,2.06005,207.918,0.143029
290.7000,1.6558,207.783,0.141097
290.6000,0.689057,208.126,0.146016
290.5000,1.01013,207.479,0.13674
290.4000,1.2318,207.453,0.136366
290.3000,2.89025,208.54,0.151932
290.2000,2.23653,207.605,0.138545
290.1000,1.29843,208.232,0.147524
290.0000,1.31229,207.911,0.142932
289.9000,-0.0860953,206.951,0.129152
289.8000,1.1405,209.215,0.161573
289.7000,0.0723111,207.989,0.144052
289.6000,1.34826,207.414,0.135797
289.5000,2.03006,209.48,0.165351
289.4000,0.820172,207.689,0.139748
289.3000,1.81882,209.292,0.162671
289.2000,1.35503,208.14,0.14621
289.1000,0.727167,208.388,0.149761
289.0000,0.605522,207.623,0.138805
288.9000,0.841992,208.188,0.146892
288.8000,-0.510337,208.314,0.148708
288.7000,1.38166,207.956,0.143581
288.6000,2.59026,207.985,0.143987
288.5000,0.908046,207.482,0.136773
288.4000,0.563609,207.755,0.14069
288.3000,0.582514,207.656,0.139277
288.2000,0.934531,208.54,0.151932
288.1000,1.47761,206.943,0.129039
288.0000,0.371619,208.583,0.152548
287.9000,2.60448,208.498,0.151333
287.8000,1.31757,208.387,0.149745
287.7000,0.0853805,209,0.158502
287.6000,1.97911,207.718,0.140171
287.5000,1.68225,208.295,0.148432
287.4000,3.35426,210.241,0.176163
287.3000,1.60975,208.654,0.153568
287.2000,0.184171,208.546,0.152013
287.1000,0.0376442,207.962,0.143663
287.0000,0.962859,208.466,0.15088
286.9000,0.713326,208.527,0.151754
286.8000,1.00773,208.489,0.151204
286.7000,0.604516,208.704,0.15428
286.6000,2.85963,208.385,0.149713
286.5000,1.09177,209.036,0.15902
286.4000,1.17439,208.109,0.145772
286.3000,0.573392,208.802,0.155672
286.2000,1.95383,208.72,0.154507
286.1000,0.650624,207.893,0.142672
286.0000,1.76521,207.978,0.14389
285.9000,0.117138,208.442,0.150539
285.8000,-0.293073,208.884,0.156853
285.7000,1.18907,209.02,0.158794
285.6000,0.829701,208.367,0.149453
285.5000,-0.197843,208.658,0.153617
285.4000,0.856406,208.503,0.151398
285.3000,2.01175,208.014,0.144409
285.2000,0.0176359,208.491,0.151236
285.1000,-0.237268,208.784,0.155413
285.0000,1.45308,209.003,0.158551
284.9000,0.889688,208.382,0.14968
284.8000,-0.0464808,208.28,0.148221
284.7000,-1.18579,208.739,0.154782
284.6000,0.712679,208.195,0.147005
284.5000,0.49215,207.509,0.137163
284.4000,0.683028,208.325,0.148854
284.3000,-0.0724284,208.697,0.154183
284.2000,-0.51713,208.711,0.154377
284.1000,0.862033,208.858,0.156481
284.0000,1.56925,209.273,0.162397
283.9000,1.05254,208.211,0.147232
283.8000,1.82754,208.461,0.150798
283.7000,-0.2563,208.893,0.156982
283.6000,0.41916,209.044,0.159133
283.5000,-2.04866,208.141,0.146226
283.4000,1.26179,208.617,0.153034
283.3000,0.674869,208.801,0.155656
283.2000,1.01706,208.74,0.154798
283.1000,0.425772,208.811,0.155802
283.0000,0.449495,208.575,0.152434
282.9000,0.986698,208.691,0.154086
282.8000,-0.0702063,208.552,0.152111
282.7000,0.797028,208.639,0.153341
282.6000,1.25914,208.801,0.155656
282.5000,1.51362,207.81,0.141486
282.4000,-0.639196,208.432,0.150393
282.3000,0.67601,208.818,0.155899
282.2000,0.145568,208.463,0.150831
282.1000,0.232627,208.246,0.147735
282.0000,0.250172,208.682,0.153957
281.9000,1.08485,209.18,0.161072
281.8000,0.160736,208.768,0.155187
281.7000,0.802827,209.22,0.161638
281.6000,1.54064,209.321,0.163075
281.5000,2.03663,209.05,0.159214
281.4000,1.09002,208.867,0.15661
281.3000,1.56895,209.828,0.170302
281.2000,1.68316,208.569,0.152354
281.1000,1.2657,207.936,0.143289
281.0000,0.69172,208.134,0.146129
280.9000,2.30785,208.761,0.15509
280.8000,-0.559281,207.931,0.143224
280.7000,1.50428,208.045,0.144847
280.6000,1.29325,209.215,0.161573
280.5000,0.865566,208.625,0.153147
280.4000,0.147314,208.52,0.151641
280.3000,0.531152,208.28,0.148221
280.2000,1.78203,209.062,0.159392
280.1000,0.670918,208.725,0.154571
280.0000,2.34444,208.586,0.152596
279.9000,0.936712,208.67,0.153795
279.8000,0.308722,208.152,0.146389
279.7000,0.0275018,207.964,0.143695
279.6000,1.6794,208.786,0.155445
279.5000,1.77846,208.319,0.148773
279.4000,0.768745,209.341,0.163366
279.3000,2.48813,208.233,0.14754
279.2000,-0.122216,209.233,0.161831
279.1000,0.390177,208.403,0.149972
279.0000,2.3409,208.973,0.158114
278.9000,-0.0671357,208.948,0.157759
278.8000,0.811794,208.194,0.146989
278.7000,-1.46478,208.67,0.153795
278.6000,0.533729,209.309,0.162914
278.5000,-2.67972,208.226,0.147443
278.4000,1.18865,209.001,0.158519
278.3000,0.686214,208.763,0.155122
278.2000,1.8046,208.825,0.156012
278.1000,-0.260575,208.771,0.155235
278.0000,1.54922,209.063,0.159408
277.9000,2.05554,208.657,0.1536
277.8000,2.04474,209.228,0.161751
277.7000,-0.681058,208.557,0.152175
277.6000,1.60063,208.847,0.156319
277.5000,1.64869,209.589,0.1669
277.4000,-0.116845,209.244,0.161977
277.3000,0.362117,208.585,0.15258
277.2000,-0.0991085,209.317,0.163027
277.1000,-0.329177,208.464,0.150847
277.0000,1.37589,208.777,0.155316
276.9000,1.15976,209.106,0.160022
276.8000,0.441856,208.915,0.15729
276.7000,1.60616,208.808,0.155769
276.6000,1.10669,209.194,0.161266
276.5000,0.346509,209.177,0.161024
276.4000,0.416129,209.52,0.165916
276.3000,1.38943,209.471,0.165222
276.2000,-0.271013,208.169,0.146632
276.1000,0.652701,208.866,0.156594
276.0000,0.664572,209.769,0.169464
275.9000,1.0639,208.372,0.149534
275.8000,0.0604017,207.947,0.143451
275.7000,1.02797,208.997,0.158454
275.6000,0.475867,208.793,0.155542
275.5000,-0.0971318,208.628,0.153195
275.4000,0.413093,208.966,0.158017
275.3000,0.540198,208.64,0.153357
275.2000,0.0247131,208.694,0.154135
275.1000,0.430095,208.558,0.152192
275.0000,1.67303,209.08,0.15965
274.9000,0.985624,208.393,0.149826
274.8000,-0.763416,208.62,0.153082
274.7000,0.838664,208.606,0.152872
274.6000,0.302662,209.459,0.165045
274.5000,0.344248,208.626,0.153163
274.4000,1.44603,208.274,0.148124
274.3000,0.282405,209.16,0.160781
274.2000,1.02544,209.169,0.160911
274.1000,0.773047,208.118,0.145902
274.0000,1.00564,208.571,0.15237
273.9000,0.389042,208.165,0.146567
273.8000,-1.52579,208.565,0.152289
273.7000,1.20347,208.646,0.153455
273.6000,-0.172402,208.488,0.151187
273.5000,-0.361931,209.546,0.166287
273.4000,1.4407,209.363,0.163672
273.3000,-0.350909,209.262,0.162235
273.2000,2.91718,209.224,0.161702
273.1000,-0.461645,208.381,0.149664
273.0000,-1.44363,208.52,0.151641
272.9000,2.05354,209.193,0.16125
272.8000,0.525901,209.568,0.166593
272.7000,-1.14768,208.07,0.145204
272.6000,-1.34278,208.941,0.157662
272.5000,0.507025,208.941,0.157662
272.4000,-0.425103,209.136,0.160442
272.3000,-0.299649,208.992,0.158389
272.2000,0.448928,208.403,0.149972
272.1000,0.126873,209.088,0.159763
272.0000,1.89264,208.58,0.152499
271.9000,1.63455,209.156,0.160733
271.8000,1.92966,208.831,0.156093
271.7000,0.792534,209.477,0.165303
271.6000,1.07822,208.668,0.153762
271.5000,-0.392816,209.356,0.163576
271.4000,-1.01749,209.841,0.170479
271.3000,1.35254,208.742,0.154814
271.2000,-0.505728,209.025,0.158858
271.1000,-1.86288,208.805,0.155721
271.0000,-0.233918,209.034,0.158987
270.9000,0.0515973,208.594,0.15271
270.8000,0.188931,208.916,0.157306
270.7000,-0.991081,209.18,0.161072
270.6000,0.927795,209.16,0.160781
270.5000,0.0846834,208.803,0.155688
270.4000,0.797872,209.067,0.159456
270.3000,1.81761,209.502,0.165658
270.2000,0.706709,209.146,0.160588
270.1000,-1.30572,209.452,0.164948
270.0000,0.960639,209.065,0.159424
269.9000,1.92615,208.853,0.1564
269.8000,2.01517,209.673,0.168094
269.7000,-0.381857,209.411,0.164367
269.6000,0.018507,209.688,0.168303
269.5000,1.07636,209.605,0.167126
269.4000,0.847098,210.199,0.175568
269.3000,-0.89181,210.039,0.173298
269.2000,0.638184,209.844,0.170528
269.1000,0.895709,209.573,0.166674
269.0000,1.14134,210.012,0.172912
268.9000,0.847967,209.776,0.169561
268.8000,-0.626447,208.849,0.156351
268.7000,-0.0712927,209.843,0.170511
268.6000,-1.49437,210.014,0.172944
268.5000,1.80767,209.602,0.167077
268.4000,0.931752,209.504,0.16569
268.3000,0.810367,208.625,0.153147
268.2000,0.574511,209.697,0.168432
268.1000,1.67515,209.215,0.161573
268.0000,-0.400367,208.927,0.157468
267.9000,-0.354949,210.066,0.173684
267.8000,0.115466,209.716,0.168706
267.7000,0.701174,209.631,0.167497
267.6000,-0.371542,209.832,0.17035
267.5000,-1.38337,210.006,0.172831
267.4000,1.19982,210.91,0.185659
267.3000,-0.514982,210.122,0.174473
267.2000,-0.218068,209.497,0.165593
267.1000,-0.00572399,209.753,0.169238
267.0000,0.49121,209.492,0.165513
266.9000,0.881575,209.224,0.161702
266.8000,-0.343195,209.403,0.164254
266.7000,-0.0944193,210.593,0.181163
266.6000,-0.14573,209.884,0.171091
266.5000,-0.355855,210.166,0.175101
266.4000,0.298534,209.87,0.170898
266.3000,0.34631,210.576,0.180922
266.2000,-0.338214,209.915,0.171543
266.1000,1.10274,210.107,0.174264
266.0000,1.34945,209.625,0.167416
265.9000,-0.272718,210.22,0.175873
265.8000,1.15072,209.327,0.163172
265.7000,0.650927,210.558,0.180665
265.6000,-0.954851,210.526,0.180215
265.5000,-0.907385,209.792,0.169786
265.4000,0.221231,209.777,0.169577
265.3000,-1.17071,210.642,0.181854
265.2000,-0.45433,209.794,0.169818
265.1000,1.36213,210.625,0.181613
265.0000,0.304689,209.974,0.17238
264.9000,0.5634,210.502,0.179878
264.8000,0.660245,210.359,0.177836
264.7000,-0.673155,210.115,0.174377
264.6000,0.788862,210.185,0.175375
264.5000,1.0476,210.371,0.178013
264.4000,0.237877,210.645,0.181902
264.3000,-0.318641,209.914,0.171526
264.2000,1.43117,210.749,0.18338
264.1000,-0.343318,210.479,0.17954
264.0000,0.854405,210.301,0.177016
263.9000,1.90839,211.341,0.191752
263.8000,0.541304,210.745,0.183316
263.7000,2.17558,210.77,0.183669
263.6000,1.47326,210.397,0.178383
263.5000,0.689835,209.937,0.171849
263.4000,-0.465361,210.604,0.181324
263.3000,-1.43773,210.514,0.180038
263.2000,0.261078,210.66,0.182111
263.1000,-0.169835,211.645,0.196043
263.0000,1.26697,210.575,0.180906
262.9000,0.276167,211.271,0.190759
262.8000,0.425457,210.672,0.182288
262.7000,2.12308,212.29,0.205152
262.6000,-1.10354,211.481,0.193738
262.5000,-0.498363,209.581,0.166787
262.4000,0.633617,211.649,0.196107
262.3000,2.05176,212.063,0.201943
262.2000,1.88102,210.644,0.181886
262.1000,-0.5722,211.479,0.193706
262.0000,-0.783529,210.849,0.184793
261.9000,-0.675969,210.953,0.186269
261.8000,0.731553,211.603,0.195451
261.7000,-0.752992,210.846,0.184745
261.6000,1.09643,208.76,0.155073
261.5000,0.83894,211.117,0.188579
261.4000,1.6652,210.726,0.183043
261.3000,0.0970441,210.643,0.18187
261.2000,0.242212,210.789,0.183942
261.1000,-0.676145,211.345,0.191816
261.0000,0.40234,209.614,0.167255
260.9000,-0.172624,211.226,0.190134
260.8000,-0.671469,211.34,0.191736
260.7000,-0.885939,212.072,0.202071
260.6000,0.938064,211.79,0.198091
260.5000,0.260266,210.822,0.184408
260.4000,-0.0258271,211.488,0.193834
260.3000,-0.50778,211.963,0.200537
260.2000,0.352247,212.367,0.206238
260.1000,-0.199487,211.43,0.193018
260.0000,1.36993,211.249,0.190454
259.9000,2.26251,211.415,0.192793
259.8000,-1.65288,212.051,0.201783
259.7000,0.370197,210.605,0.18134
259.6000,-0.884838,211.879,0.199354
259.5000,-0.548789,212.349,0.205982
259.4000,0.530928,211.635,0.195915
259.3000,0.256753,211.835,0.19873
259.2000,0.828619,211.706,0.196907
259.1000,-0.54439,211.538,0.194539
259.0000,1.51279,211.512,0.19417
258.9000,1.5679,211.606,0.195499
258.8000,0.744031,211.625,0.195771
258.7000,0.350876,211.429,0.193002
258.6000,-0.653307,212.167,0.203412
258.5000,-0.124338,212.078,0.202166
258.4000,1.19071,211.22,0.190038
258.3000,-1.07248,212.786,0.212121
258.2000,-1.50625,213.119,0.216801
258.1000,1.87009,212.8,0.212328
258.0000,2.4829,212.43,0.207115
257.9000,-0.180898,213.395,0.220681
257.8000,0.135756,212.475,0.207753
257.7000,0.960835,212.553,0.208853
257.6000,-0.431823,210.783,0.183862
257.5000,1.6779,212.818,0.212583
257.4000,-1.14434,212.669,0.21048
257.3000,0.309515,213.297,0.219298
257.2000,0.691824,211.809,0.198363
257.1000,-0.497856,213.013,0.215321
257.0000,-0.125909,212.09,0.202326
256.9000,1.36836,211.991,0.200936
256.8000,0.448775,212.838,0.212853
256.7000,-0.787422,213.895,0.227684
256.6000,-1.06267,211.478,0.19369
256.5000,-0.301727,212.15,0.203173
256.4000,2.40287,211.527,0.194379
256.3000,0.187744,210.849,0.184793
256.2000,-0.992481,212.277,0.204961
256.1000,-0.190532,211.543,0.194603
256.0000,-1.26313,211.977,0.200728
255.9000,0.091933,212.852,0.213061
255.8000,-0.436463,212.519,0.208375
255.7000,-1.71261,213.012,0.215305
255.6000,1.27168,213.011,0.21529
255.5000,-0.0968439,213.596,0.223493
255.4000,0.695475,213.493,0.222048
255.3000,0.652347,211.281,0.190903
255.2000,0.388676,212.663,0.2104
255.1000,-1.08805,212.396,0.206636
255.0000,0.958899,213.09,0.216404
254.9000,1.56053,213.213,0.218122
254.8000,1.22798,212.67,0.210496
254.7000,1.07414,212.245,0.204514
254.6000,-0.394001,213.478,0.221841
254.5000,-0.297532,211.681,0.196555
254.4000,0.281187,212.992,0.215019
254.3000,1.00067,214.078,0.230252
254.2000,-1.28547,212.958,0.214542
254.1000,-0.711728,213.086,0.21634
254.0000,0.887809,212.945,0.214366
253.9000,0.206451,213.539,0.222699
253.8000,0.3886,213.52,0.222429
253.7000,-0.458625,213.798,0.226335
253.6000,0.459214,213.231,0.218376
253.5000,-2.13235,213.017,0.215369
253.4000,-0.481563,213.114,0.216738
253.3000,0.0789729,213.988,0.228984
253.2000,-0.158938,214.219,0.232217
253.1000,0.448731,212.63,0.209938
253.0000,0.292569,214.706,0.239023
252.9000,-0.669066,214.242,0.232534
252.8000,1.53787,214.585,0.237331
252.7000,-0.824031,214.164,0.231457
252.6000,0.141439,213.222,0.218249
252.5000,2.84139,213.81,0.226494
252.4000,-0.451881,214.209,0.232075
252.3000,0.670738,213.776,0.226018
252.2000,-0.654208,214.427,0.235131
252.1000,-0.801975,214.024,0.229492
252.0000,0.268577,214.23,0.232376
251.9000,0.979058,213.959,0.228588
251.8000,0.253607,213.632,0.224002
251.7000,-1.57527,212.844,0.212949
251.6000,0.165764,214.001,0.229174
251.5000,1.64068,213.894,0.227668
251.4000,1.11547,214.295,0.233279
251.3000,0.516009,214.029,0.229555
251.2000,-0.250748,213.917,0.228001
251.1000,0.934694,213.983,0.228921
251.0000,1.81349,214.044,0.229777
250.9000,-0.498708,214.579,0.237252
250.8000,-1.00604,214.24,0.232518
250.7000,-1.06154,214.432,0.235195
250.6000,0.526664,213.911,0.227906
250.5000,-1.89225,214.081,0.230284
250.4000,2.0437,214.137,0.231077
250.3000,0.565225,213.962,0.228619
250.2000,0.0394416,214.748,0.239609
250.1000,1.03336,214.698,0.238913
250.0000,0.0964597,214.056,0.229935
249.9000,1.37557,215.057,0.243922
249.8000,-0.0662759,214.916,0.241948
249.7000,0.064336,213.939,0.228302
249.6000,0.782019,215.347,0.247963
249.5000,0.353769,214.297,0.23331
249.4000,2.14714,215.023,0.243448
249.3000,1.84355,214.705,0.239008
249.2000,0.529419,215.134,0.244996
249.1000,0.203992,216.096,0.258375
249.0000,1.00624,214.836,0.240842
248.9000,-1.18255,214.376,0.234419
248.8000,-1.43223,215.181,0.245643
248.7000,1.04945,214.816,0.240557
248.6000,-0.319565,214.413,0.234925
248.5000,0.387409,214.242,0.232534
248.4000,-1.09273,215.372,0.24831
248.3000,-0.187011,215.25,0.246606
248.2000,-0.124097,213.772,0.22597
248.1000,-0.225568,214.746,0.239577
248.0000,-0.432814,214.99,0.24299
247.9000,-0.640679,216.06,0.257871
247.8000,-0.330217,214.596,0.237489
247.7000,0.37216,215.622,0.251778
247.6000,-1.53605,214.498,0.236113
247.5000,-0.50489,215.972,0.256644
247.4000,-2.40786,215.33,0.247726
247.3000,-2.24546,215.735,0.253354
247.2000,-0.424337,215.918,0.255904
247.1000,-0.0707499,215.366,0.248215
247.0000,0.977272,215.322,0.247616
246.9000,-0.651156,215.701,0.252881
246.8000,-1.4591,216.886,0.269322
246.7000,0.563889,215.524,0.250423
246.6000,0.996135,216.865,0.269024
246.5000,-1.07315,217.204,0.273726
246.4000,-1.81317,215.726,0.253228
246.3000,-0.863536,216.655,0.266121
246.2000,-0.2152,215.654,0.252235
246.1000,-0.801192,215.569,0.251053
246.0000,-1.32908,215.9,0.255653
245.9000,-2.27662,216.45,0.263279
245.8000,-0.492918,216.112,0.258595
245.7000,-1.23287,215.907,0.255747
245.6000,-0.315674,216.13,0.258847
245.5000,0.0317308,214.883,0.241489
245.4000,-1.3018,217.046,0.271532
245.3000,-0.922096,217.448,0.277092
245.2000,-1.2307,216.693,0.266655
245.1000,-0.398853,216.419,0.262855
245.0000,-0.694903,216.952,0.270231
244.9000,-0.23587,216.581,0.265101
244.8000,-1.53158,216.893,0.269416
244.7000,-1.86329,217.498,0.27778
244.6000,-2.88193,217.036,0.271391
244.5000,-1.48838,216.568,0.264912
244.4000,-4.2737,217.342,0.27562
244.3000,-2.26386,216.546,0.264614
244.2000,-2.44097,216.815,0.268334
244.1000,-1.94797,217.344,0.275652
244.0000,-2.56869,217.15,0.272974
243.9000,-3.46808,217.779,0.281659
243.8000,-1.81236,217.188,0.273491
243.7000,-1.46743,217.039,0.271438
243.6000,-3.02829,218.443,0.290806
243.5000,-3.5511,217.79,0.281815
243.4000,-2.85369,217.823,0.282268
243.3000,-2.6663,217.612,0.27936
243.2000,-2.94484,217.865,0.282846
243.1000,-3.0696,216.631,0.265792
243.0000,-2.38567,217.794,0.281862
242.9000,-4.24354,217.642,0.279767
242.8000,-1.73422,218.071,0.285689
242.7000,-2.63948,218.136,0.286578
242.6000,-2.22453,218.506,0.291679
242.5000,-3.13264,217.166,0.273193
242.4000,-4.68856,218,0.284705
242.3000,-2.41267,218.313,0.289012
242.2000,-3.37848,219.167,0.300754
242.1000,-2.49866,218.864,0.296601
242.0000,-4.04004,219.097,0.29979
241.9000,-5.09644,218.297,0.288794
241.8000,-3.417,219.496,0.30526
241.7000,-6.79328,218.006,0.284783
241.6000,-4.36067,218.786,0.295526
241.5000,-5.02608,219.818,0.309683
241.4000,-6.32824,220.841,0.323646
241.3000,-5.68506,219.583,0.306456
241.2000,-5.10575,219.801,0.309451
241.1000,-4.68881,219.867,0.31035
241.0000,-5.02567,219.321,0.302868
240.9000,-5.7635,219,0.298468
240.8000,-4.76864,219.755,0.308814
240.7000,-5.06847,219.847,0.310071
240.6000,-6.18333,220.235,0.315386
240.5000,-6.85797,221.124,0.327507
240.4000,-6.57196,220.558,0.319797
240.3000,-6.97942,220.584,0.320153
240.2000,-7.82093,220.838,0.323615
240.1000,-8.33039,221.013,0.325994
240.0000,-8.80824,219.79,0.309296
239.9000,-6.93628,219.996,0.312117
239.8000,-5.27841,220.961,0.325283
239.7000,-6.08474,221.27,0.329497
239.6000,-8.393,220.532,0.319441
239.5000,-8.95059,221.037,0.326318
239.4000,-6.26642,222.119,0.341033
239.3000,-8.38747,222.241,0.342693
239.2000,-8.4665,222.199,0.342124
239.1000,-8.00147,222.701,0.348928
239.0000,-9.89347,222.76,0.349726
238.9000,-7.71463,223.373,0.358016
238.8000,-11.4725,222.958,0.35241
238.7000,-8.34309,222.193,0.342048
238.6000,-8.74354,222.718,0.349158
238.5000,-9.12589,222.5,0.346211
238.4000,-9.93602,222.724,0.349235
238.3000,-12.0335,223.058,0.353758
238.2000,-9.74519,222.574,0.347209
238.1000,-11.5914,223.776,0.36346
238.0000,-10.9605,223.774,0.36343
237.9000,-10.2698,224.035,0.366943
237.8000,-10.3852,224.232,0.369599
237.7000,-12.7016,224.43,0.372268
237.6000,-11.1237,224.763,0.376748
237.5000,-13.2818,224.445,0.372466
237.4000,-10.9571,224.803,0.377281
237.3000,-12.5549,224.847,0.377875
237.2000,-14.5925,225.282,0.383716
237.1000,-13.086,224.529,0.373594
237.0000,-13.3918,225.247,0.383244
236.9000,-14.5028,225.525,0.386967
236.8000,-14.6253,225.956,0.392748
236.7000,-13.1687,226.359,0.398126
236.6000,-15.3379,225.973,0.392975
236.5000,-15.8201,227.131,0.408436
236.4000,-15.4526,227.367,0.411575
236.3000,-14.9417,226.745,0.403285
236.2000,-14.7437,226.25,0.396672
236.1000,-16.1834,227.025,0.407017
236.0000,-14.9851,227.484,0.413129
235.9000,-18.4065,228.418,0.425546
235.8000,-19.4278,226.858,0.404796
235.7000,-17.1613,227.225,0.409689
235.6000,-18.7496,227.904,0.418718
235.5000,-18.6034,228.21,0.42278
235.4000,-18.89,228.397,0.425261
235.3000,-19.4539,228.864,0.431447
235.2000,-21.1213,227.945,0.41926
235.1000,-19.5027,229.668,0.442083
235.0000,-21.3211,229.363,0.438057
234.9000,-19.7423,228.9,0.431927
234.8000,-19.6858,228.287,0.423803
234.7000,-18.588,229.312,0.437383
234.6000,-19.9737,229.895,0.445073
234.5000,-22.3846,230.376,0.45142
234.4000,-21.6329,231.515,0.466385
234.3000,-19.3528,230.251,0.449764
234.2000,-20.6331,230.884,0.458099
234.1000,-18.4938,231.845,0.470707
234.0000,-23.0937,231.252,0.462936
233.9000,-21.2224,231.807,0.470217
233.8000,-22.44,231.878,0.471137
233.7000,-24.0895,232.212,0.475513
233.6000,-24.5237,231.836,0.470588
233.5000,-24.949,232.852,0.483879
233.4000,-25.782,231.891,0.471316
233.3000,-27.071,233.685,0.494733
233.2000,-24.0468,234.255,0.502143
233.1000,-23.814,233.648,0.494247
233.0000,-23.5888,234.284,0.502526
232.9000,-26.6078,236.162,0.526828
232.8000,-26.217,237.012,0.537775
232.7000,-27.6025,234.855,0.509935
232.6000,-26.9513,234.448,0.504644
232.5000,-28.079,235.283,0.515467
232.4000,-27.7869,234.741,0.508451
232.3000,-30.1491,235.819,0.522396
232.2000,-30.6128,236.705,0.533823
232.1000,-30.9431,236.725,0.534086
232.0000,-30.3442,237.12,0.539174
231.9000,-29.6893,237.591,0.545216
231.8000,-32.2089,236.002,0.524766
231.7000,-32.4417,238.795,0.560645
231.6000,-32.9106,239.062,0.564062
231.5000,-30.5861,238.811,0.560848
231.4000,-33.2594,239.855,0.574164
231.3000,-33.4462,239.706,0.572273
231.2000,-32.5886,238.429,0.555964
231.1000,-33.4297,239.613,0.571089
231.0000,-34.1144,239.581,0.570684
230.9000,-37.1718,240.401,0.581114
230.8000,-34.9276,240.309,0.579947
230.7000,-37.8913,240.606,0.58372
230.6000,-32.1389,240.509,0.582496
230.5000,-35.4623,241.212,0.591413
230.4000,-34.1849,242.322,0.605464
230.3000,-37.5822,241.272,0.592174
230.2000,-35.6746,242.257,0.604634
230.1000,-36.8382,241.426,0.594127
230.0000,-37.055,241.691,0.597484
229.9000,-39.2611,243.19,0.616409
229.8000,-38.0853,244.61,0.634244
229.7000,-38.5853,243.455,0.619747
229.6000,-40.9941,245.181,0.641394
229.5000,-40.982,245.425,0.644439
229.4000,-41.3038,244.373,0.631275
229.3000,-40.8106,245.688,0.647723
229.2000,-39.9505,245.133,0.640799
229.1000,-42.6576,247.48,0.670038
229.0000,-43.4135,246.306,0.65544
228.9000,-43.4608,246.582,0.658869
228.8000,-41.401,247.207,0.666647
228.7000,-42.4091,247.769,0.673622
228.6000,-43.3343,248.144,0.67827
228.5000,-42.5966,248.988,0.688709
228.4000,-43.4705,247.964,0.676038
228.3000,-46.5801,248.597,0.683878
228.2000,-41.6845,250.342,0.705392
228.1000,-47.1135,250.148,0.70301
228.0000,-46.9478,250.819,0.711252
227.9000,-44.7131,250.599,0.708553
227.8000,-45.4678,253.203,0.7404
227.7000,-46.2093,253.091,0.739034
227.6000,-50.2155,253.633,0.745626
227.5000,-48.2867,253.898,0.748849
227.4000,-48.5673,253.965,0.749661
227.3000,-50.2243,255.031,0.762592
227.2000,-50.4941,255.279,0.765595
227.1000,-49.288,256.251,0.777336
227.0000,-48.4198,256.836,0.78438
226.9000,-50.4355,257.426,0.791478
226.8000,-47.9066,257.619,0.793791
226.7000,-50.0391,258.932,0.809524
226.6000,-50.7176,259.182,0.812516
226.5000,-48.9254,260.173,0.824327
226.4000,-51.2965,259.85,0.82048
226.3000,-48.2261,260.83,0.832144
226.2000,-49.7116,261.035,0.83458
226.1000,-51.4597,261.344,0.838252
226.0000,-55.3569,261.992,0.845933
225.9000,-52.2732,263.293,0.861301
225.8000,-52.5234,263.809,0.867374
225.7000,-52.2508,264.655,0.877325
225.6000,-50.7011,265.19,0.883598
225.5000,-52.7621,266.45,0.898337
225.4000,-53,266.697,0.901219
225.3000,-53.7556,267.793,0.913979
225.2000,-51.8799,268.999,0.927982
225.1000,-50.8437,269.643,0.935429
225.0000,-51.5541,271.316,0.954724
224.9000,-52.8647,271.299,0.954529
224.8000,-57.7039,271.353,0.955141
224.7000,-54.1088,272.222,0.965121
224.6000,-53.5752,273.683,0.981847
224.5000,-54.4586,274.633,0.992673
224.4000,-51.09,275.259,0.9998
224.3000,-54.8283,276.338,1.01204
224.2000,-54.3912,277.161,1.02134
224.1000,-51.0462,277.604,1.02634
224.0000,-56.3704,278.55,1.03701
223.9000,-55.1031,279.521,1.04792
223.8000,-52.9854,280.319,1.05685
223.7000,-60.5055,281.763,1.07299
223.6000,-59.7703,283.077,1.0876
223.5000,-54.0081,284.204,1.10009
223.4000,-53.6729,285.022,1.10913
223.3000,-55.4227,286.163,1.12171
223.2000,-57.5191,286.996,1.13086
223.1000,-50.1529,288.236,1.14445
223.0000,-53.8038,290.761,1.17196
222.9000,-56.7544,291.494,1.17991
222.8000,-58.4254,292.96,1.19576
222.7000,-52.7083,294.753,1.21505
222.6000,-57.8896,295.685,1.22505
222.5000,-56.3083,297.255,1.24182
222.4000,-54.5812,298.275,1.25268
222.3000,-54.2567,299.645,1.26721
222.2000,-60.6368,301.263,1.28431
222.1000,-55.745,301.817,1.29014
222.0000,-54.3537,304.196,1.31509
221.9000,-56.5791,305.107,1.32461
221.8000,-54.4725,306.883,1.34309
221.7000,-60.5885,307.837,1.35298
221.6000,-56.9456,309.923,1.37452
221.5000,-60.5084,309.921,1.37449
221.4000,-54.0488,312.347,1.39939
221.3000,-48.3956,314.144,1.41772
221.2000,-59.6379,315.753,1.43407
221.1000,-55.1942,318.029,1.45707
221.0000,-54.715,319.404,1.47089
220.9000,-57.8718,321.209,1.48897
220.8000,-53.7072,323.117,1.50799
220.7000,-50.3236,325.435,1.53097
220.6000,-56.1933,327.28,1.54916
220.5000,-58.3087,329.024,1.56627
220.4000,-56.9247,331.123,1.58678
220.3000,-56.12,334.448,1.61903
220.2000,-51.911,335.09,1.62523
220.1000,-56.989,337.764,1.65093
220.0000,-47.1694,340.051,1.67278
219.9000,-52.3554,341.266,1.68435
219.8000,-48.9236,344.042,1.71062
219.7000,-46.5654,346.67,1.73533
219.6000,-46.7337,348.394,1.75147
219.5000,-53.2825,350.827,1.77411
219.4000,-49.1231,352.544,1.79001
219.3000,-47.8223,355.364,1.81599
219.2000,-49.7582,358.655,1.8461
219.1000,-52.4925,360.017,1.85849
219.0000,-54.847,362.536,1.8813
218.9000,-52.1674,364.541,1.89936
218.8000,-51.6721,366.955,1.921
218.7000,-55.4584,369.84,1.9467
218.6000,-51.6429,373.349,1.97773
218.5000,-56.4898,376.255,2.00325
218.4000,-51.9295,379.19,2.02886
218.3000,-45.6067,381.562,2.04942
218.2000,-44.0021,384.161,2.07184
218.1000,-36.1481,388.196,2.10639
218.0000,-39.0898,391.091,2.131
217.9000,-45.4222,395.116,2.16496
217.8000,-39.9179,397.384,2.18396
217.7000,-38.9248,401.794,2.22066
217.6000,-38.0654,404.703,2.24468
217.5000,-44.2641,409.442,2.2835
217.4000,-51.3379,411.731,2.30212
217.3000,-33.0097,415.96,2.33629
217.2000,-27.2,419.831,2.3673
217.1000,-31.8787,424.662,2.40568
217.0000,-44.9649,427.646,2.4292
216.9000,-33.7223,432.449,2.46677
216.8000,-36.1552,435.685,2.49188
216.7000,-22.968,440.333,2.52768
216.6000,-33.3161,443.052,2.54848
216.5000,-24.5373,447.08,2.57909
216.4000,-27.9558,449.811,2.5997
216.3000,-26.3933,454.638,2.63589
216.2000,-32.818,458.267,2.66289
216.1000,-29.6698,462.163,2.69167
216.0000,-10.7347,466.085,2.72044
215.9000,-20.9461,469.588,2.74596
215.8000,-20.9914,473.47,2.77405
215.7000,-24.9741,476.991,2.79936
215.6000,-34.0956,480.858,2.82698
215.5000,-33.0461,486.607,2.8677
215.4000,-24.1421,489.765,2.8899
215.3000,-22.564,494.245,2.92117
215.2000,-4.91367,499.126,2.95498
215.1000,-32.4523,502.973,2.98143
215.0000,-23.6917,505.725,3.00024
214.9000,-27.6773,510.016,3.02941
214.8000,-20.9692,515.066,3.06347
214.7000,-14.4911,519.191,3.09107
214.6000,-17.0804,523.866,3.12214
214.5000,-7.94991,528.878,3.15519
214.4000,-19.6572,533.773,3.18721
214.3000,-20.7759,536.847,3.20719
214.2000,-27.7952,540.439,3.23042
214.1000,-7.4253,545.556,3.26328
214.0000,-27.6862,549.599,3.28906
213.9000,-18.5428,554.335,3.31905
213.8000,-19.2038,558.714,3.3466
213.7000,-9.18489,563.621,3.37724
213.6000,-16.9053,567.169,3.39926
213.5000,-17.1173,571.4,3.42536
213.4000,-17.2062,575.189,3.4486
213.3000,-22.4436,580.824,3.48291
213.2000,-21.9926,584.767,3.50676
213.1000,-3.3431,587.837,3.52523
213.0000,-10.5518,592.6,3.55373
212.9000,-16.4247,595.79,3.5727
212.8000,-13.8936,600.286,3.5993
212.7000,-15.3816,604.4,3.6235
212.6000,-8.13689,608.498,3.64746
212.5000,-2.67513,612.558,3.67106
212.4000,-12.9245,616.903,3.69617
212.3000,-10.0695,622.222,3.7267
212.2000,3.35251,625.629,3.74615
212.1000,-18.9717,631.19,3.77769
212.0000,8.83019,635.689,3.80304
211.9000,-1.91629,639.729,3.82567
211.8000,8.88344,644.281,3.85102
211.7000,-29.3646,648.106,3.8722
211.6000,5.68009,652.298,3.8953
211.5000,-5.47636,655.57,3.91324
211.4000,-13.203,659.731,3.93595
211.3000,3.34601,662.961,3.95349
211.2000,-3.18177,665.384,3.9666
211.1000,-3.39598,668.961,3.98588
211.0000,-6.85039,672.155,4.00302
210.9000,-7.39244,675.34,4.02004
210.8000,2.62709,678.609,4.03744
210.7000,10.7134,681.7,4.05383
210.6000,-1.25418,684.753,4.06996
210.5000,6.10761,687.738,4.08567
210.4000,-12.3839,690.377,4.0995
210.3000,-16.1208,693.201,4.11426
210.2000,-6.07504,696.04,4.12905
210.1000,16.2357,699.219,4.14554
210.0000,-14.8565,701.151,4.15553
209.9000,-6.10398,703.519,4.16775
209.8000,3.3174,707.511,4.18827
209.7000,-14.5273,709.99,4.20096
209.6000,-1.9522,712.867,4.21563
209.5000,1.25717,715.942,4.23127
209.4000,7.39755,717.433,4.23883
209.3000,7.3755,719.132,4.24743
209.2000,-2.82072,722.128,4.26254
209.1000,3.25212,724.109,4.27252
209.0000,-5.41446,724.443,4.27419
208.9000,10.4308,726.591,4.28497
208.8000,-1.92973,728.015,4.2921
208.7000,-11.7076,729.686,4.30045
208.6000,3.03739,730.283,4.30343
208.5000,-2.34527,732.079,4.31239
208.4000,3.92309,733.365,4.31878
208.3000,-12.1065,735.986,4.33179
208.2000,0.504582,737.416,4.33888
208.1000,-1.03317,738.767,4.34555
208.0000,3.00538,740.569,4.35445
207.9000,-3.58191,741.44,4.35874
207.8000,3.92332,743.274,4.36777
207.7000,8.25539,745.07,4.37658
207.6000,-4.64113,746.241,4.38232
207.5000,4.57825,746.824,4.38518
207.4000,2.23126,747.587,4.38891
207.3000,3.44868,748.998,4.39581
207.2000,-1.83116,749.047,4.39605
207.1000,-6.28372,750.17,4.40152
207.0000,7.63503,750.572,4.40349
206.9000,-2.40564,751.783,4.40939
206.8000,0.170641,752.743,4.41405
206.7000,-12.5477,752.522,4.41298
206.6000,-5.43922,754.184,4.42106
206.5000,1.89506,755.533,4.4276
206.4000,6.32113,756.14,4.43054
206.3000,0.580504,757.321,4.43625
206.2000,8.61031,757.883,4.43897
206.1000,-8.05397,758.727,4.44305
206.0000,-1.40138,759.717,4.44783
205.9000,-4.83321,759.888,4.44865
205.8000,-3.69361,760.508,4.45164
205.7000,11.6445,760.555,4.45187
205.6000,7.69124,760.601,4.45209
205.5000,8.31432,761.754,4.45764
205.4000,-1.82231,762.251,4.46003
205.3000,4.58153,764.251,4.46964
205.2000,-6.85247,764.483,4.47076
205.1000,-11.156,765.256,4.47446
205.0000,-5.41697,766.993,4.48278
204.9000,7.9792,765.592,4.47607
204.8000,-1.99745,767.011,4.48287
204.7000,-9.53407,767.004,4.48284
204.6000,2.8145,768.368,4.48936
204.5000,1.67244,768.561,4.49028
204.4000,14.2699,768.229,4.48869
204.3000,4.78792,769.75,4.49596
204.2000,-16.4769,770.719,4.50057
204.1000,-3.89351,770.534,4.49969
204.0000,-6.65534,770.14,4.49781
203.9000,-11.9488,771.132,4.50254
203.8000,-0.664535,771.629,4.50491
203.7000,3.2171,771.45,4.50406
203.6000,13.2497,772.556,4.50932
203.5000,5.78754,773.662,4.51457
203.4000,-2.6146,773.789,4.51518
203.3000,-7.94494,774.147,4.51688
203.2000,2.19594,774.118,4.51674
203.1000,-3.46308,775.168,4.52172
203.0000,5.10259,776.353,4.52733
202.9000,-4.71561,776.992,4.53036
202.8000,-0.186427,777.634,4.5334
202.7000,-4.65176,777.653,4.53348
202.6000,-2.52252,778.749,4.53867
202.5000,5.70728,778.767,4.53875
202.4000,-27.3452,779.758,4.54343
202.3000,12.5055,780.604,4.54742
202.2000,-11.0513,781.668,4.55243
202.1000,-7.09182,781.964,4.55382
202.0000,2.21896,783.331,4.56025
201.9000,-14.0424,784.96,4.5679
201.8000,-7.52931,786.502,4.57512
201.7000,0.222785,786.516,4.57519
201.6000,3.04909,787.383,4.57925
201.5000,16.1554,789.312,4.58826
201.4000,2.35101,789.813,4.5906
201.3000,9.50647,791.066,4.59644
201.2000,-3.30322,791.846,4.60008
201.1000,-14.7357,793.127,4.60604
201.0000,6.20822,794.109,4.6106
200.9000,-4.12417,796.252,4.62054
200.8000,-5.36458,796.364,4.62106
200.7000,-8.96293,798.391,4.63044
200.6000,-14.3997,799.191,4.63414
200.5000,-22.2566,801.16,4.64323
200.4000,-1.81621,803.403,4.65355
200.3000,-2.30288,803.944,4.65604
200.2000,-3.70806,805.263,4.6621
200.1000,5.8808,807.306,4.67146
200.0000,-9.06197,808.708,4.67787
199.9000,6.59879,810.303,4.68516
199.8000,0.801669,812.461,4.69501
199.7000,-18.8142,814.137,4.70263
199.6000,3.86396,814.712,4.70524
199.5000,-9.36639,816.647,4.71403
199.4000,-4.33397,817.703,4.71881
199.3000,2.9762,819.198,4.72558
199.2000,-3.31688,821.055,4.73397
199.1000,-5.73833,821.294,4.73504
199.0000,10.9296,822.73,4.74152
198.9000,-12.0519,824.052,4.74747
198.8000,-7.05449,826.015,4.7563
198.7000,3.73606,827.624,4.76352
198.6000,-8.21616,829.602,4.77237
198.5000,4.60627,830.713,4.77734
198.4000,-2.45979,833.212,4.78849
198.3000,-6.283,833.438,4.7895
198.2000,21.6796,835.332,4.79793
198.1000,-7.5979,836.283,4.80216
198.0000,-7.85974,837.612,4.80806
197.9000,-0.439846,839.281,4.81546
197.8000,11.8042,839.448,4.8162
197.7000,9.13869,840.738,4.82191
197.6000,2.21396,841.471,4.82515
197.5000,-14.2823,842.347,4.82902
197.4000,3.88624,843.621,4.83464
197.3000,-6.18546,845.275,4.84193
197.2000,-6.38922,845.784,4.84416
197.1000,1.8872,846.942,4.84926
197.0000,-9.86877,847.223,4.85049
196.9000,2.7936,848.76,4.85724
196.8000,-19.9773,848.438,4.85583
196.7000,8.53028,849.854,4.86204
196.6000,4.47995,850.62,4.86539
196.5000,9.77182,851.947,4.8712
196.4000,-5.61929,851.478,4.86914
196.3000,23.8099,853.665,4.87871
196.2000,15.3006,853.994,4.88014
196.1000,-3.82294,853.701,4.87886
196.0000,2.60466,854.261,4.88131
195.9000,4.26037,855.086,4.8849
195.8000,0.720722,855.789,4.88797
195.7000,2.78839,856.073,4.8892
195.6000,-0.78522,856.735,4.89208
195.5000,-15.3521,856.639,4.89167
195.4000,-4.33968,857.069,4.89354
195.3000,-4.37465,857.49,4.89537
195.2000,-5.537,858.699,4.90062
195.1000,5.15476,858.27,4.89876
195.0000,12.5069,859.593,4.9045
194.9000,-1.08284,858.69,4.90058
194.8000,-7.24535,859.458,4.90392
194.7000,11.202,859.858,4.90565
194.6000,4.68188,859.953,4.90607
194.5000,-6.81072,859.749,4.90518
194.4000,6.69195,860.848,4.90995
194.3000,-12.4883,860.994,4.91058
194.2000,14.0836,861.54,4.91295
194.1000,-12.11,861.463,4.91261
194.0000,-4.95764,863.009,4.9193
193.9000,-10.6325,862.014,4.915
193.8000,-2.68988,861.468,4.91263
193.7000,-17.9335,862.647,4.91774
193.6000,4.85603,862.765,4.91825
193.5000,-1.52575,863.931,4.92329
193.4000,0.262004,864.586,4.92612
193.3000,15.1679,864.872,4.92735
193.2000,1.16732,864.353,4.92511
193.1000,-4.16519,865.113,4.92839
193.0000,11.0519,864.432,4.92545
192.9000,-1.05018,863.704,4.92231
192.8000,0.706326,864.782,4.92696
192.7000,11.6273,865.137,4.92849
192.6000,-8.95568,865.563,4.93033
192.5000,-12.1562,865.742,4.9311
192.4000,-11.4188,866.071,4.93253
192.3000,3.07017,866.035,4.93237
192.2000,-10.7194,865.575,4.93039
192.1000,9.41441,866.9,4.9361
192.0000,0.348957,866.649,4.93502
191.9000,-2.74309,867.987,4.94078
191.8000,-0.175974,867.355,4.93806
191.7000,-5.07516,866.958,4.93634
191.6000,-2.68896,867.502,4.93869
191.5000,10.0008,867.271,4.9377
191.4000,8.40401,866.759,4.93549
191.3000,1.65861,867.567,4.93897
191.2000,-7.09092,867.319,4.9379
191.1000,2.46982,867.72,4.93963
191.0000,11.8758,868.918,4.94478
190.9000,-0.189456,868.276,4.94202
190.8000,-4.74502,868.29,4.94208
190.7000,-4.35554,868.75,4.94406
190.6000,-9.23116,869.599,4.94771
190.5000,16.4521,869.289,4.94638
190.4000,-10.8446,869.119,4.94565
190.3000,0.0293984,869.123,4.94566
190.2000,28.9856,869.255,4.94623
190.1000,-5.26839,869.238,4.94616
190.0000,1.26261,868.555,4.94322

##### Extended Information
[Comments]
Sample name,TB_TH_KD_Protein and Additive 
Comment, Protein and Additive 
User,Tara_Tyler_Kimani
Division
Company,Saint Mary's College

[Detailed Information]
Creation date,9/29/2022 3:59 PM

Data array type,Linear data array * 3
Horizontal axis,Wavelength [nm]
Vertical axis(1),CD [mdeg]
Vertical axis(2),HT [V]
Vertical axis(3),Abs
Start,320 nm
End,190 nm
Data interval,0.1 nm
Data points,1301    

[Measurement Information]
Instrument name,J-1500
Model name,J-1500
Serial No.,B051061638

Detector,PM-539
Detector S/N,B051061638
  Lock-in amp.,X mode
  HT volt,Auto

Accessory,PTC-517
Accessory S/N,B026561646
  Temperature,21.82 C
  Control sensor,Holder
  Monitor sensor,Holder

Measurement date,9/29/2022 3:58 PM

CD Overload detect,946
Photometric mode,CD, HT, Abs
Measure range,320 - 190 nm
Data pitch,0.1 nm
CD scale,20 mdeg/0.05 dOD
FL scale,20 mdeg/0.05 dOD
D.I.T.,8 msec
Bandwidth,2.00 nm
Start mode,Immediately
Scanning mode,Continuous
Scanning speed,200 nm/min
Baseline correction,None
Shutter control,Auto
No. of cycle,1/1
N2 Flowmeter,Manual

Solvent,NaPO4 buffer

