TITLE,TB_TH_KD_Buffer and Protein 
DATA TYPE,
ORIGIN,JASCO
OWNER,
DATE,22/09/29
TIME,16:46:33
SPECTROMETER/DATA SYSTEM,
LOCALE,1033
RESOLUTION,
DELTAX,-0.1
XUNITS,NANOMETERS
YUNITS,CD [mdeg]
Y2UNITS,HT [V]
Y3UNITS,ABSORBANCE
FIRSTX,  320.0000
LASTX,  190.0000
NPOINTS,    1301
FIRSTY,     1.52488
MAXY,    54.35196
MINY,   -54.54156
XYDATA
320.0000,1.52488,208.81,0.155785
319.9000,1.18156,209.421,0.164512
319.8000,0.464271,208.855,0.156432
319.7000,1.47623,208.76,0.155073
319.6000,1.42664,209.687,0.168287
319.5000,0.196822,209.1,0.159925
319.4000,0.363197,208.893,0.156982
319.3000,0.415513,209.577,0.166723
319.2000,-0.72051,209.418,0.164464
319.1000,0.621373,209.695,0.1684
319.0000,1.07655,208.892,0.156966
318.9000,0.152198,210.128,0.17457
318.8000,1.1565,208.946,0.157726
318.7000,3.22029,209.365,0.163705
318.6000,0.934842,209.003,0.158551
318.5000,0.590432,208.949,0.157775
318.4000,0.434938,208.474,0.150993
318.3000,0.348438,209.333,0.163253
318.2000,-0.384818,209.196,0.161299
318.1000,-0.153367,208.932,0.157532
318.0000,0.475301,209.142,0.160523
317.9000,1.25043,209.305,0.162849
317.8000,0.987335,209.256,0.162154
317.7000,1.09134,209.157,0.160749
317.6000,2.08917,209.663,0.167948
317.5000,0.367746,209.8,0.169899
317.4000,1.37524,209.376,0.163866
317.3000,0.0736311,209.641,0.167642
317.2000,0.812272,209.589,0.1669
317.1000,1.85334,209.304,0.162833
317.0000,0.421481,209.089,0.15978
316.9000,0.39661,209.385,0.163995
316.8000,1.34775,209.576,0.166707
316.7000,2.14192,208.743,0.154831
316.6000,0.763727,209.438,0.164754
316.5000,2.0327,209.414,0.164399
316.4000,1.37428,209.38,0.163915
316.3000,0.0667904,209.356,0.163576
316.2000,2.5064,209.032,0.158955
316.1000,0.279912,208.965,0.158001
316.0000,0.502709,209.282,0.162526
315.9000,1.15115,208.55,0.152078
315.8000,-0.339337,209.157,0.160749
315.7000,0.0912111,208.837,0.156174
315.6000,-0.248641,208.84,0.156222
315.5000,1.06731,208.708,0.154329
315.4000,1.18958,208.6,0.152791
315.3000,0.0583869,209.08,0.15965
315.2000,0.602188,209.212,0.161524
315.1000,0.838259,209.504,0.16569
315.0000,0.965079,208.812,0.155818
314.9000,-0.0777814,208.794,0.155559
314.8000,0.384128,208.794,0.155559
314.7000,0.260685,209.343,0.163398
314.6000,-0.145251,208.948,0.157759
314.5000,0.379365,208.461,0.150798
314.4000,0.979399,208.832,0.156109
314.3000,2.43125,208.65,0.153503
314.2000,1.88578,209.144,0.160555
314.1000,1.4457,208.684,0.153989
314.0000,2.68245,208.956,0.157872
313.9000,0.530872,208.874,0.156707
313.8000,-0.322771,209.165,0.160862
313.7000,0.702542,209.096,0.159876
313.6000,1.26878,208.106,0.145724
313.5000,-0.234621,208.644,0.153422
313.4000,2.71055,208.992,0.158389
313.3000,1.68514,207.839,0.141893
313.2000,0.356779,208.363,0.149405
313.1000,0.132234,207.553,0.137797
313.0000,1.70541,208.227,0.147459
312.9000,0.33606,208.375,0.149567
312.8000,0.858207,208.778,0.155332
312.7000,-0.0777059,209.707,0.168577
312.6000,1.53547,208.728,0.15462
312.5000,0.849866,208.663,0.153698
312.4000,0.678084,208.361,0.149372
312.3000,1.46325,208.124,0.145983
312.2000,1.01504,208.968,0.15805
312.1000,2.44146,208.421,0.150231
312.0000,1.50296,208.865,0.156578
311.9000,3.03377,208.795,0.155575
311.8000,0.596299,208.771,0.155235
311.7000,1.15092,208.244,0.147703
311.6000,-0.286293,208.734,0.154701
311.5000,1.70133,208.348,0.149194
311.4000,1.14117,208.682,0.153957
311.3000,1.074,209.062,0.159392
311.2000,-1.09592,208.66,0.153649
311.1000,0.847756,208.98,0.158211
311.0000,1.74408,209.142,0.160523
310.9000,0.680303,208.625,0.153147
310.8000,1.03797,209.21,0.161492
310.7000,1.26635,208.346,0.149162
310.6000,-0.199372,208.721,0.154523
310.5000,1.70423,208.481,0.15109
310.4000,-0.480987,208.793,0.155542
310.3000,-0.389638,208.439,0.150491
310.2000,0.962617,208.433,0.15041
310.1000,-0.28789,208.551,0.152094
310.0000,0.493896,209.147,0.160604
309.9000,1.8974,207.726,0.140284
309.8000,1.7416,209.195,0.161282
309.7000,0.981866,207.833,0.141811
309.6000,0.471932,208.155,0.146421
309.5000,1.54627,209.138,0.160474
309.4000,0.89629,208.847,0.156319
309.3000,2.54585,208.865,0.156578
309.2000,1.15748,207.998,0.144182
309.1000,1.19431,208.799,0.15564
309.0000,0.477182,209.261,0.162219
308.9000,1.14488,209.053,0.159262
308.8000,0.837086,208.351,0.149226
308.7000,2.52295,210.172,0.175182
308.6000,0.0703678,208.069,0.145188
308.5000,-0.311054,208.925,0.157435
308.4000,0.500087,208.215,0.147281
308.3000,-0.36114,209.237,0.16188
308.2000,3.90693,208.538,0.1519
308.1000,1.10599,208.386,0.149729
308.0000,1.19801,208.321,0.148805
307.9000,0.496761,207.556,0.137846
307.8000,0.622491,209.496,0.165577
307.7000,1.65263,208.686,0.154021
307.6000,3.10497,208.602,0.152823
307.5000,2.36159,209.199,0.161347
307.4000,-0.185541,208.582,0.152532
307.3000,1.05011,209.668,0.168029
307.2000,0.423094,209.642,0.167658
307.1000,0.990819,208.087,0.145448
307.0000,0.766342,208.738,0.154766
306.9000,0.00602869,207.998,0.144182
306.8000,-0.0726874,208.449,0.150636
306.7000,2.39394,208.279,0.148205
306.6000,0.599635,207.615,0.138692
306.5000,-0.063407,208.909,0.157209
306.4000,1.51119,208.338,0.149048
306.3000,1.49381,209.392,0.164092
306.2000,2.27121,209.361,0.163656
306.1000,-1.30336,208.503,0.151398
306.0000,-0.452627,208.795,0.155575
305.9000,0.130685,208.746,0.154879
305.8000,1.11087,208.812,0.155818
305.7000,-0.505478,208.954,0.15784
305.6000,1.51634,208.803,0.155688
305.5000,0.354805,209.389,0.164044
305.4000,0.72752,209.469,0.16519
305.3000,2.25135,208.353,0.149259
305.2000,-0.382535,207.633,0.138952
305.1000,1.21209,209.713,0.168658
305.0000,2.11762,208.986,0.158309
304.9000,0.0808235,209.171,0.160943
304.8000,1.39815,208.733,0.154685
304.7000,0.424252,208.105,0.145707
304.6000,0.682747,209.212,0.161524
304.5000,1.36778,208.671,0.153811
304.4000,0.72407,208.555,0.152143
304.3000,-1.16475,208.286,0.148302
304.2000,-0.169001,208.359,0.14934
304.1000,1.53096,208.295,0.148432
304.0000,1.16926,208.639,0.153341
303.9000,0.890687,209.225,0.161719
303.8000,0.526815,208.45,0.150653
303.7000,-0.378388,208.217,0.147313
303.6000,-0.799502,208.51,0.151511
303.5000,0.951907,207.851,0.142071
303.4000,0.246953,207.767,0.140869
303.3000,0.74545,208.096,0.145577
303.2000,0.214654,207.809,0.14147
303.1000,0.0467616,208.702,0.154248
303.0000,-0.114169,208.734,0.154701
302.9000,0.728056,208.358,0.149324
302.8000,2.07859,209.042,0.159101
302.7000,1.83239,207.917,0.143013
302.6000,0.798017,209.251,0.16209
302.5000,0.386259,208.317,0.14874
302.4000,2.12711,208.441,0.150523
302.3000,0.574049,208.529,0.151771
302.2000,-0.574943,208.371,0.149518
302.1000,0.275029,208.709,0.154345
302.0000,1.01171,207.941,0.143354
301.9000,2.98005,208.589,0.152629
301.8000,1.55581,208.396,0.149875
301.7000,0.32247,208.753,0.154976
301.6000,2.11974,208.343,0.149113
301.5000,2.80409,208.39,0.149794
301.4000,0.634863,208.441,0.150523
301.3000,1.79016,208.784,0.155413
301.2000,0.622179,208.212,0.147248
301.1000,1.08042,208.237,0.147605
301.0000,0.527999,207.922,0.143094
300.9000,1.08481,208.24,0.147638
300.8000,-0.0403278,209.409,0.164334
300.7000,-0.830995,207.563,0.137943
300.6000,-1.0796,207.565,0.137976
300.5000,0.148417,208.998,0.15847
300.4000,1.65194,208.28,0.148221
300.3000,1.11073,209.545,0.166271
300.2000,0.685223,207.136,0.131808
300.1000,2.29402,208.411,0.150085
300.0000,-0.3563,208.161,0.146519
299.9000,2.56838,208.662,0.153681
299.8000,1.03379,208.569,0.152354
299.7000,-0.895943,208.32,0.148789
299.6000,0.736396,208.684,0.153989
299.5000,1.02526,208.208,0.147183
299.4000,0.697379,207.042,0.130456
299.3000,0.746052,208.329,0.148919
299.2000,1.21485,208.354,0.149275
299.1000,0.888711,208.771,0.155235
299.0000,1.2014,208.849,0.156351
298.9000,0.179449,208.841,0.156238
298.8000,3.16978,207.718,0.140171
298.7000,0.385949,208.037,0.144734
298.6000,0.836311,208.765,0.155154
298.5000,0.140166,207.5,0.137033
298.4000,1.64791,207.853,0.142104
298.3000,0.604418,207.558,0.137862
298.2000,0.958096,209.224,0.161702
298.1000,0.315261,207.678,0.139586
298.0000,1.03358,207.937,0.143305
297.9000,1.10119,207.806,0.141421
297.8000,-1.01186,207.677,0.139569
297.7000,2.77459,207.987,0.14402
297.6000,0.836872,207.743,0.140528
297.5000,0.929054,208.446,0.150588
297.4000,0.573469,209.136,0.160442
297.3000,0.149901,208.814,0.15585
297.2000,0.0208786,208.137,0.146162
297.1000,0.556729,208.077,0.145302
297.0000,1.95063,207.799,0.141324
296.9000,1.09948,207.803,0.141389
296.8000,-0.246539,207.143,0.131906
296.7000,1.46797,208.971,0.158082
296.6000,0.719044,208.399,0.149923
296.5000,0.42903,207.829,0.141762
296.4000,-0.0508305,207.413,0.13578
296.3000,0.65583,208.16,0.146502
296.2000,2.86878,208.404,0.149988
296.1000,-0.440851,207.81,0.141486
296.0000,1.90736,207.982,0.143955
295.9000,1.05402,207.913,0.142964
295.8000,0.0304301,208.096,0.145577
295.7000,0.370766,208.08,0.145351
295.6000,0.425052,207.755,0.14069
295.5000,0.0914432,207.931,0.143224
295.4000,0.144945,207.587,0.138285
295.3000,1.00938,207.525,0.137391
295.2000,0.331114,208.307,0.148594
295.1000,1.55282,207.568,0.138009
295.0000,1.37908,208.28,0.148221
294.9000,1.02324,207.945,0.143419
294.8000,1.36929,208.556,0.152159
294.7000,1.10249,207.439,0.136154
294.6000,-0.595741,208.867,0.15661
294.5000,0.793283,207.745,0.140544
294.4000,0.201863,207.752,0.140658
294.3000,0.916035,208.127,0.146032
294.2000,1.36152,207.481,0.136756
294.1000,-0.836188,207.878,0.142461
294.0000,1.05087,207.867,0.142299
293.9000,0.85815,207.675,0.139553
293.8000,2.37588,207.169,0.132281
293.7000,0.610757,208.154,0.146405
293.6000,-0.517651,208.614,0.152985
293.5000,1.17934,208.441,0.150523
293.4000,0.698662,208.74,0.154798
293.3000,1.06265,207.145,0.131939
293.2000,1.11267,208.802,0.155672
293.1000,1.61664,208.609,0.15292
293.0000,1.00029,207.937,0.143305
292.9000,2.20117,207.324,0.134511
292.8000,-0.764233,207.965,0.143711
292.7000,0.934035,207.473,0.136642
292.6000,-1.17923,208.214,0.147265
292.5000,0.71992,207.958,0.143598
292.4000,1.59579,207.711,0.140057
292.3000,1.33983,207.249,0.133437
292.2000,-0.238647,207.34,0.134739
292.1000,-0.518022,207.15,0.132004
292.0000,0.430411,207.529,0.137456
291.9000,0.0796679,207.581,0.138204
291.8000,1.81055,208.066,0.145156
291.7000,2.48793,207.758,0.140739
291.6000,0.905117,206.964,0.129332
291.5000,-0.300722,207.738,0.140447
291.4000,0.373494,207.335,0.134674
291.3000,0.818295,207.511,0.137195
291.2000,0.0570873,208.164,0.146551
291.1000,0.773275,207.309,0.1343
291.0000,-1.25196,206.688,0.125369
290.9000,0.0380233,207.939,0.143338
290.8000,-0.789745,207.215,0.132948
290.7000,-0.394493,207.779,0.141031
290.6000,-0.486348,207.263,0.133632
290.5000,-0.299917,206.948,0.129104
290.4000,1.77087,206.982,0.129593
290.3000,0.349839,208.371,0.149518
290.2000,1.29271,208.169,0.146632
290.1000,2.14397,207.401,0.135618
290.0000,2.71035,207.831,0.141779
289.9000,0.148394,208.094,0.145545
289.8000,0.502876,207.485,0.136822
289.7000,1.31337,208.561,0.15224
289.6000,2.6042,207.909,0.142899
289.5000,0.5304,208.228,0.147476
289.4000,0.400623,207.671,0.139488
289.3000,0.513141,208.024,0.144555
289.2000,-0.693988,207.863,0.14225
289.1000,-0.587291,208.065,0.145139
289.0000,0.610159,208.08,0.145351
288.9000,1.80077,208.378,0.149615
288.8000,-1.19515,207.943,0.143386
288.7000,-0.641544,207.8,0.14134
288.6000,1.68724,207.95,0.143484
288.5000,0.989817,207.626,0.138838
288.4000,1.95638,208.427,0.150312
288.3000,0.785274,207.973,0.143825
288.2000,1.63326,208.299,0.148481
288.1000,0.705277,208.245,0.147719
288.0000,1.53923,208.046,0.144864
287.9000,-1.01832,207.565,0.137976
287.8000,0.502642,208.581,0.152515
287.7000,0.917226,208.984,0.158276
287.6000,0.935429,208.318,0.148757
287.5000,0.36023,208.132,0.146097
287.4000,1.23399,207.149,0.131988
287.3000,0.355699,208.516,0.151592
287.2000,1.78777,208.026,0.144571
287.1000,1.27141,207.935,0.143273
287.0000,0.37744,207.364,0.135081
286.9000,-0.381384,207.955,0.143565
286.8000,0.777618,207.876,0.142429
286.7000,2.113,208.163,0.146535
286.6000,1.44847,207.767,0.140869
286.5000,0.897474,208.671,0.153811
286.4000,-0.101321,207.561,0.137911
286.3000,0.920353,208.15,0.146356
286.2000,1.24008,208.253,0.147832
286.1000,0.507709,208.35,0.14921
286.0000,0.674165,207.717,0.140154
285.9000,1.60167,208.363,0.149405
285.8000,0.2889,208.517,0.151609
285.7000,-0.130093,209,0.158502
285.6000,0.219811,208.872,0.156675
285.5000,0.96872,208.583,0.152548
285.4000,-1.42173,208.121,0.145935
285.3000,-0.567094,207.967,0.143728
285.2000,2.19153,208.156,0.146437
285.1000,-1.01743,208.584,0.152564
285.0000,1.49613,207.853,0.142104
284.9000,0.344167,207.796,0.141275
284.8000,-1.24155,209.079,0.159634
284.7000,0.949503,207.588,0.138301
284.6000,0.222269,208.751,0.154944
284.5000,2.28972,208.039,0.144766
284.4000,0.125541,207.926,0.143143
284.3000,0.0374882,208.556,0.152159
284.2000,1.39149,208.103,0.145675
284.1000,-1.21612,208.95,0.157791
284.0000,0.196438,208.166,0.146583
283.9000,-0.927682,208.395,0.149859
283.8000,0.0353294,208.106,0.145724
283.7000,0.81502,207.612,0.138643
283.6000,0.458166,208.324,0.148838
283.5000,0.231224,208.253,0.147832
283.4000,2.47367,208.02,0.14449
283.3000,1.86687,209.031,0.158939
283.2000,0.912032,207.84,0.141909
283.1000,1.58716,208.799,0.15564
283.0000,-1.32153,207.35,0.134885
282.9000,0.664752,208.626,0.153163
282.8000,-1.8293,208.219,0.147346
282.7000,1.01554,208.148,0.146324
282.6000,0.300719,208.513,0.151544
282.5000,-0.206882,208.33,0.148935
282.4000,2.59774,208.405,0.150004
282.3000,0.842331,208.295,0.148432
282.2000,1.47051,208.524,0.151706
282.1000,0.798815,207.913,0.142964
282.0000,-0.315818,207.867,0.142299
281.9000,-1.1393,207.739,0.140463
281.8000,0.599588,209.471,0.165222
281.7000,0.790493,208.908,0.157193
281.6000,1.29472,208.299,0.148481
281.5000,-0.110329,207.865,0.142266
281.4000,-0.656978,207.493,0.136935
281.3000,-1.01071,208.597,0.152742
281.2000,1.05223,208.561,0.15224
281.1000,2.86637,208.746,0.154879
281.0000,1.11827,208.222,0.147378
280.9000,-0.814517,207.952,0.143516
280.8000,0.941208,207.857,0.142152
280.7000,0.719882,209.602,0.167077
280.6000,0.477443,208.229,0.147492
280.5000,-2.1036,208.683,0.153973
280.4000,0.632772,206.968,0.129397
280.3000,0.789514,208.1,0.145642
280.2000,1.12661,207.59,0.138334
280.1000,-0.92713,209.598,0.167029
280.0000,0.032018,209.436,0.164722
279.9000,-0.20398,207.283,0.133925
279.8000,0.993112,207.712,0.140073
279.7000,0.894999,208.797,0.155607
279.6000,0.103521,207.447,0.136268
279.5000,-1.16388,208.335,0.149
279.4000,0.305187,207.801,0.141356
279.3000,0.294502,208.043,0.144815
279.2000,-0.597933,207.567,0.137992
279.1000,0.990082,208.898,0.157047
279.0000,1.25357,209.206,0.161444
278.9000,0.465887,208.186,0.146875
278.8000,0.855442,208.948,0.157759
278.7000,-0.336504,209.316,0.163011
278.6000,0.274935,209.116,0.160151
278.5000,0.491778,208.84,0.156222
278.4000,0.268066,208.167,0.1466
278.3000,-0.577481,207.691,0.13978
278.2000,1.40623,208.847,0.156319
278.1000,0.0422199,208.219,0.147346
278.0000,2.01471,208.948,0.157759
277.9000,0.899285,208.294,0.148416
277.8000,0.878746,208.643,0.153406
277.7000,0.812366,208.503,0.151398
277.6000,-0.0915214,209.053,0.159262
277.5000,-0.997083,208.99,0.158357
277.4000,-0.114817,208.622,0.153098
277.3000,-0.149027,209.692,0.168367
277.2000,1.35246,208.589,0.152629
277.1000,-0.258251,208.367,0.149453
277.0000,-0.90274,208.569,0.152354
276.9000,1.32576,208.785,0.155429
276.8000,0.452362,208.673,0.153827
276.7000,-1.24763,207.984,0.143971
276.6000,-0.557396,208.28,0.148221
276.5000,1.19304,207.831,0.141779
276.4000,1.293,208.623,0.153114
276.3000,0.363252,208.215,0.147281
276.2000,0.297696,208.859,0.156497
276.1000,0.544195,208.462,0.150815
276.0000,0.0358184,209.048,0.159181
275.9000,1.54563,207.876,0.142429
275.8000,-0.178696,207.999,0.144198
275.7000,1.10621,208.303,0.148546
275.6000,-0.540843,208.593,0.152694
275.5000,0.672743,208.257,0.147881
275.4000,0.928227,208.278,0.148189
275.3000,1.66788,208.131,0.146081
275.2000,-0.11541,209.347,0.163446
275.1000,1.2748,209.027,0.158891
275.0000,0.936053,208.066,0.145156
274.9000,1.23145,208.225,0.147427
274.8000,1.02431,208.534,0.151851
274.7000,1.32413,208.329,0.148919
274.6000,-1.6347,208.906,0.15716
274.5000,1.71993,208.976,0.158163
274.4000,0.29372,208.925,0.157435
274.3000,0.423346,208.692,0.154102
274.2000,0.328195,208.026,0.144571
274.1000,-0.0264042,208.206,0.147151
274.0000,-1.74339,208.729,0.154636
273.9000,1.28457,208.588,0.152613
273.8000,0.310259,209.368,0.163753
273.7000,-1.10177,208.239,0.147622
273.6000,-0.125808,208.68,0.15394
273.5000,1.07308,209.347,0.163446
273.4000,-0.0764581,208.739,0.154782
273.3000,0.217734,209.291,0.162655
273.2000,-0.0684988,208.346,0.149162
273.1000,0.592362,208.798,0.155623
273.0000,-1.6383,208.305,0.148578
272.9000,1.94441,208.929,0.157484
272.8000,0.0620733,208.544,0.151997
272.7000,1.52441,209.184,0.161121
272.6000,-1.31765,208.815,0.155866
272.5000,-0.252921,209.593,0.166948
272.4000,1.03902,208.593,0.152694
272.3000,-0.174687,208.99,0.158357
272.2000,1.37306,208.622,0.153098
272.1000,0.424123,208.66,0.153649
272.0000,0.655383,208.044,0.144831
271.9000,0.253159,209.112,0.160103
271.8000,1.16121,209.375,0.16385
271.7000,1.38179,209.034,0.158987
271.6000,0.900597,208.492,0.151252
271.5000,-0.0591382,209.186,0.161153
271.4000,-1.27154,208.446,0.150588
271.3000,0.387359,208.795,0.155575
271.2000,0.756109,208.91,0.157225
271.1000,-0.327188,209.096,0.159876
271.0000,1.58508,208.694,0.154135
270.9000,-0.715655,208.035,0.144701
270.8000,-0.497343,208.966,0.158017
270.7000,0.0624603,208.339,0.149064
270.6000,1.23423,208.299,0.148481
270.5000,1.22779,208.992,0.158389
270.4000,0.0525619,208.316,0.148724
270.3000,-0.50358,209.289,0.162623
270.2000,-0.429325,208.663,0.153698
270.1000,0.724324,208.78,0.155365
270.0000,-0.393933,209.261,0.162219
269.9000,0.710748,208.662,0.153681
269.8000,-1.79939,208.759,0.155057
269.7000,-1.15295,208.847,0.156319
269.6000,0.0545007,209.783,0.169657
269.5000,-0.116988,208.673,0.153827
269.4000,-0.525268,208.805,0.155721
269.3000,1.71148,209.143,0.160539
269.2000,1.09811,209.53,0.166061
269.1000,1.3341,209.068,0.159472
269.0000,0.886167,208.43,0.150361
268.9000,0.792591,209.237,0.16188
268.8000,0.181812,209.011,0.158664
268.7000,-0.475942,209.078,0.159618
268.6000,1.36773,209.304,0.162833
268.5000,1.2102,209.48,0.165351
268.4000,0.809574,209.696,0.168416
268.3000,-0.47714,209.4,0.164205
268.2000,-1.91878,208.848,0.156335
268.1000,0.21776,209.59,0.166916
268.0000,-0.90085,209.436,0.164722
267.9000,-0.654112,209.246,0.162009
267.8000,-0.182169,209.143,0.160539
267.7000,0.0468428,209.238,0.161896
267.6000,-0.345036,209.228,0.161751
267.5000,-1.10195,209.872,0.17093
267.4000,-0.936162,209.019,0.158777
267.3000,-1.15027,209.886,0.171124
267.2000,-0.589146,209.318,0.163043
267.1000,1.16546,210.24,0.176147
267.0000,0.975385,209.676,0.168142
266.9000,-1.08713,210.039,0.173298
266.8000,1.03988,209.59,0.166916
266.7000,-2.23946,210.195,0.175519
266.6000,1.1899,209.769,0.169464
266.5000,1.0003,209.429,0.164625
266.4000,-0.187711,210.164,0.175069
266.3000,-0.601648,209.544,0.166255
266.2000,-0.729169,210.347,0.177675
266.1000,0.131904,209.393,0.164108
266.0000,-0.655174,210.347,0.177675
265.9000,1.4302,210.11,0.174312
265.8000,1.00911,209.954,0.17209
265.7000,1.27615,210.237,0.176115
265.6000,1.74411,209.664,0.167964
265.5000,0.499185,209.385,0.163995
265.4000,1.20354,209.496,0.165577
265.3000,0.835126,209.487,0.165448
265.2000,2.34239,209.956,0.172123
265.1000,-0.598024,210.561,0.180714
265.0000,1.27503,210.204,0.175648
264.9000,0.188091,209.928,0.17172
264.8000,0.718167,210.539,0.180392
264.7000,1.47143,210.01,0.172879
264.6000,-0.632221,209.043,0.159117
264.5000,-0.0155591,210.243,0.176195
264.4000,0.370799,211.017,0.187168
264.3000,-0.757674,210.853,0.184841
264.2000,-0.487633,209.537,0.166158
264.1000,-0.412784,211.692,0.196715
264.0000,0.0230826,209.942,0.171913
263.9000,0.519921,210.253,0.17634
263.8000,0.25471,210.215,0.175793
263.7000,-0.407149,210.39,0.178286
263.6000,-0.515721,211.009,0.187055
263.5000,-0.433951,210.138,0.174699
263.4000,-0.00112255,210.365,0.177932
263.3000,-3.47923,210.042,0.173346
263.2000,0.462743,210.45,0.179138
263.1000,-0.965251,210.558,0.180665
263.0000,-0.805209,209.702,0.168513
262.9000,1.70747,210.09,0.174022
262.8000,0.782707,209.562,0.166513
262.7000,2.44817,210.578,0.180955
262.6000,0.423945,210.63,0.181694
262.5000,0.622498,210.262,0.176469
262.4000,-0.219432,211.046,0.187584
262.3000,-0.470499,211.458,0.193402
262.2000,1.83455,209.977,0.172412
262.1000,-0.474601,210.517,0.180087
262.0000,0.0247775,211.011,0.187087
261.9000,-1.02564,210.426,0.178801
261.8000,-0.221725,210.82,0.184375
261.7000,0.330727,210.097,0.174119
261.6000,1.03234,210.635,0.181758
261.5000,-1.24348,210.745,0.183316
261.4000,-0.570808,211.069,0.187905
261.3000,0.61336,210.135,0.174666
261.2000,-1.51603,210.446,0.179074
261.1000,-0.420487,211.034,0.187408
261.0000,0.380556,210.944,0.186141
260.9000,0.950266,211.817,0.198474
260.8000,0.217732,211.285,0.190967
260.7000,0.499153,209.887,0.17114
260.6000,-0.950614,211.538,0.194539
260.5000,1.04073,211.33,0.191592
260.4000,0.781647,211.07,0.187921
260.3000,0.284402,211.339,0.19172
260.2000,-1.11141,211.745,0.197467
260.1000,0.988712,211.579,0.195115
260.0000,-1.16947,211.225,0.190118
259.9000,-0.991274,211.511,0.194154
259.8000,1.07281,211.359,0.192008
259.7000,0.215189,211.387,0.192409
259.6000,0.928352,211.281,0.190903
259.5000,-0.749652,211.288,0.190999
259.4000,-0.948721,211.792,0.198123
259.3000,1.73766,210.33,0.177434
259.2000,0.625791,212.438,0.207227
259.1000,0.584362,210.884,0.18529
259.0000,0.404906,210.365,0.177932
258.9000,0.69934,210.9,0.185515
258.8000,2.01064,211.974,0.200696
258.7000,0.194369,211.781,0.197963
258.6000,-0.971936,211.651,0.196139
258.5000,0.151011,212.092,0.202358
258.4000,-0.153092,212.694,0.21083
258.3000,0.241389,211.574,0.195051
258.2000,0.344403,210.474,0.179476
258.1000,-1.06978,211.783,0.197995
258.0000,0.659319,211.918,0.199897
257.9000,0.938357,211.426,0.192953
257.8000,0.848453,211.58,0.195131
257.7000,0.485917,212.634,0.209985
257.6000,0.912288,211.905,0.199722
257.5000,-0.687188,212.455,0.207466
257.4000,-1.26376,212.757,0.211722
257.3000,0.183322,211.691,0.196699
257.2000,-2.27963,213.345,0.219982
257.1000,1.62995,212.921,0.214032
257.0000,-0.376916,211.497,0.193962
256.9000,-0.82297,212.97,0.214717
256.8000,-0.135067,212.058,0.201879
256.7000,1.0829,212.641,0.210081
256.6000,0.394029,212.994,0.215051
256.5000,-0.284647,212.491,0.207976
256.4000,1.2155,211.652,0.196155
256.3000,0.97527,211.708,0.196939
256.2000,-0.770157,212.506,0.208184
256.1000,1.53718,212.687,0.210735
256.0000,0.205715,211.654,0.196171
255.9000,-1.17595,211.963,0.200537
255.8000,-0.0210645,212.404,0.206748
255.7000,0.280537,213.139,0.217088
255.6000,2.95741,212.92,0.214016
255.5000,-0.132773,212.338,0.205823
255.4000,1.90005,213.4,0.220745
255.3000,-0.554712,212.356,0.206078
255.2000,-0.896872,213.321,0.219648
255.1000,-0.0867909,213.003,0.215178
255.0000,1.03875,212.909,0.213857
254.9000,-0.243179,212.899,0.213713
254.8000,0.326578,212.953,0.214478
254.7000,0.767344,213.057,0.215942
254.6000,0.526647,213.287,0.219171
254.5000,-1.74114,213.351,0.220062
254.4000,-0.07998,213.008,0.215242
254.3000,0.0275385,213.123,0.216865
254.2000,0.428144,212.874,0.213363
254.1000,0.607553,212.756,0.211707
254.0000,1.10248,213.533,0.22262
253.9000,0.399737,212.876,0.213395
253.8000,1.31994,213.097,0.216499
253.7000,-0.212707,211.971,0.200648
253.6000,-0.663195,213.033,0.215592
253.5000,-0.476531,213.753,0.2257
253.4000,0.997224,213.027,0.215513
253.3000,0.807378,212.778,0.212009
253.2000,1.94608,214.266,0.232883
253.1000,0.42345,212.574,0.209141
253.0000,1.24172,213.911,0.227906
252.9000,0.559896,214.74,0.239498
252.8000,0.396717,212.586,0.209316
252.7000,0.740664,213.372,0.220364
252.6000,1.77614,212.375,0.206349
252.5000,0.720834,212.243,0.204482
252.4000,0.451124,212.903,0.213777
252.3000,-2.10607,213.592,0.223446
252.2000,-1.13535,213.557,0.222953
252.1000,0.455644,213.153,0.217279
252.0000,-0.580433,214.065,0.230062
251.9000,-1.26314,214.077,0.230237
251.8000,0.10073,213.842,0.226938
251.7000,2.00284,213.777,0.226033
251.6000,0.565854,212.878,0.213427
251.5000,-1.65343,213.59,0.223414
251.4000,-1.21111,214.081,0.230284
251.3000,0.214967,214.046,0.229793
251.2000,-0.445934,213.709,0.225081
251.1000,0.684611,213.758,0.225764
251.0000,0.451741,213.837,0.226875
250.9000,0.353984,213.955,0.228524
250.8000,-0.460089,213.896,0.227699
250.7000,0.587285,214.963,0.242611
250.6000,0.32802,214.081,0.230284
250.5000,0.42403,213.827,0.226732
250.4000,0.150915,213.886,0.227557
250.3000,0.446598,213.617,0.223795
250.2000,-0.930928,214.426,0.235116
250.1000,0.318286,215.123,0.244838
250.0000,0.467263,213.785,0.226145
249.9000,1.5113,214.455,0.235511
249.8000,0.315356,214.513,0.236334
249.7000,1.92573,215.019,0.243385
249.6000,-0.45788,214.115,0.23076
249.5000,0.557241,215.078,0.244207
249.4000,-1.11403,213.573,0.223176
249.3000,-0.329728,214.231,0.232392
249.2000,0.00257859,214.852,0.241063
249.1000,-0.653327,214.469,0.235717
249.0000,0.792736,214.834,0.24081
248.9000,-1.01397,214.809,0.240462
248.8000,0.35426,215.014,0.243322
248.7000,0.18365,214.387,0.234562
248.6000,0.720124,215.256,0.246685
248.5000,0.767549,215.675,0.252519
248.4000,0.308973,214.521,0.236445
248.3000,-0.171926,215.207,0.246006
248.2000,-1.18682,215.057,0.243922
248.1000,-1.41995,215.956,0.256424
248.0000,-0.559453,214.026,0.229523
247.9000,-1.24773,214.487,0.23597
247.8000,-1.7051,215.164,0.245406
247.7000,-0.863465,215.032,0.243575
247.6000,0.128684,215.427,0.249067
247.5000,0.439386,215,0.243117
247.4000,-0.313897,215.216,0.246132
247.3000,0.0119301,216.446,0.263232
247.2000,-0.587879,214.95,0.242422
247.1000,-0.613425,214.242,0.232534
247.0000,-0.102806,213.49,0.222016
246.9000,-1.80493,214.56,0.236983
246.8000,-2.11344,216.526,0.264331
246.7000,-2.61342,216.222,0.26012
246.6000,0.809876,215.364,0.248199
246.5000,-1.90774,215.581,0.251211
246.4000,0.430187,215.38,0.24842
246.3000,1.00136,215.377,0.248373
246.2000,-0.0803485,215.435,0.249177
246.1000,-0.280726,216.116,0.258642
246.0000,-0.671298,216.397,0.262541
245.9000,-0.166715,216.56,0.264802
245.8000,-2.17225,216.131,0.258862
245.7000,-0.117894,215.652,0.252204
245.6000,-1.00255,216.486,0.263782
245.5000,0.118631,216.388,0.262415
245.4000,-1.47353,216.435,0.263075
245.3000,-2.18722,216.264,0.260702
245.2000,-1.33747,215.719,0.253133
245.1000,-0.621074,216.459,0.263405
245.0000,0.559563,216.426,0.262949
244.9000,-0.0428301,216.417,0.262823
244.8000,-0.508081,216.36,0.262038
244.7000,-1.63521,216.621,0.26565
244.6000,-2.96948,216.793,0.268036
244.5000,-2.67473,215.945,0.256267
244.4000,0.137818,216.797,0.268083
244.3000,-1.46206,215.563,0.250959
244.2000,-2.11491,216.669,0.26631
244.1000,-2.44588,216.981,0.270639
244.0000,0.831957,217.079,0.271987
243.9000,-1.95295,217.289,0.2749
243.8000,-2.23301,217.194,0.273585
243.7000,-0.66193,216.891,0.269385
243.6000,-4.64331,217.192,0.273554
243.5000,-2.05571,216.822,0.268428
243.4000,-1.64041,217.08,0.272002
243.3000,-2.60823,217.069,0.271846
243.2000,-2.41909,217.316,0.275261
243.1000,-1.63285,217.242,0.274243
243.0000,-2.60432,217.47,0.277389
242.9000,-2.60731,217.384,0.2762
242.8000,-3.07332,217.532,0.27825
242.7000,-3.30561,217.374,0.276074
242.6000,-3.42826,217.437,0.276935
242.5000,-4.90891,217.676,0.280236
242.4000,-3.51548,217.918,0.28358
242.3000,-5.08831,217.637,0.279704
242.2000,-3.59577,218.104,0.286141
242.1000,-2.00666,218.742,0.294919
242.0000,-5.01926,218.338,0.289355
241.9000,-5.17352,218.391,0.290089
241.8000,-3.37006,218.462,0.291071
241.7000,-3.7581,218.041,0.285267
241.6000,-3.8864,218.392,0.290104
241.5000,-4.58758,218.321,0.289122
241.4000,-5.35005,217.968,0.284268
241.3000,-3.64798,218.735,0.294826
241.2000,-3.26868,218.63,0.293377
241.1000,-3.46225,218.934,0.29755
241.0000,-3.92371,218.655,0.29372
240.9000,-3.6203,219.089,0.299681
240.8000,-6.70313,218.312,0.288997
240.7000,-5.59141,219.11,0.299977
240.6000,-4.21845,219.413,0.304126
240.5000,-6.01582,220.267,0.31582
240.4000,-6.13604,219.492,0.305214
240.3000,-6.0088,220.152,0.31424
240.2000,-4.02678,219.469,0.304903
240.1000,-5.21295,219.672,0.307682
240.0000,-8.15864,219.48,0.305043
239.9000,-5.43314,220.835,0.323569
239.8000,-7.19262,220.281,0.316006
239.7000,-4.89859,220.92,0.324727
239.6000,-7.33629,220.876,0.324125
239.5000,-5.3251,220.763,0.322595
239.4000,-6.73272,220.538,0.319519
239.3000,-6.90295,220.658,0.321158
239.2000,-6.89223,220.587,0.320183
239.1000,-7.18032,221.447,0.331903
239.0000,-7.21,221.651,0.334676
238.9000,-6.00322,221.842,0.337279
238.8000,-9.58426,221.157,0.327954
238.7000,-5.57063,220.966,0.325361
238.6000,-8.19874,221.791,0.336586
238.5000,-7.38887,221.728,0.335724
238.4000,-8.65981,221.387,0.331086
238.3000,-9.04455,222.843,0.350845
238.2000,-8.95263,222.949,0.352287
238.1000,-10.675,222.52,0.346472
238.0000,-6.80854,222.984,0.352762
237.9000,-7.99288,223.282,0.356791
237.8000,-8.91294,223.09,0.354187
237.7000,-10.6064,222.967,0.352532
237.6000,-6.82247,223.085,0.354126
237.5000,-10.4283,223.604,0.361137
237.4000,-9.64904,223.66,0.361886
237.3000,-8.90411,223.961,0.365951
237.2000,-10.4043,223.524,0.360051
237.1000,-12.3976,223.768,0.363354
237.0000,-9.89342,223.712,0.362589
236.9000,-10.6222,224.109,0.367951
236.8000,-12.5788,224.881,0.378331
236.7000,-12.2394,225.102,0.381298
236.6000,-13.822,225.252,0.383305
236.5000,-14.8837,225.246,0.383229
236.4000,-15.6114,225.947,0.392626
236.3000,-14.374,225.929,0.392384
236.2000,-12.8284,226.181,0.395749
236.1000,-12.6583,225.296,0.383898
236.0000,-14.3746,225.795,0.390594
235.9000,-15.1278,225.116,0.381481
235.8000,-14.1691,227.185,0.409146
235.7000,-12.2739,226.336,0.397823
235.6000,-13.1851,226.032,0.393763
235.5000,-13.8626,226.816,0.404237
235.4000,-14.5374,226.779,0.403738
235.3000,-16.6196,226.472,0.39964
235.2000,-14.9254,225.691,0.389198
235.1000,-15.168,225.919,0.392247
235.0000,-14.5647,227.357,0.411439
234.9000,-13.5887,227.682,0.415766
234.8000,-16.1132,226.661,0.402166
234.7000,-18.028,226.998,0.406655
234.6000,-19.1195,227.462,0.412842
234.5000,-18.177,227.004,0.406745
234.4000,-17.2103,228.587,0.427784
234.3000,-18.2395,228.622,0.42825
234.2000,-18.3296,228.236,0.423126
234.1000,-20.5431,228.407,0.425396
234.0000,-17.5293,228.584,0.427739
233.9000,-18.3531,229.387,0.438371
233.8000,-19.3353,229.216,0.436109
233.7000,-19.1982,228.645,0.42855
233.6000,-20.2013,230.014,0.446643
233.5000,-20.4512,230.086,0.447599
233.4000,-22.4745,230.274,0.450077
233.3000,-21.1949,230.399,0.451719
233.2000,-21.4023,230.773,0.456639
233.1000,-21.6564,230.342,0.450973
233.0000,-19.6276,230.686,0.455492
232.9000,-23.8161,231.046,0.460228
232.8000,-23.1332,231.323,0.463858
232.7000,-20.754,231.787,0.46995
232.6000,-21.4878,231.441,0.465419
232.5000,-21.2917,231.737,0.469297
232.4000,-23.0501,232.45,0.478625
232.3000,-22.9075,232.571,0.480209
232.2000,-26.4466,232.554,0.479987
232.1000,-23.5029,232.419,0.478225
232.0000,-21.8517,232.15,0.474698
231.9000,-22.7522,233.062,0.486614
231.8000,-26.1528,233.268,0.489303
231.7000,-26.9694,233.111,0.487249
231.6000,-25.2478,233.614,0.493804
231.5000,-26.3353,233.917,0.497755
231.4000,-27.6708,233.279,0.48945
231.3000,-29.1575,234.258,0.502187
231.2000,-28.7335,234.044,0.499405
231.1000,-29.7432,234.062,0.49964
231.0000,-26.9086,234.977,0.511505
230.9000,-27.4996,234.28,0.502467
230.8000,-29.0775,234.51,0.505453
230.7000,-27.7365,234.929,0.510889
230.6000,-29.5446,234.632,0.50704
230.5000,-30.0645,235.357,0.516434
230.4000,-29.3323,235.121,0.513369
230.3000,-31.1567,235.857,0.522894
230.2000,-31.0584,235.184,0.514191
230.1000,-30.1875,235.771,0.521781
230.0000,-31.5761,235.749,0.521503
229.9000,-31.7459,235.37,0.516596
229.8000,-31.9655,236.6,0.532481
229.7000,-31.5388,236.221,0.527588
229.6000,-32.7065,237.414,0.542946
229.5000,-31.4034,237.163,0.539728
229.4000,-31.3615,237.375,0.542451
229.3000,-34.6659,237.758,0.547368
229.2000,-34.0411,237.272,0.541126
229.1000,-35.0365,237.315,0.541679
229.0000,-36.0607,238.023,0.550768
228.9000,-32.9097,237.396,0.542713
228.8000,-35.2275,238.669,0.559037
228.7000,-35.9342,239.269,0.566695
228.6000,-32.364,238.702,0.559457
228.5000,-36.2101,238.904,0.562036
228.4000,-37.3741,238.996,0.563208
228.3000,-36.7696,239.385,0.568184
228.2000,-37.3622,239.416,0.568575
228.1000,-37.283,239.239,0.566319
228.0000,-37.0743,239.882,0.57451
227.9000,-37.9746,238.989,0.563121
227.8000,-37.589,240.562,0.583158
227.7000,-38.1534,240.193,0.578477
227.6000,-37.625,240.707,0.585001
227.5000,-38.5891,240.985,0.588539
227.4000,-38.342,241.179,0.590997
227.3000,-39.3859,242.515,0.607896
227.2000,-38.6311,241.725,0.597915
227.1000,-37.4342,242.305,0.605249
227.0000,-39.5683,241.147,0.590594
226.9000,-41.7329,242.464,0.607252
226.8000,-41.8949,242.01,0.601512
226.7000,-41.1916,243.031,0.614397
226.6000,-41.4771,244.258,0.629825
226.5000,-39.16,242.808,0.611598
226.4000,-43.7866,243.665,0.622383
226.3000,-40.9768,243.755,0.623508
226.2000,-41.1426,244.196,0.629058
226.1000,-44.174,244.199,0.629086
226.0000,-42.8402,244.372,0.631261
225.9000,-41.965,244.48,0.632611
225.8000,-44.6662,245.085,0.640189
225.7000,-43.973,245.622,0.646903
225.6000,-42.3777,245.164,0.641181
225.5000,-41.641,246.328,0.655708
225.4000,-42.3701,245.169,0.641238
225.3000,-44.4358,247.29,0.667675
225.2000,-47.0405,245.552,0.646025
225.1000,-45.4878,247.389,0.668913
225.0000,-44.7003,245.606,0.646704
224.9000,-43.3675,246.738,0.660815
224.8000,-42.4596,246.8,0.661591
224.7000,-43.9744,246.572,0.658756
224.6000,-45.5696,247.267,0.667393
224.5000,-44.6115,247.825,0.674311
224.4000,-44.0466,248.421,0.681692
224.3000,-45.7758,248.035,0.676923
224.2000,-45.3929,248.343,0.680739
224.1000,-46.1639,247.504,0.670333
224.0000,-46.809,247.929,0.675603
223.9000,-48.1627,248.202,0.678985
223.8000,-46.1385,249.917,0.700165
223.7000,-47.5865,250.009,0.701295
223.6000,-43.6352,250.079,0.702159
223.5000,-44.9817,247.985,0.676305
223.4000,-46.0379,250.392,0.706005
223.3000,-47.8704,248.873,0.687281
223.2000,-48.1864,250.67,0.709416
223.1000,-46.2321,250.821,0.71128
223.0000,-46.6297,249.748,0.698086
222.9000,-43.0993,250.757,0.710487
222.8000,-46.4176,251.325,0.71745
222.7000,-44.2611,249.619,0.696495
222.6000,-48.7962,251.865,0.724067
222.5000,-47.7855,251.824,0.723568
222.4000,-45.3724,250.509,0.70744
222.3000,-45.9569,251.904,0.724538
222.2000,-45.6594,252.301,0.729399
222.1000,-49.5363,252.577,0.732761
222.0000,-46.6805,254.196,0.752469
221.9000,-48.521,253.372,0.742455
221.8000,-46.5877,254.519,0.756387
221.7000,-48.2924,255.067,0.763031
221.6000,-49.4359,253.437,0.743241
221.5000,-44.394,253.916,0.749069
221.4000,-47.9246,253.426,0.743117
221.3000,-50.7586,254.349,0.754325
221.2000,-48.2717,254.902,0.761028
221.1000,-48.695,255.15,0.764032
221.0000,-47.7623,255.073,0.763099
220.9000,-46.6983,254.986,0.762043
220.8000,-47.9282,256.448,0.779713
220.7000,-44.4279,255.472,0.767924
220.6000,-45.9177,255.452,0.767691
220.5000,-43.7625,255.898,0.773071
220.4000,-45.8858,257.403,0.791206
220.3000,-44.9996,257.066,0.787147
220.2000,-49.5162,256.96,0.78588
220.1000,-45.5432,258.216,0.800953
220.0000,-47.0241,256.998,0.786329
219.9000,-46.8198,258.166,0.800355
219.8000,-47.9688,257.91,0.797285
219.7000,-47.566,257.691,0.794662
219.6000,-47.2269,258.552,0.804983
219.5000,-49.8629,258.93,0.809497
219.4000,-44.8169,258.424,0.80345
219.3000,-44.5739,259.67,0.818332
219.2000,-47.1655,259.878,0.820817
219.1000,-48.7373,259.327,0.814248
219.0000,-41.4154,258.952,0.809768
218.9000,-46.1309,259.366,0.814708
218.8000,-48.1508,262.14,0.847676
218.7000,-44.0879,260.397,0.826997
218.6000,-46.1203,262.094,0.84714
218.5000,-47.1376,259.453,0.81575
218.4000,-47.602,260.942,0.833477
218.3000,-45.0062,261.904,0.844886
218.2000,-47.9377,261.557,0.840778
218.1000,-46.6119,261.92,0.845074
218.0000,-46.6948,262.94,0.85713
217.9000,-49.5023,262.386,0.850585
217.8000,-46.1095,263.531,0.864105
217.7000,-49.7126,262.569,0.852755
217.6000,-47.0522,262.629,0.853464
217.5000,-45.4768,263.75,0.866681
217.4000,-44.3195,262.875,0.856368
217.3000,-42.8041,264.035,0.870041
217.2000,-46.2699,264.029,0.869961
217.1000,-47.9358,264.545,0.876034
217.0000,-46.253,265.138,0.882987
216.9000,-49.3564,265.411,0.886187
216.8000,-45.9554,264.7,0.877857
216.7000,-49.6761,265.361,0.885603
216.6000,-48.5441,266.09,0.894128
216.5000,-47.104,266.104,0.8943
216.4000,-43.3993,266.077,0.893982
216.3000,-44.9658,267.244,0.907598
216.2000,-44.9873,266.943,0.904086
216.1000,-45.6433,267.394,0.909339
216.0000,-45.0211,267.577,0.911475
215.9000,-42.553,268.497,0.922163
215.8000,-46.577,268.393,0.920954
215.7000,-47.4401,267.873,0.914914
215.6000,-44.7372,268.739,0.924962
215.5000,-43.1745,268.896,0.926787
215.4000,-49.3278,269.588,0.9348
215.3000,-48.5454,269.658,0.935599
215.2000,-47.2138,269.261,0.931012
215.1000,-43.8207,270.201,0.94188
215.0000,-44.9676,270.55,0.945905
214.9000,-45.836,270.043,0.940049
214.8000,-48.1724,270.623,0.946741
214.7000,-44.9171,271.228,0.953708
214.6000,-44.728,271.459,0.956366
214.5000,-44.9514,271.507,0.956913
214.4000,-46.6597,270.656,0.94712
214.3000,-47.4921,272.453,0.967771
214.2000,-45.055,272.207,0.964953
214.1000,-42.1665,272.531,0.968667
214.0000,-48.1832,272.869,0.972534
213.9000,-47.6605,272.76,0.971289
213.8000,-43.9955,274.358,0.989537
213.7000,-46.5318,273.912,0.98446
213.6000,-46.3033,273.789,0.98305
213.5000,-45.2305,274.591,0.992196
213.4000,-49.3365,274.544,0.991666
213.3000,-47.5308,275.011,0.996979
213.2000,-43.6584,275.468,1.00217
213.1000,-46.0552,275.567,1.00329
213.0000,-46.2928,275.884,1.00689
212.9000,-48.3466,276.045,1.00871
212.8000,-43.7885,276.522,1.01412
212.7000,-46.0329,276.745,1.01664
212.6000,-44.6458,276.885,1.01823
212.5000,-46.4217,276.907,1.01847
212.4000,-51.552,278.048,1.03135
212.3000,-49.4648,278.322,1.03444
212.2000,-47.4852,278.732,1.03906
212.1000,-47.4231,279.025,1.04234
212.0000,-45.4736,279.096,1.04315
211.9000,-48.5614,280.091,1.0543
211.8000,-49.0359,279.692,1.04983
211.7000,-49.0309,279.609,1.04891
211.6000,-45.3789,280.393,1.05769
211.5000,-49.6592,282.023,1.07588
211.4000,-51.0693,281.199,1.06669
211.3000,-48.3172,281.378,1.06869
211.2000,-51.6579,281.673,1.07198
211.1000,-48.672,283.13,1.08819
211.0000,-45.5011,285.202,1.11112
210.9000,-48.7003,285.104,1.11003
210.8000,-49.7873,283.29,1.08996
210.7000,-49.5653,284.553,1.10395
210.6000,-49.5918,284.521,1.1036
210.5000,-52.514,285.381,1.1131
210.4000,-50.3855,285.914,1.11896
210.3000,-54.5416,286.089,1.1209
210.2000,-51.2046,286.396,1.12427
210.1000,-48.661,285.995,1.11986
210.0000,-46.8914,287.29,1.13409
209.9000,-50.0737,287.434,1.13567
209.8000,-50.2599,288.898,1.15168
209.7000,-51.2641,288.746,1.15002
209.6000,-47.1942,289.575,1.15906
209.5000,-49.1986,289.256,1.15559
209.4000,-50.951,291.085,1.17548
209.3000,-49.4315,291.077,1.17539
209.2000,-49.7943,292.079,1.18624
209.1000,-52.1094,292.461,1.19037
209.0000,-49.7322,292.573,1.19158
208.9000,-47.6872,294.15,1.20858
208.8000,-50.4282,294.062,1.20763
208.7000,-49.8298,293.472,1.20128
208.6000,-47.7836,297.111,1.24028
208.5000,-48.9716,294.533,1.21269
208.4000,-51.1661,295.068,1.21843
208.3000,-51.8954,296.42,1.2329
208.2000,-51.3857,296.924,1.23829
208.1000,-51.7233,298.033,1.2501
208.0000,-54.2988,298.226,1.25215
207.9000,-48.057,297.953,1.24925
207.8000,-47.8309,299.663,1.26741
207.7000,-49.8654,301.15,1.28311
207.6000,-46.6747,299.78,1.26864
207.5000,-51.5703,301.364,1.28537
207.4000,-43.6685,300.62,1.27752
207.3000,-48.6098,303.963,1.31266
207.2000,-47.4393,303.152,1.30417
207.1000,-50.0863,304.435,1.31759
207.0000,-43.5302,305.401,1.32768
206.9000,-46.0805,305.382,1.32748
206.8000,-45.1016,305.554,1.32927
206.7000,-42.2686,307.16,1.34596
206.6000,-40.7575,308.986,1.36486
206.5000,-44.8359,308.001,1.35467
206.4000,-46.5149,309.346,1.36856
206.3000,-45.0739,309.131,1.36636
206.2000,-40.4296,310.71,1.3826
206.1000,-43.8509,311.511,1.39082
206.0000,-41.9684,311.253,1.38818
205.9000,-44.3295,312.959,1.40564
205.8000,-40.3425,313.522,1.41139
205.7000,-42.5927,314.255,1.41885
205.6000,-46.9109,314.357,1.41989
205.5000,-39.7766,316.113,1.43772
205.4000,-39.3564,317.419,1.45091
205.3000,-41.0497,317.666,1.4534
205.2000,-44.2232,318.187,1.45866
205.1000,-27.7785,319.715,1.47402
205.0000,-35.3351,321.084,1.48772
204.9000,-35.5647,320.925,1.48614
204.8000,-42.6379,322.583,1.50268
204.7000,-28.4723,322.275,1.49961
204.6000,-29.601,326.53,1.54177
204.5000,-29.7675,323.481,1.5116
204.4000,-25.9523,325.727,1.53386
204.3000,-25.7568,326.615,1.54261
204.2000,-36.8936,328.355,1.55972
204.1000,-32.2903,328.877,1.56484
204.0000,-22.2293,329.789,1.57377
203.9000,-26.4713,329.757,1.57345
203.8000,-28.4119,333.571,1.61055
203.7000,-26.295,333.557,1.61042
203.6000,-23.6183,334.574,1.62025
203.5000,-20.1273,335.293,1.62719
203.4000,-19.4871,337.309,1.64657
203.3000,-16.423,337.534,1.64873
203.2000,-20.4211,339.375,1.66634
203.1000,-13.7218,339.219,1.66485
203.0000,-20.7394,341.511,1.68667
202.9000,-22.4796,342.305,1.6942
202.8000,-17.1262,342.965,1.70044
202.7000,-9.54886,343.278,1.7034
202.6000,-16.3767,344.784,1.71762
202.5000,-7.04037,345.867,1.7278
202.4000,-9.00773,347.587,1.74392
202.3000,-13.0824,347.955,1.74736
202.2000,-7.71559,350.429,1.77042
202.1000,-5.379,351.813,1.78325
202.0000,-5.17049,353.841,1.80199
201.9000,-6.46197,354.65,1.80943
201.8000,-0.681599,356.112,1.82285
201.7000,3.40368,358.106,1.84109
201.6000,7.86487,359.477,1.85358
201.5000,8.92484,359.927,1.85767
201.4000,3.77664,361.799,1.87463
201.3000,4.80234,361.149,1.86876
201.2000,4.77808,364.781,1.90151
201.1000,4.52328,366.338,1.91547
201.0000,9.43887,366.879,1.92032
200.9000,6.32571,367.716,1.92779
200.8000,9.40421,369.364,1.94247
200.7000,13.8983,369.462,1.94334
200.6000,1.77729,372.429,1.96962
200.5000,5.74757,373.624,1.98016
200.4000,16.0679,375.74,1.99874
200.3000,5.17806,376.761,2.00767
200.2000,22.6845,378.924,2.02654
200.1000,21.0987,378.156,2.01985
200.0000,11.7851,380.772,2.04259
199.9000,15.5712,384.297,2.07301
199.8000,19.7993,385.089,2.07982
199.7000,21.6778,386.825,2.09469
199.6000,9.50323,387.762,2.10269
199.5000,25.1821,388.344,2.10766
199.4000,31.0795,389.455,2.11711
199.3000,37.172,391.958,2.13834
199.2000,12.9661,393.758,2.15353
199.1000,32.9844,395.116,2.16496
199.0000,34.0816,396.866,2.17963
198.9000,21.5944,398.168,2.19051
198.8000,29.1403,400.416,2.20923
198.7000,22.8235,401.71,2.21996
198.6000,31.0464,403.917,2.2382
198.5000,40.5983,406.214,2.2571
198.4000,41.829,406.355,2.25826
198.3000,29.897,407.833,2.27036
198.2000,24.0003,408.679,2.27728
198.1000,31.8058,412.706,2.31002
198.0000,32.2342,412.737,2.31027
197.9000,46.4991,414.512,2.32462
197.8000,41.3011,417.092,2.34538
197.7000,44.9505,418.41,2.35595
197.6000,33.0554,420.267,2.37078
197.5000,45.3566,421.724,2.38239
197.4000,35.3353,423.871,2.39943
197.3000,39.6089,424.514,2.40451
197.2000,41.5903,426.935,2.42361
197.1000,37.9901,428.761,2.43795
197.0000,39.5968,430.157,2.44888
196.9000,30.0658,432.284,2.46549
196.8000,39.3715,434.977,2.4864
196.7000,40.1232,436.106,2.49514
196.6000,44.2696,436.737,2.50002
196.5000,38.3913,439.517,2.52142
196.4000,42.2115,441.725,2.53834
196.3000,33.4611,441.789,2.53883
196.2000,31.2583,443.818,2.55432
196.1000,42.3547,447.529,2.58248
196.0000,54.352,448.937,2.59312
195.9000,30.6389,449.543,2.59769
195.8000,42.1516,451.39,2.61158
195.7000,47.1594,453.554,2.6278
195.6000,25.8988,454.453,2.63451
195.5000,45.0938,456.021,2.6462
195.4000,42.3997,458.016,2.66103
195.3000,47.3441,459.508,2.67208
195.2000,53.0584,461.92,2.68988
195.1000,36.4381,462.698,2.69561
195.0000,51.0585,463.855,2.70411
194.9000,35.0281,465.709,2.71769
194.8000,50.4039,466.531,2.7237
194.7000,46.1581,469.08,2.74226
194.6000,39.6032,468.745,2.73983
194.5000,44.9911,470.856,2.75516
194.4000,42.9049,472.227,2.76508
194.3000,47.6189,473.407,2.7736
194.2000,34.3589,475.786,2.79072
194.1000,31.3815,478.133,2.80754
194.0000,40.7135,478.822,2.81246
193.9000,33.1186,481.104,2.82873
193.8000,38.287,482.737,2.84033
193.7000,40.7885,485.138,2.85733
193.6000,47.0697,485.887,2.86262
193.5000,36.2157,487.732,2.87562
193.4000,39.4776,488.257,2.87931
193.3000,41.7279,489.734,2.88968
193.2000,30.7931,490.167,2.89271
193.1000,36.3876,490.467,2.89482
193.0000,30.6468,493,2.9125
192.9000,41.2757,494.247,2.92119
192.8000,42.8815,495.964,2.93311
192.7000,28.0148,498.674,2.95186
192.6000,17.7211,499.447,2.95719
192.5000,33.0954,500.818,2.96663
192.4000,41.2425,501.947,2.97439
192.3000,26.9747,504.403,2.99121
192.2000,19.8718,505.392,2.99797
192.1000,23.8885,506.448,3.00517
192.0000,30.952,508.689,3.02041
191.9000,30.6367,509.377,3.02508
191.8000,21.6403,511.137,3.03699
191.7000,43.4641,512.836,3.04846
191.6000,29.4901,514.144,3.05727
191.5000,29.1997,515.418,3.06582
191.4000,19.9459,517.027,3.07661
191.3000,29.6,518.44,3.08606
191.2000,24.5109,520.111,3.0972
191.1000,22.2858,521.761,3.10818
191.0000,21.689,525.052,3.12999
190.9000,25.531,526.006,3.13629
190.8000,23.2663,528.209,3.15079
190.7000,29.6912,530.705,3.16717
190.6000,13.0551,532.308,3.17765
190.5000,13.0781,532.461,3.17865
190.4000,25.5608,535.368,3.19759
190.3000,19.0917,536.756,3.2066
190.2000,11.5225,538.453,3.21759
190.1000,33.2733,540.086,3.22814
190.0000,35.6731,541.867,3.23961

##### Extended Information
[Comments]
Sample name,TB_TH_KD_Buffer and Protein 
Comment,Buffer and Protein
User,Tara_Tyler_Kimani
Division
Company,Saint Mary's College

[Detailed Information]
Creation date,9/29/2022 3:46 PM

Data array type,Linear data array * 3
Horizontal axis,Wavelength [nm]
Vertical axis(1),CD [mdeg]
Vertical axis(2),HT [V]
Vertical axis(3),Abs
Start,320 nm
End,190 nm
Data interval,0.1 nm
Data points,1301    

[Measurement Information]
Instrument name,J-1500
Model name,J-1500
Serial No.,B051061638

Detector,PM-539
Detector S/N,B051061638
  Lock-in amp.,X mode
  HT volt,Auto

Accessory,PTC-517
Accessory S/N,B026561646
  Temperature,22.15 C
  Control sensor,Holder
  Monitor sensor,Holder

Measurement date,9/29/2022 3:46 PM

CD Overload detect,968
Photometric mode,CD, HT, Abs
Measure range,320 - 190 nm
Data pitch,0.1 nm
CD scale,20 mdeg/0.05 dOD
FL scale,20 mdeg/0.05 dOD
D.I.T.,8 msec
Bandwidth,2.00 nm
Start mode,Immediately
Scanning mode,Continuous
Scanning speed,200 nm/min
Baseline correction,None
Shutter control,Auto
No. of cycle,1/1
N2 Flowmeter,Manual

Solvent,NaPO4 buffer

