TITLE,TB_TH_KD_Protein and Additive,,
DATA TYPE,,,
ORIGIN,JASCO,,
OWNER,,,
DATE,22/09/29,,
TIME,16:59:09,,
SPECTROMETER/DATA SYSTEM,,,
LOCALE,1033,,
RESOLUTION,,,
DELTAX,-0.1,,
XUNITS,NANOMETERS,,
YUNITS,CD [mdeg],,
Y2UNITS,HT [V],,
Y3UNITS,ABSORBANCE,,
FIRSTX,320,,
LASTX,190,,
NPOINTS,1301,,
FIRSTY,0.84122,,
MAXY,28.98565,,
MINY,-60.63684,,
XYDATA,,,
320,0.444899,139.9271863,0.1660243333
319.9,0.6052756667,139.685671,0.1689746667
319.8,1.25536,139.7226817,0.1663503333
319.7,1.300204333,139.871423,0.168426
319.6,1.029717333,139.696719,0.165964
319.5,1.073184,139.8579537,0.16716
319.4,1.4485534,139.6997997,0.167243
319.3,1.214252333,139.5102873,0.1639286667
319.2,1.040712333,139.6388103,0.166151
319.1,1.86093,139.4007937,0.159482
319,1.353525333,139.5380113,0.1623363333
318.9,2.02619,139.3171103,0.156846
318.8,0.4689046667,139.6124017,0.166349
318.7,1.106834233,139.7560203,0.1626723333
318.6,1.119815,139.4023113,0.1596713333
318.5,0.891475,139.4351863,0.158091
318.4,0.3391556667,139.4014167,0.1569973333
318.3,0.8074943333,139.5113483,0.1616793333
318.2,1.593406667,139.7990683,0.164789
318.1,1.387657667,139.8094073,0.1668193333
318,0.7849946667,139.503998,0.1624333333
317.9,2.14077,139.8518537,0.1659896667
317.8,1.960761,140.13156,0.169635
317.7,0.9740931667,139.2485897,0.1571273333
317.6,0.7791946667,139.3965423,0.161436
317.5,1.171987333,139.4631763,0.163821
317.4,1.043573,139.3411073,0.1566046667
317.3,0.9326993333,140.0869447,0.1656063333
317.2,1.398011667,139.6327533,0.164692
317.1,1.366572667,139.450393,0.158151
317,1.694588633,139.675674,0.161935
316.9,0.3986343333,139.529404,0.1621536667
316.8,1.36341,139.709413,0.1626156667
316.7,0.9743976667,139.5865957,0.1644433333
316.6,1.207346,139.432782,0.163563
316.5,1.158811667,139.665896,0.16656
316.4,1.505373333,138.9146103,0.1495383333
316.3,1.714453333,139.7504773,0.1619173333
316.2,1.208858667,140.1070253,0.1692343333
316.1,1.135801,139.7852617,0.164681
316,1.227237,139.7398097,0.162163
315.9,1.368980667,139.3262213,0.1582383333
315.8,0.30585437,139.7283373,0.1632496667
315.7,-0.4184526667,139.417599,0.1639936667
315.6,0.354651,139.257748,0.1563506667
315.5,1.728074233,139.5664893,0.1639603333
315.4,1.138710333,139.5030813,0.1595033333
315.3,1.356028067,139.529439,0.157657
315.2,0.757939,138.9793203,0.153659
315.1,1.516786,139.2408053,0.1563886667
315,1.104274667,139.248041,0.1552546667
314.9,0.7282793333,139.3120353,0.159535
314.8,0.6698923333,139.2197577,0.1575286667
314.7,1.311170333,139.404362,0.1555913333
314.6,0.2458983333,139.2928763,0.1582373333
314.5,1.950666667,139.1768193,0.1557196667
314.4,-0.5781243,139.2582443,0.157208
314.3,1.084554333,139.617073,0.1618673333
314.2,0.922216,139.2681043,0.156211
314.1,0.940696,139.239319,0.1552116667
314,1.630401333,139.037907,0.15246
313.9,0.5338566667,139.5288307,0.159401
313.8,1.243123333,139.1647977,0.1560693333
313.7,0.916085,139.4415687,0.1590766667
313.6,2.044193333,139.4252303,0.15691
313.5,1.870993333,138.9559957,0.151118
313.4,1.8675,139.111074,0.1550543333
313.3,0.442421,138.9674663,0.1482786667
313.2,0.4508213333,139.448632,0.154807
313.1,1.039838,139.2971137,0.1549203333
313,1.502027333,139.3781913,0.1602183333
312.9,1.077499667,139.31468,0.15466
312.8,1.78719,139.4041817,0.1565746667
312.7,0.6533233333,138.8737887,0.1499423333
312.6,1.328307,139.1591133,0.1537303333
312.5,0.749386,139.04228,0.1540903333
312.4,1.285507,139.077586,0.1515163333
312.3,1.325046667,139.010045,0.1523246667
312.2,0.9241843333,138.939045,0.1483486667
312.1,0.001296333333,138.7517833,0.148673
312,0.7496226667,139.486594,0.1625593333
311.9,0.1947943333,139.344539,0.1600783333
311.8,0.6739353333,139.5336463,0.161077
311.7,0.8702433333,139.2438193,0.155675
311.6,1.211673333,139.0398047,0.1482676667
311.5,1.415386667,139.2407313,0.1550266667
311.4,1.778797667,139.230486,0.1527403333
311.3,0.878559,139.0085887,0.1475886667
311.2,0.6540066667,139.3065173,0.1641626667
311.1,0.7508226667,139.863724,0.1633063333
311,0.7079616333,139.4670793,0.1593243333
310.9,0.4797453333,139.4287607,0.1541753333
310.8,1.530039333,139.1693157,0.1505626667
310.7,0.5747493333,139.2418297,0.157045
310.6,0.7451953333,139.5396657,0.1561743333
310.5,1.584866667,140.0009383,0.1668133333
310.4,0.5631216667,139.3756813,0.1588736667
310.3,0.4462,138.8810647,0.1496896667
310.2,1.857963,139.0889273,0.1516513333
310.1,1.089872,139.2805147,0.1588276667
310,1.607154333,139.3950247,0.1572393333
309.9,1.584942667,139.4170623,0.1610436667
309.8,0.883078,139.412446,0.157526
309.7,2.062013333,139.594702,0.1620516667
309.6,1.315085667,139.201827,0.155957
309.5,1.431712333,139.3168247,0.1554546667
309.4,0.5279256667,139.5773113,0.1597096667
309.3,0.260161,139.229856,0.1598756667
309.2,0.8823963333,139.4363427,0.158981
309.1,1.173215,139.5233897,0.1574416667
309,0.669861,139.75909,0.1671463333
308.9,1.577143333,139.5478333,0.1602723333
308.8,0.8643413333,139.094037,0.155938
308.7,0.9478446667,139.2046747,0.1557056667
308.6,0.93654,138.9514977,0.151856
308.5,0.732598,139.1892413,0.155857
308.4,1.489380333,139.4254153,0.157963
308.3,1.983563333,138.7351633,0.1500613333
308.2,1.020811033,139.143823,0.151471
308.1,1.34294,138.7888863,0.148047
308,1.589966667,138.650659,0.146692
307.9,1.321626,139.228995,0.155531
307.8,1.472413333,139.193587,0.1533013333
307.7,0.8248893333,139.0873293,0.1544833333
307.6,0.7456166667,139.3310443,0.1556276667
307.5,0.328767,139.3554807,0.1518903333
307.4,1.351168,139.524827,0.1554216667
307.3,0.876159,139.4368637,0.156083
307.2,0.4641153,138.793688,0.1469
307.1,0.4873738667,138.692591,0.149817
307,0.8912863333,139.3165613,0.1559563333
306.9,1.529203333,139.5842027,0.159761
306.8,1.609558667,138.6674933,0.146418
306.7,0.18524,139.0782163,0.1478706667
306.6,1.4274172,138.9975207,0.151656
306.5,0.853128,139.4551743,0.1572523333
306.4,0.150499,138.6987667,0.1472496667
306.3,0.73361,139.1036157,0.1536
306.2,1.367971667,139.1918113,0.1563983333
306.1,0.498832,139.1777257,0.1519683333
306,0.6457866,139.1688123,0.1543053333
305.9,0.194256,139.228209,0.156746
305.8,1.068112,139.1514503,0.1598253333
305.7,0.1165866667,139.3485377,0.154053
305.6,-0.094763,139.3947073,0.158647
305.5,1.689276667,139.3579123,0.1565043333
305.4,1.009941,139.071425,0.1537743333
305.3,1.733126667,139.2622477,0.1537826667
305.2,0.836276,139.1467847,0.154602
305.1,1.411673,139.2222357,0.1535346667
305,1.204854667,139.619379,0.158406
304.9,1.256564,139.1442657,0.150018
304.8,0.5406559,138.7659203,0.1475866667
304.7,1.134189,139.0777967,0.1515216667
304.6,1.239358,139.20127,0.1520263333
304.5,0.928823,139.327252,0.1555096667
304.4,0.9197386667,138.9904553,0.1543506667
304.3,1.897337333,139.132675,0.1519153333
304.2,0.8929173333,139.5563383,0.1609026667
304.1,0.8756946667,139.7097623,0.162642
304,1.295636333,139.3059153,0.1517356667
303.9,0.6176043333,138.6801387,0.1477763333
303.8,1.071312567,138.4414653,0.1437986667
303.7,1.228370833,139.3483623,0.1566096667
303.6,0.8268136667,139.25528,0.153842
303.5,2.010903333,139.151926,0.1540576667
303.4,1.302316667,138.3897707,0.143241
303.3,0.6292599667,138.983405,0.1501693333
303.2,1.97468,138.8242083,0.149464
303.1,0.9181983333,139.066055,0.153648
303,0.1864391,139.3582673,0.1551193333
302.9,1.377511,139.36576,0.1568953333
302.8,0.797433,138.510547,0.143764
302.7,-0.05482733333,139.2818343,0.1537183333
302.6,2.428326667,139.2920327,0.1527433333
302.5,0.90068,139.177337,0.1530296667
302.4,1.256646333,139.110016,0.1499336667
302.3,0.6777126667,138.871304,0.147876
302.2,1.194265667,138.9802413,0.1508076667
302.1,0.6626686667,138.5625357,0.1433953333
302,1.029276667,139.611155,0.1592643333
301.9,0.84993,138.7201943,0.144068
301.8,1.707604,138.6664877,0.1466173333
301.7,0.703491,138.9278723,0.1503986667
301.6,1.77403,139.335955,0.1542636667
301.5,0.814816,138.836144,0.1486096667
301.4,1.682126667,139.0363567,0.1504296667
301.3,1.044380333,139.0293973,0.1502743333
301.2,0.7360263,138.6016823,0.1465063333
301.1,1.308144333,139.1580017,0.148571
301,0.2292993333,138.863104,0.146209
300.9,0.987014,138.612762,0.143117
300.8,1.008934667,138.560582,0.143136
300.7,0.6053376667,138.94918,0.147274
300.6,0.9254753,139.09079,0.151349
300.5,1.336406667,138.834713,0.1499026667
300.4,0.8661526667,139.4987777,0.157599
300.3,0.5380913333,138.8470163,0.1494566667
300.2,0.2450783333,138.8678033,0.1460413333
300.1,0.4576993333,138.8744717,0.1464906667
300,1.133006033,138.8753513,0.1479186667
299.9,0.882943,138.847196,0.1458683333
299.8,1.783807333,138.6102673,0.1442886667
299.7,1.839196667,139.1814937,0.1517766667
299.6,0.2703969333,138.5269697,0.14347
299.5,0.5702776667,139.176075,0.1514813333
299.4,0.9938246667,138.7128527,0.145339
299.3,1.017429333,138.4055233,0.1441756667
299.2,1.158336333,139.0637047,0.151867
299.1,0.9225693333,138.5984067,0.1387186667
299,1.086360367,138.8139303,0.1471873333
298.9,0.9045173333,138.971538,0.147146
298.8,1.386237667,138.9607403,0.1491926667
298.7,0.583662,138.8298247,0.1437786667
298.6,1.256999667,138.842126,0.1457666667
298.5,0.9579864667,139.256407,0.150033
298.4,0.5850156667,138.4756507,0.1451186667
298.3,0.94822,139.1746967,0.1515906667
298.2,1.194089,138.7889237,0.147269
298.1,0.1944643333,138.8309687,0.1455656667
298,0.8909853333,138.7679383,0.145107
297.9,1.099938333,138.7585063,0.1431146667
297.8,1.460478,138.8141993,0.1465776667
297.7,1.036572667,138.689435,0.1415703333
297.6,0.586695,138.776866,0.147026
297.5,0.5931166667,138.813538,0.145214
297.4,0.5696603333,138.7045633,0.1454066667
297.3,1.108935367,139.1247223,0.151073
297.2,1.024764,138.8970353,0.147323
297.1,0.935054,138.6547883,0.1442673333
297,-0.09695533333,138.6827393,0.142604
296.9,1.039655,138.6596083,0.142694
296.8,0.6657863333,138.4278013,0.1385753333
296.7,1.652154,138.520085,0.1480026667
296.6,0.5414746667,138.677183,0.1477136667
296.5,1.066831667,138.7913193,0.1482566667
296.4,0.8763443333,138.8399063,0.147551
296.3,0.01025466667,139.0643097,0.1504076667
296.2,0.1924206667,139.3251017,0.153178
296.1,0.6153856667,138.843708,0.1475236667
296,1.415942667,138.773751,0.1474096667
295.9,1.226075,138.319022,0.1439616667
295.8,1.22266,138.7972837,0.145769
295.7,0.8408341,138.3226993,0.1364246667
295.6,1.301515333,138.7576143,0.1451663333
295.5,1.184732667,138.860279,0.145923
295.4,2.103716667,138.6434213,0.140825
295.3,1.293628,138.7011657,0.1463796667
295.2,1.191213667,138.4573873,0.138983
295.1,0.5511743333,138.4451353,0.1385386667
295,1.122873333,138.445407,0.139067
294.9,1.060668333,138.7259747,0.145944
294.8,1.109902,138.749459,0.143516
294.7,0.1507106667,138.8640753,0.14909
294.6,0.847566,138.6881093,0.148749
294.5,-0.5179877667,138.350599,0.135862
294.4,-0.1459646667,138.697656,0.1451263333
294.3,0.1790918333,138.7374027,0.1418683333
294.2,1.365291333,138.5998013,0.1399353333
294.1,0.4038773333,139.1993837,0.1499556667
294,0.7389166667,139.0051007,0.1468766667
293.9,1.337855667,139.1094683,0.1507746667
293.8,0.3788416667,138.6837003,0.1460083333
293.7,0.987093,138.7626527,0.1455496667
293.6,0.7916686667,139.0933367,0.1495303333
293.5,0.477771,138.7507423,0.1437366667
293.4,1.250009,138.9127673,0.1466853333
293.3,0.2264236667,138.9170077,0.1497683333
293.2,1.161797333,138.5488913,0.144103
293.1,0.8923776,138.517141,0.1428973333
293,0.352654,138.566046,0.1427683333
292.9,0.5724106667,138.6497693,0.143564
292.8,1.399402333,138.6592307,0.1415983333
292.7,1.264909333,138.9527697,0.1442053333
292.6,0.7474687667,138.4940453,0.1400286667
292.5,1.344265333,138.306656,0.139213
292.4,1.307272333,138.6496087,0.1434953333
292.3,1.077131333,138.374152,0.1383293333
292.2,1.059233667,138.3059947,0.1371863333
292.1,1.063336667,138.7201383,0.1444683333
292,0.411576,138.9645763,0.1461153333
291.9,0.3685426667,138.425408,0.1421393333
291.8,1.873322,138.30255,0.1309556667
291.7,0.2975421333,138.502644,0.1408353333
291.6,0.1747323333,138.326759,0.140033
291.5,1.243742333,138.479412,0.1385386667
291.4,1.533906667,138.36916,0.129409
291.3,1.491974,138.5751683,0.1388836667
291.2,0.5905259667,138.384279,0.13732
291.1,0.6835963333,138.656843,0.1433913333
291,1.691596667,138.8343493,0.1489603333
290.9,0.86244949,138.329592,0.1334716667
290.8,1.524699,138.5720097,0.1409173333
290.7,0.05816333333,138.1513657,0.1355743333
290.6,0.5261303333,138.7680053,0.1433043333
290.5,1.098836667,138.40758,0.1369026667
290.4,1.865643333,138.4574553,0.1375526667
290.3,1.101849667,138.9609773,0.1437066667
290.2,0.768031,138.537515,0.1389343333
290.1,0.5893446667,138.848508,0.148264
290,1.033487333,138.6259773,0.140901
289.9,-0.1662497667,138.1870507,0.1397606667
289.8,1.467403333,139.0648577,0.1477813333
289.7,0.9328537,138.6980173,0.146106
289.6,2.10861,138.557599,0.1453913333
289.5,1.026073,139.258117,0.1526933333
289.4,0.5368243333,138.8075827,0.1475576667
289.3,1.047777633,139.1548903,0.152183
289.2,1.231903667,138.55507,0.141494
289.1,0.73618,138.982587,0.1483176667
289,0.4094325333,138.7836017,0.1434076667
288.9,1.026221667,138.960964,0.1468296667
288.8,-0.3670166667,139.0399027,0.1495493333
288.7,0.2849956667,138.778527,0.147501
288.6,1.368557933,138.918329,0.14863
288.5,1.410735333,138.791591,0.1499653333
288.4,0.2334273333,138.7495633,0.1468943333
288.3,0.3229263333,138.7760923,0.1477623333
288.2,0.860381,139.1709773,0.1508656667
288.1,1.110457667,138.299013,0.1418233333
288,0.9890063333,138.906516,0.1465756667
287.9,1.225384,139.1937777,0.154274
287.8,1.300373,138.7075817,0.146989
287.7,0.7576518333,139.203834,0.147829
287.6,0.514834,138.826057,0.14846
287.5,1.099842667,139.016144,0.149128
287.4,1.470076333,139.6213877,0.1564093333
287.3,1.132843333,139.0331893,0.151095
287.2,1.345543667,138.809671,0.146391
287.1,0.0290214,138.670221,0.1464943333
287,0.9680723333,139.0856267,0.154435
286.9,0.942636,139.277918,0.1550223333
286.8,0.8903903333,138.7264013,0.1487523333
286.7,0.2601444333,138.92676,0.1487156667
286.6,1.423504367,138.8729043,0.1502343333
286.5,1.650583333,139.1440067,0.1533543333
286.4,0.6191941333,138.3475907,0.138281
286.3,1.388960667,139.018224,0.1538756667
286.2,1.27391,139.0325023,0.1542436667
286.1,0.8397893333,138.7828907,0.1462906667
286,0.9071266667,138.93163,0.1486516667
285.9,0.8426133333,139.1728463,0.1566016667
285.8,0.7823666667,139.341951,0.1538823333
285.7,1.493953333,139.035598,0.149631
285.6,0.79018,139.1284843,0.154613
285.5,0.2769803333,139.2132057,0.1589503333
285.4,0.4341663333,139.0957993,0.152974
285.3,1.267968333,138.930803,0.149392
285.2,0.3654176333,139.1160787,0.151338
285.1,0.2351086667,139.1911377,0.1536483333
285,1.208293,139.2761837,0.149305
284.9,0.6514506667,138.8898933,0.1509143333
284.8,1.070209733,138.9130737,0.1493233333
284.7,-0.3015986667,139.236594,0.156712
284.6,0.292327,138.836335,0.1479023333
284.5,0.9627266667,138.949721,0.1531616667
284.4,0.8236663333,139.030618,0.1518293333
284.3,0.0389432,139.1567277,0.152877
284.2,-0.20344,139.538459,0.1572573333
284.1,0.6407103333,139.2031603,0.1486383333
284,0.2428533333,139.2681323,0.155145
283.9,0.801496,138.9034107,0.152047
283.8,0.378507,139.1269327,0.1536536667
283.7,0.3909561333,139.1596607,0.1530863333
283.6,-0.4759106667,139.441711,0.1557
283.5,-0.2046576667,138.8600753,0.1522763333
283.4,0.7761876667,139.3180113,0.1547793333
283.3,0.8056806667,139.1748853,0.1538373333
283.2,1.633723333,139.085266,0.151629
283.1,0.278547,138.855934,0.1484683333
283,1.022638,138.980478,0.154721
282.9,1.397728,139.0140287,0.1531006667
282.8,0.8694269,138.7533703,0.1493516667
282.7,0.7430983333,139.2241137,0.160482
282.6,0.8732041333,139.264552,0.1485796667
282.5,0.807203,138.7064953,0.1459326667
282.4,-0.1312873333,139.020131,0.1560416667
282.3,1.000674667,139.0892997,0.1558126667
282.2,-0.07466733333,138.935277,0.1499983333
282.1,0.6441396667,139.0925783,0.1545843333
282,0.2446456667,139.1946523,0.156351
281.9,1.000780873,139.2366907,0.1548436667
281.8,-0.205133,139.1683957,0.1525853333
281.7,1.409894333,139.305546,0.1534713333
281.6,1.010623733,139.4136917,0.1623546667
281.5,1.184999467,139.389738,0.1589713333
281.4,0.212985,139.3495367,0.1538116667
281.3,0.8782563333,139.4401007,0.1599036667
281.2,0.9245303333,139.3477847,0.1558573333
281.1,1.071813333,138.9594297,0.1497526667
281,0.022254,139.1463763,0.1530986667
280.9,0.8032833333,138.8996967,0.1431373333
280.8,0.469811,138.8300747,0.149008
280.7,0.7528850667,138.9652823,0.1519826667
280.6,1.369631,139.316191,0.15615
280.5,0.79302,139.245049,0.1539823333
280.4,0.356058,139.064547,0.1527093333
280.3,1.111526667,139.409407,0.158831
280.2,0.9148543333,139.3571307,0.1545793333
280.1,0.9520636667,139.4275237,0.1583653333
280,1.752266667,139.031532,0.1534953333
279.9,1.272004,139.5615983,0.1610113333
279.8,-0.2334053333,139.0937963,0.1511836667
279.7,0.1747026,138.6378983,0.148907
279.6,0.6398244667,139.0191483,0.1501643333
279.5,1.005420333,139.025591,0.1527623333
279.4,0.6548773333,139.3704553,0.1594263333
279.3,0.9207666667,139.2948467,0.1588223333
279.2,0.2194913,139.538277,0.1582456667
279.1,0.8587923333,139.2706573,0.157108
279,0.8466893333,139.233038,0.154225
278.9,0.7833607667,139.280253,0.156362
278.8,0.8724983333,138.9489963,0.148594
278.7,0.511688,139.405265,0.1573026667
278.6,0.002241666667,139.5333047,0.1600426667
278.5,0.1292096667,139.1668143,0.1577183333
278.4,0.799179,139.3868397,0.158023
278.3,0.3131985333,139.3440407,0.1570196667
278.2,0.7201291333,139.242004,0.1548306667
278.1,0.884615,139.1440783,0.154118
278,0.4810283333,139.344136,0.156599
277.9,0.588207,139.0808667,0.1562706667
277.8,0.7415446667,139.4502503,0.162099
277.7,-0.029943,139.5453917,0.1587926667
277.6,0.8433903333,139.3751063,0.157785
277.5,0.8649461667,139.5786333,0.16066
277.4,0.3569403333,139.280659,0.154395
277.3,0.7089193333,139.0461933,0.1532213333
277.2,0.5375135,139.146009,0.1573576667
277.1,0.6096986667,139.2762823,0.1562086667
277,1.385195333,139.1904387,0.1570393333
276.9,0.8599544,139.618674,0.1700523333
276.8,1.542268667,139.7140967,0.1639616667
276.7,1.146247667,139.4835897,0.159556
276.6,0.554824,139.3610887,0.1582103333
276.5,0.2148433333,139.361008,0.1533563333
276.4,0.07600216667,139.6893053,0.160161
276.3,1.094969,139.8354073,0.166366
276.2,-0.3466243333,138.9608773,0.1498686667
276.1,0.2483063333,139.1505313,0.1641993333
276,0.04895033333,139.270488,0.1536956667
275.9,0.8981006667,138.9885113,0.1520496667
275.8,-0.005503433333,139.1534837,0.1543513333
275.7,0.5753774667,139.414818,0.1568516667
275.6,0.1317313667,139.134514,0.152412
275.5,-0.0812426,138.9287317,0.1493593333
275.4,-0.001113566667,139.3100057,0.1558603333
275.3,0.5847643333,139.4307857,0.1526066667
275.2,0.0705507,139.305045,0.1544776667
275.1,0.350025,139.228064,0.156043
275,1.156067667,139.3888833,0.155178
274.9,0.7249123333,139.1246087,0.1537666667
274.8,0.6148573333,139.0880273,0.156212
274.7,0.1839576667,139.0679573,0.1560766667
274.6,-0.3926213333,139.610015,0.1579123333
274.5,0.4694599667,139.4170543,0.1580836667
274.4,0.7513273333,138.955708,0.1512563333
274.3,0.8173793333,139.2822603,0.1614666667
274.2,0.6532363333,139.4173037,0.1563223333
274.1,0.878464,139.0189673,0.156937
274,0.9642903333,139.38979,0.1573613333
273.9,1.230971333,139.0575223,0.1534133333
273.8,-0.33385078,139.187763,0.1521793333
273.7,1.052013333,139.1471517,0.1549433333
273.6,-0.2193550333,139.1873957,0.1549696667
273.5,0.0193036,139.6430957,0.160017
273.4,0.8613683333,139.569224,0.1616693333
273.3,0.128413,139.3500783,0.158721
273.2,1.232072333,139.3259007,0.153162
273.1,0.3684296667,139.1315547,0.1575636667
273,0.4435166667,139.440547,0.160339
272.9,0.8497078333,139.3154167,0.159641
272.8,0.716023,139.747531,0.161945
272.7,-0.9570213333,139.2847347,0.1592053333
272.6,-0.09204333333,139.2498873,0.1609616667
272.5,0.6111343333,139.4902207,0.1588996667
272.4,-0.1673326667,139.4681473,0.1554933333
272.3,-0.04816166667,139.388463,0.157041
272.2,0.3485816667,139.3259907,0.1579746667
272.1,0.1414313333,139.4972543,0.1581446667
272,0.2538546,139.4271663,0.1592953333
271.9,0.625877,139.4782443,0.1641423333
271.8,0.9150663333,138.887031,0.153741
271.7,0.7679796667,139.672101,0.1612093333
271.6,0.1011633333,139.3845873,0.1584896667
271.5,0.6222356667,139.8168587,0.165962
271.4,-0.741512,139.298493,0.158887
271.3,-0.02531633333,139.883938,0.1627756667
271.2,-0.2388789,139.6919527,0.166557
271.1,-0.3446384,139.3365737,0.1582596667
271,0.889784,139.1326623,0.155058
270.9,-0.8545005667,139.13757,0.1557996667
270.8,-0.6959,139.335102,0.1567556667
270.7,-0.2769132,139.5916907,0.1614106667
270.6,0.3747734667,139.0182603,0.1512853333
270.5,0.01694446667,139.0852293,0.1539706667
270.4,0.7419735333,139.3388187,0.1582163333
270.3,0.8878686667,139.3312193,0.1565336667
270.2,0.7448913333,139.717196,0.1643966667
270.1,-0.525695,139.4826493,0.1607043333
270,1.113532667,139.3004747,0.1600773333
269.9,0.4171446667,139.5131333,0.164018
269.8,1.641836667,139.604698,0.1612306667
269.7,0.11913955,139.7091223,0.1656793333
269.6,0.2169056667,139.471101,0.1612383333
269.5,1.524083333,139.7677087,0.166276
269.4,1.428926667,140.0615227,0.168383
269.3,-0.04171633333,139.722766,0.164716
269.2,0.5552640667,139.4408427,0.162072
269.1,-0.2058343333,139.4758913,0.1646056667
269,1.364807,139.8436373,0.166709
268.9,0.8742642333,139.6058537,0.1649163333
268.8,0.531836,139.547117,0.164464
268.7,-0.07945556667,139.765837,0.1668123333
268.6,-0.187144,139.8843147,0.1674676667
268.5,0.452735,139.3936923,0.1613113333
268.4,0.7610003333,139.7148967,0.1644526667
268.3,1.364122333,139.517049,0.1635463333
268.2,1.107187667,139.869144,0.16992
268.1,0.07321566667,139.719191,0.1694526667
268,-0.7535106667,139.669156,0.1664696667
267.9,-0.2779047333,139.8848947,0.1707553333
267.8,0.3711453333,139.651902,0.1674863333
267.7,0.9040333333,139.831499,0.168174
267.6,0.265117,140.11645,0.1745203333
267.5,-0.1917872333,139.8676103,0.1676666667
267.4,0.8849903333,139.9788863,0.1697873333
267.3,-0.2541743333,140.125491,0.1738936667
267.2,0.6629673333,139.715531,0.1674363333
267.1,0.2561513367,139.9270793,0.1700546667
267,-0.1040803333,139.930171,0.167326
266.9,0.3201207057,139.966234,0.172436
266.8,0.6380923333,139.8217513,0.1661886667
266.7,-0.5352964333,140.607721,0.1825376667
266.6,0.440417,140.024697,0.169198
266.5,0.159819,139.8880337,0.171355
266.4,0.8104013333,139.866966,0.1688456667
266.3,-0.3228566667,140.1526407,0.1740083333
266.2,-0.7476993333,140.4018477,0.174033
266.1,0.4828433333,139.900088,0.1686016667
266,0.6445006667,139.9978053,0.1726843333
265.9,0.399597,140.336291,0.1746936667
265.8,0.189003,139.8790573,0.169009
265.7,0.2334195833,140.3702217,0.1771373333
265.6,0.3264446667,140.1937383,0.1748196667
265.5,-0.3804918533,140.057262,0.1767423333
265.4,-0.415074,140.0601923,0.1741983333
265.3,-0.60624,140.2069513,0.1815313333
265.2,0.174772,140.065606,0.1749113333
265.1,0.2956273333,139.9642043,0.1753306667
265,1.157258333,140.3151267,0.1753103333
264.9,0.3230713333,140.2599593,0.1755396667
264.8,0.4667863333,140.0439453,0.1776436667
264.7,0.1665726667,140.1517923,0.1761356667
264.6,0.1265006667,140.2644583,0.1765543333
264.5,0.3910916667,140.4930043,0.1775073333
264.4,1.093511,140.573634,0.1840646667
264.3,0.4229053667,140.1985087,0.1772116667
264.2,0.6227295,140.3957933,0.1802193333
264.1,-0.1427703333,140.5618467,0.1813266667
264,0.4805343,140.270672,0.1768386667
263.9,1.617411667,140.642584,0.1837716667
263.8,0.301476,140.608772,0.1867436667
263.7,0.081038,140.5825563,0.1805176667
263.6,0.7623296667,140.301461,0.1800266667
263.5,0.9426208967,140.241283,0.176247
263.4,0.359107,140.660108,0.1801146667
263.3,-0.7577619,140.562346,0.186319
263.2,-0.2748106667,140.242037,0.1725066667
263.1,-0.1888597,140.9470143,0.188398
263,0.2137786267,140.509302,0.1814146667
262.9,0.3222532,140.3819197,0.1767503333
262.8,-0.0655414,140.656096,0.1850646667
262.7,0.91247,141.1287173,0.187865
262.6,-0.397753,141.0959127,0.192525
262.5,0.14273,140.0145957,0.1774283333
262.4,-0.8154643333,140.7797023,0.1861763333
262.3,0.9748893333,140.9216477,0.1899676667
262.2,1.298436667,140.671962,0.1865936667
262.1,-0.28311,141.059902,0.1940266667
262,0.2737563333,140.6942643,0.18659
261.9,-0.009398,140.738423,0.186033
261.8,0.01784333333,140.8621503,0.188324
261.7,-0.70933,140.7535817,0.1905313333
261.6,0.6528426667,140.1223577,0.177483
261.5,0.3118363333,140.7835263,0.1900313333
261.4,1.44874,140.565681,0.1847976667
261.3,0.2943227,140.4276233,0.183105
261.2,0.310353,140.7169807,0.1878506667
261.1,0.592456,141.0056053,0.191089
261,0.1341003333,140.2227517,0.1795243333
260.9,0.198203,140.9700447,0.1879376667
260.8,-0.2042363333,141.3322453,0.1951406667
260.7,-0.08339166667,141.5596903,0.2004893333
260.6,0.390592,141.2453637,0.1937766667
260.5,0.6648696667,140.947136,0.1912723333
260.4,0.6840326333,141.2316113,0.193412
260.3,-0.4625576667,140.9405123,0.1924116667
260.2,0.5029563333,141.185746,0.196397
260.1,0.1647853333,140.9173393,0.1944066667
260,0.5643090667,140.6781513,0.187491
259.9,1.091666,141.1562643,0.1948786667
259.8,0.016753,141.437261,0.196387
259.7,0.6585693333,140.7101133,0.1893916667
259.6,-0.03206963333,141.2894513,0.1949883333
259.5,-0.09235206667,141.2923273,0.1972536667
259.4,0.408604,141.0826383,0.1950773333
259.3,1.209121,141.0885767,0.1936453333
259.2,0.4213836667,140.890969,0.1945883333
259.1,-0.408547,141.2991797,0.2000126667
259,0.8563676667,141.0110567,0.1932306667
258.9,1.130499333,141.149833,0.197205
258.8,0.16744,140.9115903,0.190249
258.7,0.207242,141.2030007,0.1950913333
258.6,-0.2439821333,141.870804,0.208416
258.5,0.1655506667,141.065722,0.193289
258.4,0.4628816667,141.1136793,0.1970583333
258.3,-0.7052786667,141.834707,0.2068833333
258.2,-0.8252793333,141.9216003,0.2086036667
258.1,1.145376667,141.7274427,0.2066023333
258,1.230628333,141.8873717,0.2080303333
257.9,-0.5416953333,142.2198937,0.214255
257.8,0.2308042,141.3759177,0.2009153333
257.7,1.035742333,141.2386177,0.196767
257.6,0.1682353333,141.0422873,0.194039
257.5,0.992511,141.660861,0.2065533333
257.4,-0.02352133333,141.6394933,0.2084516667
257.3,0.4903125,141.790766,0.207365
257.2,-0.137338,141.1534543,0.194276
257.1,1.079758,142.0387737,0.2122943333
257,-0.3043283333,141.4167753,0.2004936667
256.9,0.3998193333,141.603312,0.2037343333
256.8,0.6110596667,141.8606177,0.2091873333
256.7,0.05303766667,142.218228,0.212651
256.6,0.465269,141.6608967,0.2046516667
256.5,-0.5161811333,141.716391,0.206943
256.4,0.4621236667,141.1494597,0.2022933333
256.3,0.3106664667,141.2252643,0.20308
256.2,-0.5038923333,141.9326537,0.210511
256.1,0.7216725,141.1448677,0.1980783333
256,-0.02812066667,141.385576,0.2066636667
255.9,0.3146323333,142.0133537,0.2116946667
255.8,0.5286376667,141.7797917,0.207758
255.7,-0.1147196667,142.1571017,0.2136463333
255.6,-0.1729583333,141.93143,0.2094566667
255.5,-0.2767673,142.308831,0.2189416667
255.4,-0.1605223333,142.192016,0.221544
255.3,0.388686,141.1916343,0.2041603333
255.2,1.350952,141.8564667,0.2140713333
255.1,-0.9957846667,141.6808787,0.209723
255,0.588047,142.0348013,0.2237443333
254.9,0.6670656333,142.3690407,0.2174006667
254.8,0.116137,141.8381653,0.2102033333
254.7,0.705954,142.0405047,0.2182146667
254.6,0.2558746667,142.4402803,0.220977
254.5,0.4092333333,141.6498517,0.2082323333
254.4,0.2095816667,142.2980063,0.215574
254.3,0.4116336667,142.5317507,0.2229123333
254.2,0.3852586667,141.9581807,0.2113236667
254.1,-0.1800493333,142.48978,0.2223653333
254,0.3557533333,141.6987887,0.210965
253.9,0.1066026667,142.0768997,0.2166363333
253.8,0.6111686667,142.142143,0.217869
253.7,-0.6150663333,142.6977783,0.2273923333
253.6,0.613496,142.3661253,0.2175656667
253.5,-0.879772,142.3447897,0.217745
253.4,0.3972506667,142.4449127,0.2225156667
253.3,0.3208969667,142.6759947,0.22599
253.2,-0.3443593333,142.7080723,0.2263483333
253.1,0.4615873333,142.1063127,0.215106
253,-0.04435566667,142.8476743,0.2291833333
252.9,0.8002746667,142.736178,0.2272373333
252.8,0.985092,142.699777,0.2272683333
252.7,-0.193957,142.4981523,0.2233453333
252.6,0.491582,142.568083,0.220686
252.5,1.096239333,142.5948313,0.2243663333
252.4,0.3180476667,142.8126917,0.2312613333
252.3,-0.1428043333,142.5883393,0.2280683333
252.2,0.6778956667,142.8047103,0.2280393333
252.1,0.6886076667,142.7414973,0.225766
252,1.163189,142.848792,0.2315203333
251.9,0.290786,142.893196,0.230821
251.8,0.156576,142.5936673,0.2263296667
251.7,-0.1341926667,142.3976497,0.2263803333
251.6,-0.1032853333,142.6993913,0.2329663333
251.5,1.21902531,142.7208893,0.2325616667
251.4,-0.4397543333,142.6987597,0.229684
251.3,-0.493443,142.5708517,0.2231783333
251.2,0.4504266667,142.7013337,0.2320026667
251.1,0.56487,142.8019737,0.2300463333
251,0.813369,142.9665923,0.232099
250.9,0.4232182667,143.096084,0.233646
250.8,-0.6371326667,142.564506,0.2269166667
250.7,-0.218552,143.389065,0.237419
250.6,0.007111666667,142.831302,0.22715
250.5,-0.01731893333,143.0507613,0.2358093333
250.4,0.5119233333,143.1510257,0.2366466667
250.3,0.2243176667,143.0692063,0.2368566667
250.2,0.0646632,143.1995363,0.239245
250.1,-0.8536366667,143.1356377,0.2375206667
250,0.4519699,142.9493117,0.233568
249.9,0.5839846667,143.427974,0.2413513333
249.8,0.2572920333,143.097316,0.237734
249.7,-1.120308,142.8671007,0.2322163333
249.6,-0.01973666667,143.366321,0.2425556667
249.5,-0.7757563333,143.1264367,0.240731
249.4,0.1356266667,143.4774827,0.2433846667
249.3,0.2958773333,143.1830027,0.242475
249.2,-0.063577,143.2729987,0.2348786667
249.1,0.7044373333,143.7294583,0.2450886667
249,0.5851836667,143.541614,0.2449463333
248.9,-0.2538,143.148473,0.2341613333
248.8,-1.604144667,143.2735477,0.2347986667
248.7,0.1157943333,143.680519,0.2462193333
248.6,-0.9456993333,143.4926417,0.2446343333
248.5,0.4434213333,143.5145113,0.2466273333
248.4,-0.8644153333,143.5941033,0.249501
248.3,-0.541215,143.392202,0.2419673333
248.2,-0.6730966667,143.11499,0.2372463333
248.1,-0.075444,143.4751923,0.239991
248,-0.827379,143.2359967,0.233389
247.9,-0.4218116333,143.7996237,0.2490086667
247.8,-1.032195667,143.3294963,0.2454793333
247.7,-0.4992396667,143.7072593,0.2468666667
247.6,0.64818,143.2050377,0.2500406667
247.5,-0.4585246667,143.7428813,0.243639
247.4,-1.02422,143.8005753,0.248417
247.3,-0.8185263333,143.755118,0.2537903333
247.2,-0.2992306667,144.011968,0.2497353333
247.1,-1.109916633,143.971405,0.2497393333
247,-0.3518006667,143.7545387,0.2519346667
246.9,-0.625592,143.7939603,0.251909
246.8,-0.3294316667,144.2541073,0.2631703333
246.7,-0.8670236667,143.6034743,0.2451413333
246.6,-0.7254816667,144.483008,0.266151
246.5,-0.3542113333,144.3589087,0.2601073333
246.4,-1.457323333,143.883076,0.254613
246.3,-1.139480333,144.262707,0.2577193333
246.2,-1.450376667,143.9734117,0.258318
246.1,-0.6446786667,144.0050177,0.2522253333
246,-1.242179667,144.0252177,0.255642
245.9,-1.9603,144.1437597,0.2569666667
245.8,-0.661453,144.7415317,0.266548
245.7,-1.223038,144.176249,0.258594
245.6,-1.380921333,144.6096157,0.2632026667
245.5,-0.5426117333,143.2608297,0.2507423333
245.4,-1.756823333,144.4465107,0.2688776667
245.3,-1.881398667,144.6650307,0.2663906667
245.2,-0.1842933333,144.647885,0.269107
245.1,-1.650567667,144.5309517,0.2654713333
245,-1.189864333,144.2674103,0.262997
244.9,-1.15608,144.5207003,0.268536
244.8,-0.3351853333,144.5808053,0.268244
244.7,-1.103479667,144.76826,0.269547
244.6,-2.59026,144.9464637,0.2742833333
244.5,-1.748233333,144.4529707,0.264127
244.4,-2.980666667,145.3428733,0.2764436667
244.3,-1.354041667,144.2028713,0.260097
244.2,-1.627699667,144.784778,0.2690213333
244.1,-2.269841,144.8352173,0.2667756667
244,-1.691646667,144.8613247,0.2800193333
243.9,-2.776058333,145.1502197,0.2703726667
243.8,-1.981987667,144.865497,0.270705
243.7,-2.620406667,144.8944793,0.268519
243.6,-2.695966667,145.3742687,0.2787916667
243.5,-3.30391,145.0042717,0.2785266667
243.4,-2.822703333,145.208756,0.2826303333
243.3,-2.59517,144.92512,0.275983
243.2,-2.521333333,145.258282,0.283511
243.1,-2.318949667,144.8579307,0.278191
243,-2.609106667,145.5542873,0.2846376667
242.9,-3.880886667,145.4009223,0.285884
242.8,-3.481776667,145.795563,0.2951723333
242.7,-3.94611,145.5851927,0.2899623333
242.6,-3.451243333,145.6562263,0.2885543333
242.5,-3.65021,145.161731,0.285119
242.4,-4.280586667,145.358235,0.2859103333
242.3,-3.369936667,145.469004,0.282342
242.2,-4.549136667,145.9735847,0.295005
242.1,-3.79491,145.9685337,0.2947426667
242,-4.290306667,145.8825967,0.2900813333
241.9,-4.524773333,145.682598,0.2927983333
241.8,-4.20569,146.1297533,0.2991903333
241.7,-5.259613333,146.061261,0.298349
241.6,-4.880723333,146.071842,0.297274
241.5,-5.126596667,146.3642277,0.3064043333
241.4,-5.319406667,146.8732153,0.311963
241.3,-5.848606667,146.5274853,0.3035426667
241.2,-5.791186667,146.4891503,0.3049223333
241.1,-5.66303,146.6231167,0.3073083333
241,-5.85247,146.4826227,0.3002873333
240.9,-6.07205,146.1448227,0.3041203333
240.8,-5.49474,146.4466047,0.3055076667
240.7,-5.28233,146.506357,0.300093
240.6,-6.01317,146.9517953,0.31245
240.5,-6.514223333,147.210169,0.3153686667
240.4,-6.35726,146.8792657,0.3140926667
240.3,-5.792396667,147.000051,0.3196133333
240.2,-7.169663333,147.290205,0.31782
240.1,-6.567633333,147.274998,0.3205373333
240,-7.183196667,147.1660987,0.315436
239.9,-7.4675,146.979039,0.3169326667
239.8,-6.482713333,147.5624277,0.3281126667
239.7,-7.282556667,147.6411657,0.3242706667
239.6,-7.398963333,147.289147,0.3174883333
239.5,-8.18077,147.3567727,0.3276106667
239.4,-7.21031,148.3906777,0.3392633333
239.3,-8.966583333,147.9955643,0.3346563333
239.2,-8.101473333,148.0083747,0.339558
239.1,-8.544746667,148.2686427,0.3381986667
239,-9.022823333,148.478242,0.343868
238.9,-9.123526667,148.684672,0.3499563333
238.8,-10.19478333,148.4341367,0.350014
238.7,-8.111386667,148.4906827,0.347959
238.6,-9.30169,148.6810527,0.3535313333
238.5,-9.756566667,148.5550703,0.3470546667
238.4,-11.41597333,148.7874117,0.3544866667
238.3,-10.3951,148.820586,0.3595773333
238.2,-11.48743,148.7540697,0.348666
238.1,-10.79243333,149.0061533,0.357757
238,-11.04016667,149.4794767,0.365394
237.9,-11.63376667,149.3646477,0.3612143333
237.8,-12.35663333,149.4351997,0.365313
237.7,-11.84443333,149.419756,0.3673203333
237.6,-11.8376,149.7915827,0.3730396667
237.5,-11.8816,149.6714887,0.3735866667
237.4,-12.45023333,149.6307603,0.3717693333
237.3,-11.75937,149.9119583,0.37226
237.2,-12.5491,150.257572,0.3807143333
237.1,-13.097,150.0055313,0.375598
237,-13.67526667,150.2520813,0.386567
236.9,-13.9423,150.4466557,0.3937383333
236.8,-14.49323333,150.671916,0.3908673333
236.7,-13.64283333,151.389042,0.3991916667
236.6,-15.58743333,150.7339917,0.392323
236.5,-15.08703333,151.018812,0.4005896667
236.4,-13.844,151.5021917,0.4047726667
236.3,-15.22873333,151.0444283,0.394424
236.2,-15.12393333,151.0605573,0.397434
236.1,-15.22663333,151.311339,0.4117566667
236,-15.6716,151.582043,0.4099543333
235.9,-17.856,151.9745153,0.4170543333
235.8,-17.47983333,151.5722653,0.4105416667
235.7,-16.89816667,151.8742297,0.4120133333
235.6,-17.55766667,151.929906,0.4148456667
235.5,-17.5691,152.3355933,0.4272903333
235.4,-17.82776667,152.2614203,0.4267873333
235.3,-18.64616667,152.6824823,0.4289596667
235.2,-19.4081,152.4697533,0.4317346667
235.1,-19.00356667,153.1356943,0.4390693333
235,-19.8398,152.7806857,0.4375833333
234.9,-20.8265,153.1509757,0.438195
234.8,-20.94283333,152.6029343,0.4305936667
234.7,-19.02673333,153.5181277,0.4490573333
234.6,-20.6246,153.7260243,0.4474616667
234.5,-22.33153333,153.6674733,0.4498133333
234.4,-22.0309,154.1154617,0.460718
234.3,-21.17386667,154.0769213,0.4542786667
234.2,-22.6206,153.896033,0.4595156667
234.1,-21.0047,154.3989023,0.465331
234,-22.5348,154.335312,0.4638483333
233.9,-23.25873333,154.5864057,0.463987
233.8,-23.0958,154.714379,0.468067
233.7,-24.21336667,155.0168377,0.478638
233.6,-24.34243333,154.8425293,0.4764333333
233.5,-23.79883333,155.2476263,0.482763
233.4,-25.62683333,155.4224387,0.484583
233.3,-25.95033333,155.635911,0.4909263333
233.2,-25.62733333,155.974381,0.4946203333
233.1,-25.1731,156.2240823,0.5019526667
233,-24.7683,156.0591753,0.4971233333
232.9,-26.93336667,156.9586093,0.510592
232.8,-27.23666667,157.6102583,0.5211516667
232.7,-28.16783333,156.712645,0.509298
232.6,-28.4294,157.1358813,0.5154646667
232.5,-28.30563333,157.114489,0.519027
232.4,-27.75693333,156.8084837,0.515739
232.3,-30.06736667,157.4217987,0.5271306667
232.2,-29.73506667,157.8092743,0.5301436667
232.1,-30.78723333,158.062362,0.5366623333
232,-31.837,158.272058,0.53915
231.9,-30.01136667,158.5134053,0.5433776667
231.8,-29.9436,157.9232553,0.5408403333
231.7,-31.51116667,159.0908817,0.5533966667
231.6,-32.73663333,159.5986873,0.5608633333
231.5,-31.73073333,159.2852827,0.5609816667
231.4,-33.078,159.945388,0.5619583333
231.3,-32.5665,159.8107577,0.565109
231.2,-34.7566,159.597988,0.5644606667
231.1,-33.93553333,160.070363,0.5746346667
231,-33.84336667,159.9628947,0.5723593333
230.9,-33.64883333,160.661038,0.585292
230.8,-34.55713333,160.7259823,0.582898
230.7,-36.0247,160.5829067,0.5833793333
230.6,-34.5147,160.476832,0.5794653333
230.5,-36.70326667,160.857471,0.5881836667
230.4,-35.6483,161.5751547,0.6017496667
230.3,-37.48126667,161.3373913,0.5930126667
230.2,-36.13613333,161.5625447,0.60374
230.1,-37.6653,161.4873757,0.59855
230,-38.19466667,161.7621613,0.6144226667
229.9,-39.02003333,162.2924697,0.615434
229.8,-38.1573,162.836748,0.6213783333
229.7,-39.36176667,162.436249,0.618007
229.6,-39.8537,163.3241313,0.6335726667
229.5,-40.17146667,163.4351463,0.6332363333
229.4,-41.3563,163.320425,0.6374016667
229.3,-41.84623333,163.9785743,0.6469073333
229.2,-39.57646667,163.277933,0.634335
229.1,-41.58913333,164.5220127,0.6548493333
229,-41.55106667,164.53248,0.658544
228.9,-42.25766667,164.6959563,0.661834
228.8,-41.9027,165.1592157,0.6647033333
228.7,-44.391,165.2672073,0.6668386667
228.6,-44.91246667,165.5417567,0.67615
228.5,-42.72976667,166.115903,0.6852223333
228.4,-44.04313333,165.8610127,0.6840373333
228.3,-45.2703,166.353626,0.6937083333
228.2,-44.97623333,167.0781307,0.7005283333
228.1,-46.68663333,167.3023367,0.7104836667
228,-45.2307,167.6584173,0.7169153333
227.9,-45.0978,168.0071843,0.7219816667
227.8,-45.3952,168.9258,0.7384483333
227.7,-45.67546667,169.2063447,0.7477453333
227.6,-46.66123333,169.5192087,0.7482376667
227.5,-47.94473333,169.5099497,0.7487343333
227.4,-47.6272,169.904887,0.7655573333
227.3,-46.1554,170.4465307,0.768533
227.2,-47.709,170.7511983,0.772744
227.1,-48.07836667,171.0187787,0.7716746667
227,-48.3575,171.5207933,0.785802
226.9,-49.80936667,171.846826,0.7894306667
226.8,-48.9204,172.166597,0.797357
226.7,-50.94356667,172.8508413,0.8033336667
226.6,-49.54163333,172.9995053,0.805212
226.5,-49.36296667,173.6544423,0.8171373333
226.4,-51.17746667,173.69716,0.8263656667
226.3,-50.3087,174.157048,0.830496
226.2,-51.19536667,174.6225267,0.8384766667
226.1,-51.25896667,174.6774173,0.839249
226,-53.87506667,175.1219777,0.8464173333
225.9,-52.1661,175.8751003,0.8592403333
225.8,-51.573,176.407458,0.8693356667
225.7,-54.41206667,176.7651083,0.878699
225.6,-50.72256667,177.0001993,0.8836103333
225.5,-51.73643333,178.219779,0.89869
225.4,-50.82466667,178.2907397,0.903834
225.3,-52.74883333,178.8666597,0.914374
225.2,-52.9321,179.257994,0.9224746667
225.1,-51.6908,180.036143,0.9337823333
225,-52.79383333,180.7422413,0.9375076667
224.9,-53.55286667,181.0815097,0.953273
224.8,-55.03616667,180.9153803,0.9537273333
224.7,-54.04423333,181.9880403,0.9696003333
224.6,-55.61123333,182.7476157,0.9808206667
224.5,-52.5044,183.4252243,0.9915413333
224.4,-52.3092,184.0762667,1.003066667
224.3,-55.99336667,184.3170133,1.00613
224.2,-54.99513333,185.1251133,1.019996667
224.1,-54.6553,185.6314467,1.030723333
224,-56.31956667,186.03767,1.03854
223.9,-54.52026667,186.8809733,1.04806
223.8,-53.70286667,187.4992833,1.059133333
223.7,-56.11313333,188.2619967,1.075276667
223.6,-57.07533333,188.8405333,1.078573333
223.5,-57.8265,189.8003633,1.095536667
223.4,-56.04543333,190.3193767,1.10854
223.3,-54.21776667,191.0629033,1.124913333
223.2,-57.44326667,192.1459533,1.139806667
223.1,-55.1073,192.8404833,1.150346667
223,-54.06296667,193.8019867,1.162103333
222.9,-56.2108,194.78597,1.18194
222.8,-55.36636667,195.6185867,1.19369
222.7,-52.92466667,196.7716833,1.209893333
222.6,-56.78633333,197.44135,1.220283333
222.5,-55.45206667,198.47794,1.23936
222.4,-56.8156,199.27556,1.251453333
222.3,-54.50643333,199.9727367,1.26442
222.2,-59.1172,201.3374367,1.28266
222.1,-56.26783333,201.83738,1.29506
222,-52.86496667,202.9866967,1.309673333
221.9,-58.42036667,203.9325367,1.324106667
221.8,-55.9825,204.8633633,1.338173333
221.7,-57.30416667,205.6439933,1.352053333
221.6,-59.60413333,207.1461733,1.371386667
221.5,-58.56046667,207.5361633,1.38539
221.4,-56.0945,209.0177967,1.404783333
221.3,-54.6735,209.7529067,1.418786667
221.2,-59.19343333,210.99969,1.438343333
221.1,-54.82243333,212.27769,1.455933333
221,-55.576,213.58063,1.473926667
220.9,-55.76266667,214.67199,1.49031
220.8,-56.07983333,215.99033,1.509453333
220.7,-55.43243333,217.33599,1.526243333
220.6,-53.11083333,218.6673867,1.552386667
220.5,-57.141,219.8844233,1.569043333
220.4,-56.0231,221.6465933,1.592153333
220.3,-57.12103333,223.1346767,1.614173333
220.2,-53.48846667,223.9540767,1.62922
220.1,-53.8797,225.4149767,1.64606
220,-52.5088,227.1815933,1.670213333
219.9,-52.81453333,228.39045,1.691643333
219.8,-54.87113333,230.0942067,1.712436667
219.7,-53.5453,231.6674433,1.738893333
219.6,-50.38653333,232.86449,1.75146
219.5,-52.3583,234.3157033,1.772263333
219.4,-51.15286667,235.93767,1.794293333
219.3,-47.32696667,237.2986633,1.81739
219.2,-51.73933333,239.5387,1.839983333
219.1,-52.46566667,240.5071633,1.855733333
219,-52.10946667,242.0751,1.878293333
218.9,-48.35336667,243.8027867,1.90229
218.8,-49.53943333,245.542,1.928266667
218.7,-48.1127,247.3622333,1.94916
218.6,-49.73436667,249.7665767,1.977166667
218.5,-49.8806,251.34675,2.000183333
218.4,-48.25916667,253.1082867,2.027603333
218.3,-44.91603333,255.3728067,2.05335
218.2,-42.5855,256.97428,2.075216667
218.1,-41.75176667,259.67113,2.110873333
218,-46.562,261.3823333,2.131276667
217.9,-40.47046667,264.08032,2.163663333
217.8,-43.66803333,265.8766533,2.186703333
217.7,-42.8621,268.4618867,2.217173333
217.6,-38.88233333,270.6508933,2.24615
217.5,-37.793,273.5841667,2.279713333
217.4,-42.309,275.66404,2.30667
217.3,-32.35586667,278.4250967,2.341543333
217.2,-33.78426667,281.0087667,2.369033333
217.1,-30.1764,283.8832267,2.40612
217,-35.31703333,285.8874,2.428106667
216.9,-34.39623333,289.14859,2.466203333
216.8,-40.0016,291.7302933,2.49549
216.7,-33.3577,294.2428933,2.524936667
216.6,-27.77356667,296.1844933,2.550153333
216.5,-30.22346667,299.1793633,2.583776667
216.4,-25.72213333,300.7949,2.6025
216.3,-25.23186667,304.08863,2.637033333
216.2,-27.7544,306.17763,2.662423333
216.1,-27.45286667,309.05789,2.690036667
216,-25.639,311.6101467,2.721126667
215.9,-24.74803333,314.12532,2.74802
215.8,-23.48353333,316.8260167,2.778413333
215.7,-30.33856667,319.14912,2.798696667
215.6,-25.48836667,321.91666,2.830443333
215.5,-23.806,325.2045667,2.86491
215.4,-19.17886667,327.3453,2.889103333
215.3,-23.9907,330.71539,2.922456667
215.2,-12.28519667,333.82166,2.955213333
215.1,-18.09313,336.4384767,2.982653333
215,-25.3624,338.0974133,3.001263333
214.9,-17.31576667,341.16647,3.032693333
214.8,-19.0989,344.3958233,3.064613333
214.7,-22.5074,347.07069,3.090983333
214.6,-20.8603,350.4877133,3.124246667
214.5,-19.52860333,353.47773,3.151483333
214.4,-13.75064667,356.69907,3.18391
214.3,-12.32474,358.83773,3.202006667
214.2,-16.46593,361.49414,3.23295
214.1,-15.6037,364.7060933,3.26228
214,-23.06423333,367.6666867,3.29071
213.9,-11.91369,370.5760167,3.318166667
213.8,-12.88980667,373.6322,3.349176667
213.7,-13.70259667,376.7854133,3.375696667
213.6,-13.06643567,379.0807533,3.397956667
213.5,-16.85663333,381.9684533,3.424583333
213.4,-11.98626667,384.8605333,3.451653333
213.3,-20.86263333,388.39997,3.482316667
213.2,-22.25086667,390.86392,3.506573333
213.1,-11.17775333,393.11841,3.526103333
213,-10.31290667,395.8142433,3.550073333
212.9,-3.677636667,398.2689,3.57133
212.8,-7.396256667,401.3524333,3.597886667
212.7,-10.81881,404.0238333,3.623293333
212.6,-13.75680333,406.8204867,3.64808
212.5,-3.849753333,409.7893533,3.672916667
212.4,-9.226213333,412.4417233,3.695276667
212.3,-4.778986667,416.1502333,3.72676
212.2,-5.91244,418.44205,3.748103333
212.1,-9.34917,422.0878967,3.77947
212,-2.135686667,424.9163467,3.80188
211.9,3.025566667,427.6495567,3.824023333
211.8,1.140943333,430.93134,3.851753333
211.7,-12.83164667,433.4817333,3.87467
211.6,0.641352,436.1111,3.892796667
211.5,-10.58128667,438.1084133,3.909776667
211.4,-17.87243333,441.1123167,3.93516
211.3,-4.591486667,443.12983,3.95093
211.2,1.004733333,444.6882,3.964466667
211.1,-3.882603,447.3322933,3.988093333
211,-5.886476667,449.2316733,4.00276
210.9,-9.143953333,451.5020133,4.018476667
210.8,2.494436667,453.8748133,4.037183333
210.7,1.07072,455.79661,4.053766667
210.6,-4.63204,457.7726533,4.068813333
210.5,-6.892396667,459.7212233,4.084493333
210.4,-6.928195333,461.6741667,4.100313333
210.3,-9.779176667,463.4697533,4.11489
210.2,-11.05708,465.5060167,4.132156667
210.1,-0.6097733333,467.23418,4.143473333
210,-8.08049,469.1148433,4.15772
209.9,-6.828456667,470.6709167,4.169566667
209.8,6.142446667,472.8857567,4.187906667
209.7,-8.98219,474.3256533,4.196246667
209.6,-6.4897,476.3685433,4.212776667
209.5,5.75872,478.56509,4.229796667
209.4,1.155306667,479.3879433,4.237036667
209.3,-4.004836667,480.4704767,4.24598
209.2,-8.808146667,482.67818,4.26072
209.1,0.01569,484.2171733,4.272516667
209,-7.790283333,484.6840633,4.277053333
208.9,2.579493333,485.67799,4.28413
208.8,-8.944536667,486.9190333,4.293466667
208.7,-5.0497,487.59715,4.299136667
208.6,0.888772,488.5634767,4.30808
208.5,-5.02505,489.33013,4.311723333
208.4,-2.547903233,490.37726,4.317476667
208.3,-0.9761233333,491.8525967,4.328383333
208.2,-11.58335933,492.88696,4.338363333
208.1,-10.13422333,494.08085,4.345676667
208,-2.268873333,495.23615,4.354616667
207.9,-10.32988333,495.89258,4.36155
207.8,-1.58819,497.2222567,4.368643333
207.7,4.34207,497.7465267,4.375306667
207.6,-2.833123333,498.6467733,4.380176667
207.5,3.664046667,499.2503933,4.383803333
207.4,-3.512356667,499.7473033,4.39008
207.3,-2.876743333,500.49527,4.392796667
207.2,-2.75988,500.90435,4.39776
207.1,3.603453333,501.4661733,4.40339
207,0.188092,502.1184967,4.40641
206.9,-11.52878,502.6324633,4.409793333
206.8,-4.009233,503.3546833,4.41499
206.7,-7.383983333,503.5463267,4.41791
206.6,-7.392136667,504.24202,4.422366667
206.5,-1.797076667,504.6422,4.42493
206.4,2.3718,505.4995133,4.431186667
206.3,4.726824667,506.1330833,4.433716667
206.2,9.534246667,506.7816567,4.438483333
206.1,-1.901263333,507.01035,4.440523333
206,-0.8712063333,507.6839433,4.446776667
205.9,-10.88899667,508.0628833,4.448196667
205.8,1.37244,508.2742133,4.450023333
205.7,-1.64364,508.6159567,4.45255
205.6,0.14248,508.76503,4.455606667
205.5,7.441566667,509.38688,4.460943333
205.4,2.211646667,510.03301,4.46192
205.3,-3.525336667,510.97188,4.467233333
205.2,-7.008941867,510.88092,4.47013
205.1,-2.147973333,511.4334867,4.472163333
205,-0.3082933333,512.1909267,4.476863333
204.9,4.35567,512.0803567,4.476306667
204.8,3.413246667,512.58529,4.481436667
204.7,-5.009329333,512.9419467,4.482316667
204.6,0.4151733333,513.4584533,4.484996667
204.5,-0.9817533333,513.2690933,4.48507
204.4,4.47633,513.6388967,4.48878
204.3,-2.725797,514.2139867,4.490753333
204.2,-3.79179,514.91519,4.495523333
204.1,-2.730986667,514.79223,4.497166667
204,-3.53568,514.8009367,4.497296667
203.9,-2.091306667,515.25518,4.500623333
203.8,-2.953208333,515.8503033,4.505056667
203.7,-5.727166667,516.3153533,4.50976
203.6,1.95086,516.53244,4.509676667
203.5,13.28998,517.1548567,4.511233333
203.4,-2.295776667,517.2317267,4.512763333
203.3,-0.1264366667,517.72596,4.51701
203.2,-0.9484166667,517.7962467,4.518836667
203.1,-6.95563,518.5215733,4.522786667
203,-0.05445,518.8737767,4.525123333
202.9,0.06873,519.4084533,4.529183333
202.8,-1.933585667,519.8588,4.532096667
202.7,-3.684106667,519.5778267,4.5303
202.6,-2.526827,520.4622233,4.53689
202.5,1.72035,520.6925833,4.540536667
202.4,-16.84950333,521.39681,4.541763333
202.3,6.09019,521.6794733,4.54619
202.2,-6.627307667,522.4564767,4.55061
202.1,-5.66247,522.6156067,4.554556667
202,3.272793333,523.5864167,4.559423333
201.9,-11.04091667,524.7353,4.565323333
201.8,-2.287836667,525.3627067,4.571693333
201.7,-6.132715,525.85673,4.57413
201.6,0.8699666667,526.5020833,4.579536667
201.5,4.607393333,527.50042,4.586423333
201.4,1.187583333,527.9225333,4.589346667
201.3,4.022750667,529.06248,4.5962
201.2,-6.18546,529.7496933,4.602263333
201.1,-3.84212,530.21268,4.60554
201,-2.738383333,530.7295333,4.60944
200.9,-5.836903333,532.1145133,4.617553333
200.8,-0.20781,532.5406867,4.62034
200.7,-0.5946466667,533.52948,4.62858
200.6,-8.654846667,534.5597133,4.636306667
200.5,-11.63036,535.6250767,4.642276667
200.4,0.2947933333,536.64685,4.650026667
200.3,1.816126667,537.3100133,4.65362
200.2,1.061414667,538.5543667,4.66278
200.1,5.668853333,539.82082,4.671443333
200,-3.153863333,540.7546233,4.679386667
199.9,3.065532333,541.7570533,4.685396667
199.8,7.818209667,543.0590033,4.693413333
199.7,-4.742056667,544.05821,4.699366667
199.6,4.66293,544.7624133,4.706193333
199.5,-2.239361667,545.9803433,4.71341
199.4,-3.924915333,546.60227,4.71882
199.3,0.96888,547.5785267,4.724623333
199.2,-1.173475667,548.78999,4.73199
199.1,-5.6253,549.0690133,4.735026667
199,-0.3307566667,550.42584,4.743426667
198.9,2.770763333,551.31449,4.750203333
198.8,-4.007293333,552.3727667,4.756726667
198.7,-0.69846,553.4811733,4.764403333
198.6,-4.294906667,554.8021233,4.772976667
198.5,-0.47775,555.6204467,4.7777
198.4,-4.507523333,556.63783,4.785866667
198.3,-5.519176667,557.2975,4.790553333
198.2,10.91320333,558.4599767,4.79785
198.1,-4.927013333,559.0543867,4.801473333
198,-7.35767,559.92302,4.80796
197.9,-1.554052,560.9311533,4.813606667
197.8,2.716223333,561.3574,4.817833333
197.7,4.048463333,562.0343033,4.822203333
197.6,-0.9828366667,562.57105,4.82538
197.5,-5.395019333,563.3420067,4.830443333
197.4,-0.9564933333,564.2285467,4.835016667
197.3,-3.325539667,564.8926433,4.840096667
197.2,-4.961313333,565.5713867,4.84518
197.1,1.171183333,565.9877533,4.847036667
197,-6.26724,566.7464967,4.85059
196.9,10.98113,567.47908,4.856763333
196.8,-9.160723333,567.22861,4.85659
196.7,6.801959333,568.0150133,4.860366667
196.6,10.02165667,568.7297967,4.8659
196.5,-0.36664,569.5100667,4.86993
196.4,-8.309303333,569.4440467,4.87145
196.3,7.972406667,570.4109033,4.876643333
196.2,1.347553333,570.6960467,4.878976667
196.1,2.308367667,571.3462867,4.882026667
196,9.6963,571.5161033,4.882613333
195.9,1.24758,571.9059667,4.886513333
195.8,3.937354,572.3363233,4.888546667
195.7,2.671713333,572.5950667,4.890903333
195.6,-8.588323333,573.0070267,4.892026667
195.5,-0.5904566667,573.01489,4.89329
195.4,0.5101733333,573.4045133,4.89649
195.3,-5.28674,573.6691233,4.89707
195.2,-2.014756667,574.2122067,4.900626667
195.1,-1.854836667,574.1252533,4.900903333
195,6.39008,574.7771667,4.903183333
194.9,-0.93982,574.2355267,4.903256667
194.8,1.725713333,574.7709733,4.904333333
194.7,6.23026,575.1698833,4.907216667
194.6,4.10556,575.2263567,4.905843333
194.5,-3.619436667,575.4307267,4.908963333
194.4,3.230483333,575.6153167,4.910403333
194.3,-0.1169666667,575.78886,4.911683333
194.2,0.562633,576.20365,4.913263333
194.1,-7.93512,576.0955367,4.911963333
194,-2.177373333,576.7224333,4.91725
193.9,-5.208957667,576.1993333,4.912903333
193.8,1.017851333,576.65921,4.916103333
193.7,-6.130656667,577.13858,4.920173333
193.6,0.120974,577.3074167,4.921493333
193.5,2.24693,577.7330967,4.92407
193.4,2.411595667,577.8423733,4.92538
193.3,1.584413333,578.10945,4.92575
193.2,4.238976667,578.3567033,4.92825
193.1,-6.472796667,578.5394633,4.927366667
193,5.503566667,578.2508167,4.928273333
192.9,0.7902683333,578.0064367,4.927213333
192.8,1.912995333,578.5946533,4.93012
192.7,5.268753333,578.6711633,4.929293333
192.6,-0.82499,579.0334433,4.932073333
192.5,-0.016,579.1710333,4.932793333
192.4,-3.28385,579.3621767,4.934286667
192.3,1.549456667,579.6444567,4.93691
192.2,0.1541033333,579.3167967,4.934556667
192.1,3.306993333,579.7387,4.936163333
192,-5.533144333,579.5420067,4.937706667
191.9,-3.234383333,580.3545933,4.940443333
191.8,5.779885333,580.0183533,4.938773333
191.7,3.246476667,579.9471133,4.938526667
191.6,0.5487733333,579.9985633,4.93963
191.5,4.074826667,579.9299,4.939303333
191.4,1.040533333,579.9434967,4.93888
191.3,5.106396667,580.2626567,4.942003333
191.2,-6.649103333,580.4463,4.942826667
191.1,-1.927456667,580.56021,4.94306
191,4.558503333,581.2295933,4.947496667
190.9,-0.557818,581.0386733,4.944833333
190.8,0.7948133333,581.1886933,4.946283333
190.7,-3.134883333,581.6353533,4.94692
190.6,-3.896643333,581.89357,4.950883333
190.5,9.60183,582.0947933,4.951513333
190.4,-1.221083333,581.8378833,4.95028
190.3,-3.136909533,581.83822,4.949336667
190.2,9.408943333,581.9200767,4.950976667
190.1,-1.47251,582.0910533,4.952553333
190,-1.975216333,581.8130733,4.950236667
,,,
##### Extended Information,,,
[Comments],,,
Sample name,TB_TH_KD_Protein and Additive,,
Comment,Protein and Additive,,
User,Tara_Tyler_Kimani,,
Division,,,
Company,Saint Mary's College,,
,,,
[Detailed Information],,,
Creation date,9/29/2022 3:59 PM,,
,,,
Data array type,Linear data array * 3,,
Horizontal axis,Wavelength [nm],,
Vertical axis(1),CD [mdeg],,
Vertical axis(2),HT [V],,
Vertical axis(3),Abs,,
Start,320 nm,,
End,190 nm,,
Data interval,0.1 nm,,
Data points,1301,,
,,,
[Measurement Information],,,
Instrument name,J-1500,,
Model name,J-1500,,
Serial No.,B051061638,,
,,,
Detector,PM-539,,
Detector S/N,B051061638,,
Lock-in amp.,X mode,,
HT volt,Auto,,
,,,
Accessory,PTC-517,,
Accessory S/N,B026561646,,
Temperature,21.82 C,,
Control sensor,Holder,,
Monitor sensor,Holder,,
,,,
Measurement date,9/29/2022 3:58 PM,,
,,,
CD Overload detect,946,,
Photometric mode,CD,HT,Abs
Measure range,320 - 190 nm,,
Data pitch,0.1 nm,,
CD scale,20 mdeg/0.05 dOD,,
FL scale,20 mdeg/0.05 dOD,,
D.I.T.,8 msec,,
Bandwidth,2.00 nm,,
Start mode,Immediately,,
Scanning mode,Continuous,,
Scanning speed,200 nm/min,,
Baseline correction,None,,
Shutter control,Auto,,
No. of cycle,1/1,,
N2 Flowmeter,Manual,,
,,,
Solvent,NaPO4 buffer,,