TITLE,TestSample_RMCT
DATA TYPE,
ORIGIN,JASCO
OWNER,
DATE,22/09/27
TIME,14:28:46
SPECTROMETER/DATA SYSTEM,
LOCALE,1033
RESOLUTION,
DELTAX,-0.1
XUNITS,NANOMETERS
YUNITS,CD [mdeg]
Y2UNITS,HT [V]
Y3UNITS,ABSORBANCE
FIRSTX,  320.0000
LASTX,  190.0000
NPOINTS,    1301
FIRSTY,     1.48099
MAXY,    44.57211
MINY,   -66.95503
XYDATA
320.0000,1.48099,257.972,0.798033
319.9000,2.02259,256.462,0.779877
319.8000,-2.05518,258.512,0.804495
319.7000,1.44039,257.601,0.793574
319.6000,1.75549,258.321,0.802216
319.5000,3.65464,256.738,0.783207
319.4000,1.86926,258.506,0.804427
319.3000,1.47245,257.512,0.792512
319.2000,0.787635,257.887,0.797014
319.1000,3.53295,257.474,0.792049
319.0000,1.00698,257.534,0.792771
318.9000,0.138913,257.576,0.793274
318.8000,0.659583,257.338,0.790416
318.7000,3.27391,257.728,0.795097
318.6000,-0.329607,257.716,0.794961
318.5000,3.38903,258.004,0.798413
318.4000,-0.817131,257.571,0.79322
318.3000,4.12655,257.565,0.793152
318.2000,0.795954,257.244,0.789286
318.1000,1.56597,256.327,0.778251
318.0000,1.57029,257.434,0.791573
317.9000,-1.00811,257.339,0.79043
317.8000,5.24549,257.865,0.796742
317.7000,2.81912,257.408,0.79126
317.6000,2.97006,256.841,0.784448
317.5000,-0.126277,258.124,0.799853
317.4000,4.17053,258.266,0.80155
317.3000,-0.196429,257.078,0.787297
317.2000,-1.7883,257.449,0.79175
317.1000,-0.9622,257.665,0.794349
317.0000,2.80468,257.005,0.786411
316.9000,1.54619,256.763,0.783507
316.8000,1.0813,257.164,0.788332
316.7000,-1.36147,257.406,0.791233
316.6000,1.53588,257.456,0.791832
316.5000,-2.30425,256.939,0.78562
316.4000,2.40507,256.363,0.778688
316.3000,1.18986,257.105,0.787624
316.2000,6.18865,256.775,0.783643
316.1000,4.61151,257.588,0.793424
316.0000,1.77818,257.203,0.788795
315.9000,5.39705,257.405,0.791219
315.8000,1.15646,257.138,0.788019
315.7000,2.46078,256.99,0.786234
315.6000,1.97614,258.347,0.802527
315.5000,1.76559,257.006,0.786425
315.4000,2.43847,257.281,0.789735
315.3000,0.704537,256.546,0.780887
315.2000,2.67347,256.866,0.784748
315.1000,2.53372,256.998,0.786329
315.0000,3.30816,257.278,0.789694
314.9000,-0.490591,256.921,0.785402
314.8000,-0.591694,257.143,0.788074
314.7000,0.11522,256.752,0.78337
314.6000,2.14185,257.262,0.789504
314.5000,1.47353,257.007,0.786438
314.4000,0.99136,257.163,0.788319
314.3000,1.77101,257.772,0.795627
314.2000,1.89855,256.361,0.778661
314.1000,1.25659,257.036,0.786793
314.0000,2.06396,256.293,0.777842
313.9000,2.82903,256.839,0.78442
313.8000,-0.660906,257.944,0.797693
313.7000,3.80643,256.059,0.775013
313.6000,1.63329,256.979,0.786098
313.5000,0.547688,257.308,0.790062
313.4000,1.21802,257.257,0.789449
313.3000,2.22769,256.819,0.784175
313.2000,4.25624,257.434,0.791573
313.1000,0.984446,255.881,0.772866
313.0000,-0.113677,256.505,0.780395
312.9000,0.470725,258.01,0.798481
312.8000,2.12431,256.681,0.782511
312.7000,2.08835,256.963,0.785907
312.6000,1.55952,256.214,0.776885
312.5000,6.01539,256.445,0.779672
312.4000,3.32011,257.424,0.791451
312.3000,2.04301,255.589,0.769348
312.2000,1.5796,256.286,0.77776
312.1000,1.38372,257.711,0.794893
312.0000,1.21754,256.977,0.786084
311.9000,0.284542,257.466,0.791954
311.8000,-0.740642,257.309,0.790076
311.7000,1.67632,258.192,0.800668
311.6000,2.06785,255.729,0.771032
311.5000,-0.302138,256.834,0.784352
311.4000,3.61078,256.378,0.778866
311.3000,-0.351064,257.653,0.794199
311.2000,1.94931,257.42,0.79141
311.1000,-0.379688,256.647,0.782101
311.0000,3.40733,256.09,0.775395
310.9000,-1.13209,256.712,0.782893
310.8000,1.59945,256.99,0.786234
310.7000,-1.83721,257.108,0.787651
310.6000,1.7328,256.905,0.785211
310.5000,0.935027,256.909,0.785266
310.4000,1.98301,257.502,0.79239
310.3000,-2.12176,256.341,0.778415
310.2000,2.61591,257.468,0.791981
310.1000,0.498072,257.921,0.797421
310.0000,-0.119566,256.541,0.780832
309.9000,2.5653,257.62,0.793805
309.8000,1.17244,256.613,0.781692
309.7000,0.904644,257.279,0.789708
309.6000,1.80297,257.255,0.789422
309.5000,1.98821,257.094,0.787488
309.4000,2.03023,256.794,0.783875
309.3000,0.634095,257.542,0.792866
309.2000,1.5044,257.014,0.78652
309.1000,2.67316,257.016,0.786547
309.0000,1.58763,257.014,0.78652
308.9000,1.33648,257.299,0.789953
308.8000,4.06568,256.806,0.784025
308.7000,3.47115,256.998,0.786329
308.6000,0.615354,256.75,0.783343
308.5000,-2.11969,257.408,0.79126
308.4000,3.06703,257.1,0.787556
308.3000,-1.5498,257.203,0.788795
308.2000,1.84821,256.608,0.781637
308.1000,2.10186,257.21,0.788877
308.0000,0.854282,256.598,0.781515
307.9000,2.03897,256.812,0.784093
307.8000,-0.712343,256.35,0.778525
307.7000,-0.391454,255.221,0.764896
307.6000,-1.85063,256.839,0.78442
307.5000,1.04596,256.838,0.784407
307.4000,3.3533,257.02,0.786602
307.3000,0.597524,256.881,0.784925
307.2000,-0.52318,256.531,0.780709
307.1000,3.44288,256.58,0.781296
307.0000,1.78229,257.33,0.790321
306.9000,3.36383,256.614,0.781706
306.8000,1.31951,256.948,0.785729
306.7000,0.755343,257.284,0.789776
306.6000,3.17591,256.056,0.774985
306.5000,1.88673,256.463,0.77989
306.4000,3.68711,257.681,0.794539
306.3000,1.27739,256.168,0.776339
306.2000,0.647898,256.062,0.775054
306.1000,0.576043,257.315,0.790144
306.0000,1.86888,257.224,0.789054
305.9000,2.27586,255.371,0.766705
305.8000,2.16838,257.035,0.786779
305.7000,4.98009,256.957,0.785839
305.6000,-1.14138,256.464,0.779904
305.5000,2.76902,256.737,0.783193
305.4000,1.51096,256.102,0.775532
305.3000,2.45721,256.284,0.777732
305.2000,1.85559,256.753,0.783384
305.1000,0.116143,256.913,0.785307
305.0000,4.25388,257.124,0.787842
304.9000,-0.235868,256.063,0.775067
304.8000,-0.306829,256.338,0.778388
304.7000,1.6715,256.794,0.783875
304.6000,1.60625,256.763,0.783507
304.5000,0.569341,256.238,0.777172
304.4000,1.07547,256.162,0.776257
304.3000,1.52461,256.282,0.777705
304.2000,1.20048,256.345,0.77847
304.1000,1.95287,256.397,0.779098
304.0000,0.835983,256.401,0.779139
303.9000,2.00504,256.142,0.776024
303.8000,3.43146,255.968,0.773919
303.7000,2.65123,256.669,0.782374
303.6000,2.74108,255.728,0.771018
303.5000,0.442108,256.215,0.776899
303.4000,-2.1245,256.099,0.775505
303.3000,3.0235,255.814,0.772058
303.2000,3.72614,256.126,0.775833
303.1000,1.48071,256.712,0.782893
303.0000,1.94906,255.861,0.772633
302.9000,-0.855621,256.071,0.775163
302.8000,1.10727,256.027,0.77463
302.7000,3.34968,256.215,0.776899
302.6000,1.79324,256.377,0.778853
302.5000,2.53021,256.308,0.778019
302.4000,0.554808,256.7,0.782743
302.3000,-0.00467989,255.737,0.771128
302.2000,1.80555,255.862,0.772647
302.1000,0.11091,255.313,0.766006
302.0000,-0.312731,255.878,0.772838
301.9000,2.81531,256.679,0.782497
301.8000,0.118039,255.49,0.768143
301.7000,-1.74707,256.036,0.774739
301.6000,3.95302,255.483,0.768061
301.5000,0.862621,255.778,0.771621
301.4000,-0.616951,256.565,0.781119
301.3000,1.30589,256.164,0.776284
301.2000,4.2854,255.651,0.770087
301.1000,2.20548,257.684,0.79458
301.0000,1.40155,255.427,0.76739
300.9000,-1.26648,256.155,0.776174
300.8000,1.02911,257.031,0.786725
300.7000,0.226145,255.509,0.768376
300.6000,3.39242,255.73,0.771046
300.5000,1.32424,255.495,0.768212
300.4000,-0.12045,256.482,0.780122
300.3000,-0.254423,256.187,0.776557
300.2000,-0.747756,255.807,0.771976
300.1000,0.287318,255.771,0.771539
300.0000,2.04474,255.979,0.774055
299.9000,-1.43028,256.956,0.785825
299.8000,2.24609,256.069,0.775136
299.7000,2.31675,255.872,0.772756
299.6000,1.09132,255.553,0.76891
299.5000,-0.0414701,255.498,0.768239
299.4000,-0.629494,255.708,0.770786
299.3000,-0.638461,256.14,0.775997
299.2000,1.59377,256.642,0.782047
299.1000,-0.329887,255.655,0.770142
299.0000,2.60607,255.721,0.770936
298.9000,0.483806,256.057,0.774999
298.8000,3.58526,256.302,0.777951
298.7000,1.40038,255.893,0.773016
298.6000,1.50269,255.659,0.770184
298.5000,1.59611,255.631,0.769855
298.4000,0.427642,255.506,0.768335
298.3000,2.6397,256.249,0.777309
298.2000,3.85072,256.349,0.778511
298.1000,0.885528,256.342,0.778429
298.0000,1.56186,255.233,0.765033
297.9000,0.54369,255.284,0.76565
297.8000,1.42788,255.148,0.764005
297.7000,0.235094,254.969,0.761837
297.6000,3.80315,255.938,0.773563
297.5000,1.41477,255.685,0.770498
297.4000,-1.20911,256.165,0.776298
297.3000,2.06286,255.989,0.774179
297.2000,2.37879,255.536,0.768705
297.1000,1.11718,255.526,0.768581
297.0000,3.95839,255.638,0.769937
296.9000,2.88426,254.932,0.761398
296.8000,-2.36207,256.241,0.777213
296.7000,0.987763,255.798,0.771867
296.6000,3.48007,255.093,0.763346
296.5000,0.810786,256.166,0.776311
296.4000,-0.272186,256.069,0.775136
296.3000,2.89137,255.433,0.767458
296.2000,-0.277963,256.56,0.781064
296.1000,1.04349,254.95,0.761618
296.0000,2.2176,255.463,0.767814
295.9000,0.938949,255.305,0.76591
295.8000,2.06547,255.753,0.771319
295.7000,-1.30487,256.004,0.774356
295.6000,4.12857,255.678,0.770416
295.5000,2.90822,255.284,0.76565
295.4000,0.483202,257.03,0.786711
295.3000,2.78093,255.521,0.768527
295.2000,4.48226,256.431,0.779508
295.1000,0.66109,255.742,0.771196
295.0000,1.50072,255.873,0.77277
294.9000,0.95438,255.605,0.76954
294.8000,3.29263,254.05,0.750694
294.7000,1.27106,256.04,0.774794
294.6000,2.05538,255.719,0.770909
294.5000,0.499443,255.449,0.76765
294.4000,2.44732,255.464,0.767828
294.3000,0.294083,255.346,0.766403
294.2000,4.9136,255.652,0.770101
294.1000,1.69471,256.174,0.776407
294.0000,0.824333,254.532,0.756551
293.9000,-0.190018,256.216,0.776912
293.8000,3.45367,256.955,0.785811
293.7000,3.2383,255.758,0.771388
293.6000,3.0786,256.477,0.780054
293.5000,1.24722,255.891,0.772989
293.4000,3.42374,255.943,0.773618
293.3000,1.15401,255.8,0.771894
293.2000,-0.638535,255.874,0.772784
293.1000,3.93687,255.575,0.76917
293.0000,-0.650927,256.206,0.776789
292.9000,0.450491,255.305,0.76591
292.8000,2.40999,254.896,0.760959
292.7000,1.91508,254.75,0.759188
292.6000,1.98432,255.472,0.767924
292.5000,-0.192162,256.221,0.776967
292.4000,-0.230422,256.049,0.774903
292.3000,-2.64488,254.929,0.761357
292.2000,4.32708,255.357,0.76654
292.1000,2.68291,255.176,0.764347
292.0000,3.99732,256.35,0.778525
291.9000,1.31015,255.009,0.762331
291.8000,3.16162,255.314,0.76602
291.7000,2.10841,254.888,0.760863
291.6000,3.18383,255.262,0.765389
291.5000,1.37466,254.558,0.756867
291.4000,0.723308,254.064,0.750872
291.3000,-1.07138,254.491,0.756057
291.2000,6.59004,253.888,0.748725
291.1000,-1.86754,253.984,0.749895
291.0000,-1.42335,255.623,0.769759
290.9000,1.24006,255.422,0.767321
290.8000,-0.107031,254.58,0.757128
290.7000,0.691023,254.52,0.7564
290.6000,2.54773,255.526,0.768581
290.5000,0.292404,255.09,0.763305
290.4000,2.73667,255.373,0.766732
290.3000,5.86295,254.319,0.753967
290.2000,1.11814,255.128,0.763771
290.1000,0.0208015,255.138,0.763895
290.0000,1.05355,255.238,0.765101
289.9000,0.725626,255.431,0.767431
289.8000,1.14921,255.716,0.770882
289.7000,4.24601,254.921,0.761261
289.6000,5.30544,255.629,0.769828
289.5000,0.846971,257.486,0.792199
289.4000,-0.76325,256.105,0.775573
289.3000,1.95801,255.46,0.767787
289.2000,-0.0749029,256.165,0.776298
289.1000,2.58639,256.242,0.777227
289.0000,2.30412,257.514,0.792539
288.9000,2.51635,256.5,0.780341
288.8000,2.1879,255.714,0.770854
288.7000,-0.203894,256.567,0.781146
288.6000,-1.59821,255.531,0.768636
288.5000,3.5464,255.739,0.771155
288.4000,2.14077,256.553,0.780969
288.3000,2.10856,255.647,0.770047
288.2000,1.84524,255.806,0.771963
288.1000,3.41063,256.38,0.778893
288.0000,-1.00978,256.098,0.775491
287.9000,-2.55137,255.285,0.765663
287.8000,-0.217295,255.643,0.769992
287.7000,1.83272,255.11,0.763552
287.6000,-0.305037,255.282,0.765636
287.5000,-0.387884,256.036,0.774739
287.4000,0.862842,256.55,0.780941
287.3000,1.9119,255.725,0.770991
287.2000,2.91137,256.606,0.78161
287.1000,0.595784,255.822,0.772154
287.0000,1.65757,256.105,0.775573
286.9000,-0.575688,256.403,0.779166
286.8000,2.62591,256.448,0.779713
286.7000,-2.03759,255.596,0.76943
286.6000,1.65913,255.889,0.772961
286.5000,5.59543,255.809,0.772004
286.4000,2.3435,254.873,0.760685
286.3000,2.76573,255.413,0.767212
286.2000,1.84196,256.972,0.786016
286.1000,0.00380521,256.792,0.783848
286.0000,4.09972,255.591,0.769362
285.9000,0.152868,255.84,0.772373
285.8000,1.71507,255.202,0.764662
285.7000,1.96446,255.085,0.76325
285.6000,1.41373,254.48,0.755919
285.5000,2.38516,256.94,0.785634
285.4000,-0.0709686,255.873,0.77277
285.3000,-0.457896,256.267,0.777527
285.2000,-1.49843,256.063,0.775067
285.1000,1.64648,255.753,0.771319
285.0000,3.62808,255.313,0.766006
284.9000,1.32067,256.217,0.776926
284.8000,1.69867,255.223,0.764923
284.7000,1.81554,256.575,0.781242
284.6000,-1.34801,255.443,0.767582
284.5000,-0.284945,255.091,0.763319
284.4000,0.432928,254.946,0.761563
284.3000,-0.489134,256.447,0.779699
284.2000,2.16715,256.205,0.776776
284.1000,-0.120089,254.817,0.759998
284.0000,3.1888,255.597,0.769444
283.9000,0.263524,256.361,0.778661
283.8000,2.08617,256.09,0.775395
283.7000,-0.01403,256.777,0.78367
283.6000,2.54538,255.89,0.772975
283.5000,1.92735,255.072,0.763086
283.4000,1.69823,257.049,0.786942
283.3000,0.0371065,254.719,0.758818
283.2000,3.75445,255.629,0.769828
283.1000,1.19452,255.773,0.771566
283.0000,1.11007,255.911,0.773235
282.9000,1.91561,256.531,0.780709
282.8000,3.4205,255.457,0.767746
282.7000,0.853159,256.055,0.774972
282.6000,-0.9531,255.463,0.767814
282.5000,-0.379921,254.225,0.752826
282.4000,0.472297,256.327,0.778251
282.3000,0.893005,255.645,0.770019
282.2000,4.35531,255.737,0.771128
282.1000,-0.670168,254.193,0.752441
282.0000,1.84543,255.195,0.76458
281.9000,0.194631,256.615,0.78172
281.8000,-0.900558,256.621,0.781788
281.7000,0.937939,255.649,0.770074
281.6000,4.16458,257.043,0.786874
281.5000,-0.755028,255.465,0.767842
281.4000,2.31222,256.258,0.777418
281.3000,2.79506,255.974,0.773987
281.2000,3.74167,256.66,0.782265
281.1000,3.84199,254.839,0.760273
281.0000,2.08167,255.186,0.76447
280.9000,1.49009,255.621,0.769732
280.8000,0.123363,255.901,0.773112
280.7000,0.237117,255.773,0.771566
280.6000,2.82114,256.874,0.784843
280.5000,-0.700105,255.438,0.767513
280.4000,1.1057,255.111,0.763566
280.3000,0.117966,256.573,0.781214
280.2000,2.31286,255.705,0.770745
280.1000,0.904792,256.329,0.778279
280.0000,2.68448,255.896,0.773057
279.9000,0.638795,255.444,0.767595
279.8000,1.18644,256.387,0.778975
279.7000,1.4251,256.44,0.779617
279.6000,4.05587,255.902,0.773126
279.5000,-1.89929,256.41,0.779248
279.4000,-0.978416,255.712,0.770827
279.3000,3.24729,256.7,0.782743
279.2000,1.01186,255.219,0.764868
279.1000,-0.535401,254.642,0.757884
279.0000,-0.120606,255.515,0.768444
278.9000,1.74195,255.799,0.771881
278.8000,-0.289296,255.183,0.76443
278.7000,0.0509098,255.79,0.771771
278.6000,1.36736,255.094,0.76336
278.5000,-1.0167,256.081,0.775286
278.4000,0.967304,255.234,0.765046
278.3000,1.84505,255.046,0.76277
278.2000,3.18284,256.14,0.775997
278.1000,-1.04917,255.597,0.769444
278.0000,1.78938,255.127,0.763758
277.9000,4.53051,257.098,0.787529
277.8000,0.336411,254.948,0.76159
277.7000,2.71236,254.632,0.75776
277.6000,0.202897,256.506,0.780409
277.5000,0.622553,254.306,0.753802
277.4000,0.300283,255.674,0.770375
277.3000,1.25581,256.18,0.776475
277.2000,-1.01061,255.141,0.763922
277.1000,2.37822,255.707,0.770772
277.0000,2.1686,254.928,0.761343
276.9000,2.27675,256.079,0.775259
276.8000,2.2082,255.733,0.771087
276.7000,0.927692,254.725,0.758886
276.6000,-0.358285,255.421,0.767308
276.5000,0.190334,255.196,0.764594
276.4000,1.81578,255.487,0.768116
276.3000,0.3511,254.031,0.750474
276.2000,1.81142,256.038,0.774767
276.1000,0.931306,256.026,0.774616
276.0000,-1.65248,255.367,0.766663
275.9000,-0.635235,254.903,0.761041
275.8000,-0.179172,254.53,0.756524
275.7000,2.01321,256.536,0.780764
275.6000,-0.666393,254.761,0.759326
275.5000,0.213679,254.572,0.757032
275.4000,-0.497162,254.708,0.75868
275.3000,0.358044,255.294,0.765773
275.2000,1.59094,254.641,0.75787
275.1000,1.47825,255.823,0.772168
275.0000,5.02245,254.771,0.759449
274.9000,-0.269597,254.894,0.760932
274.8000,-0.930375,255.158,0.764128
274.7000,-1.33388,256.031,0.774685
274.6000,-0.117831,254.91,0.761124
274.5000,3.49979,255.243,0.765156
274.4000,-0.2596,255.09,0.763305
274.3000,1.62169,254.735,0.75901
274.2000,0.931883,254.774,0.759477
274.1000,3.70036,255.652,0.770101
274.0000,0.729775,255.562,0.76902
273.9000,0.450369,254.884,0.760808
273.8000,-1.9498,255.228,0.764978
273.7000,-1.52405,254.402,0.754971
273.6000,1.73818,255.05,0.762825
273.5000,-0.0334725,253.536,0.744455
273.4000,2.11036,254.425,0.755246
273.3000,-0.147372,255.018,0.762441
273.2000,0.847765,255.421,0.767308
273.1000,1.65467,254.949,0.761604
273.0000,1.30004,254.727,0.758914
272.9000,1.83493,255.758,0.771388
272.8000,0.778015,255.334,0.766266
272.7000,3.25396,255.629,0.769828
272.6000,2.043,255.059,0.762935
272.5000,0.452529,254.867,0.760602
272.4000,2.15643,254.697,0.758543
272.3000,0.666459,255.104,0.763483
272.2000,0.381963,255.342,0.766362
272.1000,0.466514,254.908,0.76111
272.0000,5.34416,255.645,0.770019
271.9000,0.513973,255.396,0.767006
271.8000,2.50739,254.94,0.761494
271.7000,-0.726356,255.637,0.769923
271.6000,-0.600113,254.986,0.762043
271.5000,0.680589,254.621,0.757623
271.4000,1.14218,255.124,0.763716
271.3000,1.84501,254.846,0.760355
271.2000,-0.99668,254.856,0.760479
271.1000,-1.58756,254.99,0.762098
271.0000,2.14675,255.764,0.771456
270.9000,2.06935,254.281,0.7535
270.8000,1.16068,255.025,0.762523
270.7000,2.15841,255.405,0.767116
270.6000,0.399018,255.29,0.765732
270.5000,-0.498885,253.679,0.746191
270.4000,-0.298094,254.889,0.760877
270.3000,2.97149,254.724,0.758873
270.2000,1.09865,254.407,0.755026
270.1000,-1.37196,255.046,0.76277
270.0000,1.83161,255.305,0.76591
269.9000,0.00341869,255.238,0.765101
269.8000,-2.32954,254.779,0.759545
269.7000,0.537825,255.281,0.765622
269.6000,0.42857,254.854,0.760451
269.5000,0.502312,255.346,0.766403
269.4000,2.86185,255.373,0.766732
269.3000,2.79514,255.273,0.765526
269.2000,-0.839052,254.596,0.757321
269.1000,0.24978,254.902,0.761028
269.0000,0.764673,255.449,0.76765
268.9000,-0.404894,255.132,0.763812
268.8000,-0.693087,255.021,0.762468
268.7000,1.44391,255.008,0.762317
268.6000,-1.40538,254.757,0.759271
268.5000,-0.925526,255.81,0.772017
268.4000,2.61241,254.813,0.759957
268.3000,0.164763,254.644,0.757911
268.2000,-0.483389,255.121,0.763689
268.1000,1.91365,256.758,0.783439
268.0000,-0.59056,255.492,0.76817
267.9000,-1.0744,254.805,0.759861
267.8000,1.94391,254.59,0.757252
267.7000,1.36748,255.026,0.762537
267.6000,-0.131456,254.935,0.761426
267.5000,-1.43691,254.562,0.756908
267.4000,1.23084,253.675,0.746136
267.3000,1.29802,255.597,0.769444
267.2000,-1.04338,255.183,0.76443
267.1000,1.05363,255.019,0.762455
267.0000,2.04908,255.378,0.766787
266.9000,2.01421,255.121,0.763689
266.8000,1.51236,255.501,0.76828
266.7000,0.99847,255.076,0.76314
266.6000,0.222786,254.927,0.76133
266.5000,1.25572,255.414,0.767225
266.4000,3.35939,255.049,0.762811
266.3000,2.29321,255.068,0.763045
266.2000,1.89031,254.975,0.761919
266.1000,2.15675,255.374,0.766746
266.0000,0.806797,255.058,0.762921
265.9000,1.69608,255.531,0.768636
265.8000,-1.59384,255.567,0.769074
265.7000,-0.888082,256.111,0.775642
265.6000,-2.67706,255.007,0.762304
265.5000,-1.96998,255.555,0.768938
265.4000,-3.1233,254.796,0.759751
265.3000,-1.15977,255.029,0.762564
265.2000,0.792898,254.403,0.754985
265.1000,5.87725,255.608,0.769567
265.0000,-0.188067,255.118,0.763648
264.9000,0.399311,255.401,0.767075
264.8000,0.346342,256.717,0.782948
264.7000,-0.951385,255.554,0.768924
264.6000,-1.78244,255.642,0.769978
264.5000,2.34895,255.734,0.7711
264.4000,2.58269,254.353,0.75438
264.3000,-0.223497,255.225,0.764937
264.2000,-0.736341,255.401,0.767075
264.1000,-1.50573,255.22,0.764882
264.0000,-1.9678,255.472,0.767924
263.9000,0.411867,255.756,0.771361
263.8000,-4.35623,254.744,0.75912
263.7000,-1.20057,255.269,0.765471
263.6000,-1.62584,255.163,0.764196
263.5000,2.23435,255.796,0.771839
263.4000,1.08771,254.861,0.760534
263.3000,3.98626,255.646,0.770033
263.2000,1.5577,256.279,0.777678
263.1000,2.86807,255.695,0.770621
263.0000,3.53433,255.964,0.773878
262.9000,2.06257,256.312,0.778074
262.8000,3.05655,254.761,0.759326
262.7000,1.37481,255.219,0.764868
262.6000,2.41509,253.748,0.747031
262.5000,1.97101,255.544,0.768801
262.4000,-2.57627,256.247,0.777282
262.3000,-1.9085,256.255,0.777377
262.2000,1.87352,255.327,0.76617
262.1000,-0.959462,256.006,0.774384
262.0000,1.90454,256.771,0.783602
261.9000,-1.16482,254.937,0.761453
261.8000,2.52421,255.843,0.772414
261.7000,1.40942,256.462,0.779877
261.6000,1.09022,256.15,0.77612
261.5000,0.507127,256.575,0.781242
261.4000,4.16935,256.029,0.774657
261.3000,-0.929552,256.542,0.780846
261.2000,1.71449,256.702,0.78277
261.1000,0.18142,254.891,0.760904
261.0000,-0.933801,256.533,0.780737
260.9000,-0.888114,256.596,0.781487
260.8000,-1.31314,256.046,0.774862
260.7000,-0.335932,256.102,0.775532
260.6000,-0.284497,255.392,0.766965
260.5000,-3.07762,255.776,0.771607
260.4000,-0.32634,255.865,0.772674
260.3000,2.21262,256.679,0.782497
260.2000,-0.54972,256.405,0.779194
260.1000,-0.106454,256.022,0.774575
260.0000,-0.310637,256.103,0.775546
259.9000,1.67074,256.357,0.778607
259.8000,1.09638,256.117,0.775724
259.7000,2.55867,255.756,0.771361
259.6000,0.437863,255.783,0.771689
259.5000,1.13809,257.413,0.791314
259.4000,2.15994,256.647,0.782101
259.3000,1.60137,256.304,0.777978
259.2000,-0.790904,256.188,0.776571
259.1000,0.768484,256.256,0.777391
259.0000,-0.00268535,257.207,0.78885
258.9000,-1.9056,256.206,0.776789
258.8000,1.69642,256.536,0.780764
258.7000,-0.169309,256.664,0.782306
258.6000,0.456657,256.17,0.776352
258.5000,2.18458,257.539,0.792839
258.4000,1.16909,256.628,0.781883
258.3000,-0.805093,256.753,0.783384
258.2000,0.440866,256.76,0.783466
258.1000,1.91454,256.192,0.776626
258.0000,0.506024,257.95,0.797761
257.9000,-0.915755,256.713,0.782906
257.8000,-0.287721,256.973,0.786029
257.7000,-0.776806,257.228,0.789095
257.6000,-2.4552,256.208,0.776817
257.5000,2.04732,256.565,0.781119
257.4000,1.19492,255.893,0.773016
257.3000,-3.31685,255.473,0.767938
257.2000,3.10262,256.741,0.783234
257.1000,-1.53923,257.065,0.787133
257.0000,-0.805905,256.963,0.785907
256.9000,2.18019,257.206,0.788836
256.8000,-0.35998,257.734,0.795178
256.7000,2.57814,256.907,0.785239
256.6000,-0.714506,255.673,0.770361
256.5000,1.7906,257.129,0.78791
256.4000,0.489469,257.606,0.793642
256.3000,-1.59983,257.254,0.789408
256.2000,2.58954,257.553,0.793002
256.1000,0.64867,257.186,0.788591
256.0000,-0.0415595,257.432,0.791546
255.9000,-0.507247,257.632,0.793954
255.8000,1.37527,256.771,0.783602
255.7000,1.27317,258.309,0.802066
255.6000,0.395222,257.993,0.798277
255.5000,1.7793,256.775,0.783643
255.4000,2.21602,257.27,0.789599
255.3000,-0.0190662,256.924,0.785443
255.2000,-0.858497,257.219,0.788986
255.1000,3.46785,258.425,0.803464
255.0000,1.97649,257.263,0.789517
254.9000,-1.68047,257.595,0.793506
254.8000,2.81598,256.483,0.780136
254.7000,-1.02827,257.703,0.794798
254.6000,-1.24788,257.533,0.792757
254.5000,2.76723,257.9,0.797163
254.4000,1.10742,257.811,0.796103
254.3000,2.18605,257.765,0.795546
254.2000,2.14056,258.105,0.799622
254.1000,-0.127234,257.661,0.794294
254.0000,-0.823257,257.619,0.793791
253.9000,2.81359,257.363,0.790716
253.8000,0.576293,258.166,0.800355
253.7000,1.61997,257.783,0.795763
253.6000,1.92171,257.877,0.796891
253.5000,2.18362,257.168,0.788373
253.4000,-2.22462,258.425,0.803464
253.3000,1.43016,257.713,0.79492
253.2000,-0.166885,258.437,0.8036
253.1000,1.87133,257.931,0.797544
253.0000,-0.293486,258.333,0.802351
252.9000,1.68095,258.334,0.802365
252.8000,-0.989438,258.079,0.79931
252.7000,2.26481,257.951,0.797775
252.6000,0.0672769,257.998,0.798345
252.5000,-0.102065,257.921,0.797421
252.4000,2.93299,258.145,0.800098
252.3000,0.200744,258.341,0.802446
252.2000,1.52727,258.629,0.805905
252.1000,0.189536,257.756,0.795437
252.0000,0.822922,258.459,0.803871
251.9000,2.11904,257.88,0.796932
251.8000,-1.95185,258.108,0.799663
251.7000,-0.322559,258.279,0.801713
251.6000,2.25768,258.955,0.809795
251.5000,2.07817,258.622,0.80581
251.4000,-0.611416,258.787,0.80779
251.3000,1.10784,258.216,0.800953
251.2000,0.968598,258.347,0.802527
251.1000,-2.05243,258.165,0.800342
251.0000,0.0714495,258.403,0.803192
250.9000,-2.18531,258.637,0.806
250.8000,0.194503,258.262,0.80151
250.7000,0.704799,258.425,0.803464
250.6000,-0.76996,258.309,0.802066
250.5000,1.13264,258.045,0.798902
250.4000,-2.84459,258.841,0.80844
250.3000,3.76423,258.049,0.798957
250.2000,-0.0318416,259.159,0.812232
250.1000,-3.37354,257.944,0.797693
250.0000,-0.0098562,258.423,0.803437
249.9000,-1.89643,259.283,0.813721
249.8000,-0.479704,258.677,0.806475
249.7000,-1.85033,259.007,0.810418
249.6000,0.430271,257.807,0.796049
249.5000,-1.36772,257.941,0.797652
249.4000,0.387411,257.928,0.797503
249.3000,-2.77763,258.628,0.805892
249.2000,0.006051,258.155,0.80022
249.1000,2.77683,258.96,0.809862
249.0000,0.719229,258.218,0.80098
248.9000,-1.63017,258.112,0.799704
248.8000,-0.776374,259.376,0.81483
248.7000,1.83053,258.669,0.80638
248.6000,-1.20988,259.67,0.818332
248.5000,-1.463,258.683,0.806543
248.4000,1.23887,258.941,0.809632
248.3000,-3.77875,259.071,0.811189
248.2000,1.51889,258.653,0.80619
248.1000,-1.03136,258.921,0.809388
248.0000,-1.6452,259.293,0.813842
247.9000,-1.13118,259.02,0.81058
247.8000,-1.11631,259.31,0.814045
247.7000,-0.442317,258.619,0.805783
247.6000,-3.86589,259.45,0.815709
247.5000,0.539033,257.768,0.795586
247.4000,-1.93268,259.195,0.812665
247.3000,-3.02267,258.446,0.803708
247.2000,-0.161923,258.898,0.809117
247.1000,-0.664615,258.619,0.805783
247.0000,1.93533,259.457,0.81579
246.9000,-1.39909,258.491,0.804251
246.8000,-0.346653,257.972,0.798033
246.7000,-0.231545,259.171,0.812381
246.6000,0.370825,259.393,0.815033
246.5000,-0.741685,259.114,0.811704
246.4000,4.49634,258.632,0.805933
246.3000,1.38631,258.991,0.810228
246.2000,-1.63631,259.268,0.813545
246.1000,-5.10279,258.292,0.801863
246.0000,2.91633,260.016,0.822465
245.9000,-3.11202,258.665,0.806325
245.8000,0.304207,260.046,0.822816
245.7000,-0.787718,258.891,0.809036
245.6000,-2.8019,259.118,0.811745
245.5000,-3.48566,259.976,0.821979
245.4000,0.981064,259.113,0.811691
245.3000,-2.39616,259.446,0.815668
245.2000,-3.17974,259.105,0.811596
245.1000,-2.31726,260.149,0.824044
245.0000,-1.43372,259.85,0.82048
244.9000,-2.56939,260.193,0.82457
244.8000,-3.40226,260.034,0.822681
244.7000,-0.0412811,259.956,0.821749
244.6000,-0.717049,259.161,0.812259
244.5000,-3.89406,259.505,0.816372
244.4000,-0.54384,259.666,0.818291
244.3000,-3.82452,259.748,0.819264
244.2000,-0.202561,260.285,0.825662
244.1000,-1.60277,260.426,0.827348
244.0000,-3.08493,260.289,0.825716
243.9000,-2.18222,260.515,0.828399
243.8000,-2.28367,260.243,0.825163
243.7000,-2.93072,257.698,0.794743
243.6000,-0.928308,259.404,0.815168
243.5000,-2.9326,259.59,0.817386
243.4000,-3.26326,259.544,0.816831
243.3000,-0.225933,261.102,0.835374
243.2000,-1.93711,260.44,0.82751
243.1000,-3.08636,258.395,0.803098
243.0000,-2.07197,259.301,0.813937
242.9000,-4.13278,260.757,0.831283
242.8000,0.9765,260.664,0.830178
242.7000,-0.813802,260.482,0.828008
242.6000,-2.17388,259.998,0.822249
242.5000,-5.16261,260.601,0.829423
242.4000,-2.21731,260.379,0.826782
242.3000,-2.53033,260.476,0.827941
242.2000,-2.79705,261.126,0.835657
242.1000,-5.02563,260.391,0.82693
242.0000,-1.71625,260.449,0.827618
241.9000,-4.99161,261.903,0.844873
241.8000,-3.52973,262.535,0.852353
241.7000,-6.67207,260.73,0.830959
241.6000,-3.06736,261.466,0.83969
241.5000,-1.2396,260.63,0.829774
241.4000,-3.18067,261.529,0.840442
241.3000,-4.93321,261.205,0.836598
241.2000,-6.42697,261.82,0.843893
241.1000,-6.40413,261.659,0.841987
241.0000,-4.31674,261.979,0.845772
240.9000,-5.09794,260.939,0.833437
240.8000,-3.4015,261.637,0.841718
240.7000,-4.22305,261.044,0.834688
240.6000,-3.94129,261.158,0.836047
240.5000,-5.23257,262.57,0.852768
240.4000,-4.28032,262.537,0.85238
240.3000,-4.76592,262.086,0.847046
240.2000,-6.15715,263.016,0.858026
240.1000,-6.0519,262.409,0.850866
240.0000,-8.37639,262.816,0.855672
239.9000,-3.12878,261.941,0.845329
239.8000,-5.4061,261.865,0.84443
239.7000,-8.99447,262.533,0.852326
239.6000,-6.07364,262.705,0.854361
239.5000,-5.1527,263.528,0.864065
239.4000,-4.28732,262.069,0.846845
239.3000,-10.0375,263.142,0.859524
239.2000,-9.05479,262.643,0.853625
239.1000,-9.30674,263.771,0.866934
239.0000,-4.69809,262.576,0.852835
238.9000,-10.014,262.974,0.857532
238.8000,-8.4137,264.567,0.876287
238.7000,-12.3991,263.064,0.858601
238.6000,-7.9791,264.019,0.869855
238.5000,-9.69821,264.799,0.879014
238.4000,-10.2979,263.732,0.866468
238.3000,-10.1937,265.308,0.884979
238.2000,-9.71913,264.716,0.878043
238.1000,-10.7063,264.824,0.879306
238.0000,-8.97635,264.949,0.880768
237.9000,-11.251,266.027,0.893399
237.8000,-15.6317,264.937,0.880635
237.7000,-13.1849,266.213,0.895571
237.6000,-10.3707,266.658,0.900769
237.5000,-10.5499,264.547,0.876061
237.4000,-10.6382,265.327,0.885204
237.3000,-14.1468,267.529,0.910908
237.2000,-12.5112,266.514,0.89909
237.1000,-13.6574,265.147,0.883093
237.0000,-16.5644,266.233,0.895809
236.9000,-11.7237,266.434,0.898151
236.8000,-15.7715,265.847,0.891293
236.7000,-14.0867,266.46,0.898455
236.6000,-13.8789,267.156,0.906568
236.5000,-14.2648,267.251,0.907677
236.4000,-16.8339,267.067,0.905539
236.3000,-16.3407,267.88,0.914993
236.2000,-15.8848,268.096,0.917507
236.1000,-17.5818,267.633,0.912121
236.0000,-13.2699,269.56,0.934473
235.9000,-15.6392,267.774,0.913768
235.8000,-16.8554,268.28,0.919639
235.7000,-17.1593,268.381,0.920809
235.6000,-15.9543,268.39,0.920915
235.5000,-20.1477,267.175,0.906793
235.4000,-20.3823,270.884,0.949743
235.3000,-18.9518,269.056,0.928638
235.2000,-14.0827,269.443,0.933123
235.1000,-17.6518,268.437,0.921467
235.0000,-22.135,269.455,0.933254
234.9000,-17.2019,269.321,0.931707
234.8000,-22.5127,269.831,0.937602
234.7000,-21.6956,271.511,0.956965
234.6000,-25.1298,269.875,0.938113
234.5000,-21.3227,271.083,0.952039
234.4000,-19.4095,271.115,0.952404
234.3000,-24.5023,270.395,0.944116
234.2000,-22.4737,272.78,0.971522
234.1000,-23.965,271.072,0.951909
234.0000,-24.0061,271.907,0.961507
233.9000,-21.7335,272.223,0.965135
233.8000,-23.6526,271.366,0.955298
233.7000,-22.293,272.437,0.967589
233.6000,-24.9596,273.196,0.97628
233.5000,-25.4501,272.291,0.965914
233.4000,-27.1073,273.316,0.977653
233.3000,-25.6288,273.672,0.981718
233.2000,-24.8255,272.568,0.969096
233.1000,-25.4301,273.69,0.981925
233.0000,-26.5862,274.201,0.987755
232.9000,-26.1073,273.326,0.97777
232.8000,-27.797,274.158,0.987264
232.7000,-29.12,274.866,0.995329
232.6000,-30.3557,275.193,0.99904
232.5000,-27.0536,274.359,0.98955
232.4000,-29.8608,275.674,1.00451
232.3000,-27.891,276.078,1.00908
232.2000,-29.8661,274.251,0.988323
232.1000,-30.6752,275.867,1.00669
232.0000,-28.645,275.522,1.00279
231.9000,-28.0392,277.862,1.02926
231.8000,-30.4109,276.717,1.01632
231.7000,-31.8217,277.946,1.0302
231.6000,-33.6467,276.233,1.01084
231.5000,-31.289,277.221,1.02202
231.4000,-32.0382,278.185,1.0329
231.3000,-31.9927,277.193,1.0217
231.2000,-29.3653,277.894,1.02962
231.1000,-32.555,278.175,1.03278
231.0000,-34.9556,278.075,1.03166
230.9000,-35,277.566,1.02592
230.8000,-34.7597,278.469,1.0361
230.7000,-37.4236,278.472,1.03613
230.6000,-34.5839,279.289,1.04531
230.5000,-37.3152,279.154,1.04379
230.4000,-37.0936,279.312,1.04558
230.3000,-34.3838,279.809,1.05114
230.2000,-36.0458,280.017,1.05348
230.1000,-36.1715,279.184,1.04414
230.0000,-38.3943,280.204,1.05557
229.9000,-36.8477,278.719,1.0389
229.8000,-37.0315,280.295,1.05659
229.7000,-40.7629,280.695,1.06106
229.6000,-35.6352,279.635,1.0492
229.5000,-42.5112,281.066,1.06521
229.4000,-38.428,279.744,1.05042
229.3000,-40.2272,280.92,1.06358
229.2000,-40.7753,281.4,1.06893
229.1000,-42.3664,281.747,1.07281
229.0000,-43.5821,282.147,1.07727
228.9000,-37.737,282.175,1.07757
228.8000,-43.5044,283.471,1.09197
228.7000,-42.4935,282.422,1.08032
228.6000,-45.818,282.999,1.08674
228.5000,-45.8796,282.491,1.08109
228.4000,-47.626,284.668,1.10523
228.3000,-46.2163,282.811,1.08465
228.2000,-46.7237,284.783,1.10649
228.1000,-45.362,284.901,1.10779
228.0000,-42.4678,284.888,1.10766
227.9000,-41.4107,284.979,1.10866
227.8000,-48.0324,285.067,1.10963
227.7000,-45.0305,285.332,1.11256
227.6000,-49.4666,285.572,1.11519
227.5000,-47.8236,285.634,1.11588
227.4000,-48.8405,286.592,1.12643
227.3000,-48.8374,286.76,1.12827
227.2000,-48.8202,285.51,1.11452
227.1000,-53.6001,286.675,1.12734
227.0000,-53.4488,287.35,1.13475
226.9000,-49.3355,286.558,1.12606
226.8000,-46.0221,287.43,1.13562
226.7000,-52.9152,288.634,1.1488
226.6000,-52.3562,288.115,1.14313
226.5000,-52.8084,288.676,1.14926
226.4000,-46.8476,288.706,1.14958
226.3000,-49.3157,289.85,1.16206
226.2000,-52.1022,289.012,1.15292
226.1000,-49.3034,288.205,1.14411
226.0000,-53.4699,288.882,1.15151
225.9000,-52.6314,288.091,1.14287
225.8000,-55.3529,289.723,1.16067
225.7000,-53.7901,290.787,1.17224
225.6000,-52.6087,289.627,1.15963
225.5000,-53.812,289.311,1.15618
225.4000,-52.7482,290.087,1.16463
225.3000,-54.7296,291.119,1.17585
225.2000,-56.8822,291.725,1.18241
225.1000,-55.3322,291.593,1.18098
225.0000,-53.8624,292.181,1.18734
224.9000,-52.2103,290.977,1.17431
224.8000,-53.7881,292.359,1.18927
224.7000,-55.9086,292.112,1.1866
224.6000,-57.8237,292.564,1.19148
224.5000,-57.8065,292.68,1.19274
224.4000,-53.4123,294.587,1.21328
224.3000,-57.4718,293.586,1.20251
224.2000,-53.3718,294.266,1.20982
224.1000,-59.4205,292.27,1.18831
224.0000,-59.4453,293.272,1.19912
223.9000,-58.356,294.127,1.20833
223.8000,-59.0112,294.445,1.21174
223.7000,-58.7268,294.694,1.21442
223.6000,-57.3681,293.864,1.20551
223.5000,-59.7677,294.625,1.21368
223.4000,-52.5522,294.607,1.21348
223.3000,-56.4363,294.862,1.21622
223.2000,-55.4718,295.573,1.22385
223.1000,-55.0286,296.263,1.23123
223.0000,-57.6243,296.005,1.22847
222.9000,-54.6993,296.895,1.23798
222.8000,-57.1889,298.922,1.25955
222.7000,-55.2332,297.889,1.24857
222.6000,-55.5673,298.297,1.25291
222.5000,-58.4802,298.553,1.25563
222.4000,-59.6148,298.087,1.25068
222.3000,-54.8368,297.926,1.24897
222.2000,-61.2613,297.553,1.24499
222.1000,-55.6458,298.481,1.25486
222.0000,-57.0357,297.675,1.24629
221.9000,-57.7331,299.046,1.26086
221.8000,-59.4121,301.303,1.28473
221.7000,-61.7436,299.329,1.26387
221.6000,-57.2305,299.523,1.26592
221.5000,-59.1902,300.655,1.27789
221.4000,-59.5146,300.385,1.27504
221.3000,-60.1493,300.195,1.27303
221.2000,-59.1233,300.579,1.27709
221.1000,-59.0768,300.602,1.27733
221.0000,-55.599,301.116,1.28275
220.9000,-59.3096,302.123,1.29336
220.8000,-58.9134,301.908,1.2911
220.7000,-54.067,301.706,1.28897
220.6000,-58.8733,302.282,1.29503
220.5000,-61.1011,302.92,1.30173
220.4000,-54.8054,303.131,1.30394
220.3000,-56.9326,302.766,1.30011
220.2000,-57.0821,303.98,1.31284
220.1000,-56.8216,303.17,1.30436
220.0000,-58.5938,303.6,1.30886
219.9000,-59.0201,304.358,1.31679
219.8000,-56.524,305.137,1.32493
219.7000,-56.3135,305.013,1.32363
219.6000,-56.7791,305.234,1.32593
219.5000,-57.0787,304.393,1.31715
219.4000,-59.0536,307.667,1.35122
219.3000,-62.4612,305.279,1.3264
219.2000,-56.53,305.954,1.33344
219.1000,-64.1762,306.154,1.33551
219.0000,-55.2267,306.669,1.34087
218.9000,-58.4573,307.161,1.34597
218.8000,-55.9682,306.933,1.34361
218.7000,-59.546,306.823,1.34247
218.6000,-61.7981,307.329,1.34771
218.5000,-53.974,309.04,1.36541
218.4000,-58.5886,308.225,1.35699
218.3000,-59.6292,307.11,1.34544
218.2000,-54.5037,307.811,1.35271
218.1000,-58.1868,309.02,1.36521
218.0000,-57.1104,308.742,1.36233
217.9000,-56.2844,307.535,1.34985
217.8000,-55.0616,309.566,1.37084
217.7000,-58.8295,308.89,1.36386
217.6000,-63.9464,310.618,1.38166
217.5000,-53.2521,310.498,1.38043
217.4000,-53.1354,310.225,1.37762
217.3000,-58.0493,311.191,1.38755
217.2000,-64.0425,310.668,1.38217
217.1000,-56.6455,312.29,1.39881
217.0000,-56.1106,312.212,1.39801
216.9000,-57.7672,311.297,1.38863
216.8000,-55.1683,312.95,1.40555
216.7000,-54.5001,312.289,1.3988
216.6000,-55.0411,313.277,1.40889
216.5000,-56.1615,313.607,1.41225
216.4000,-55.7821,314.279,1.4191
216.3000,-56.976,313.506,1.41122
216.2000,-55.0299,314.498,1.42132
216.1000,-62.4103,314.234,1.41863
216.0000,-56.8101,315.023,1.42666
215.9000,-52.4386,315.319,1.42967
215.8000,-57.3815,315.717,1.4337
215.7000,-56.6621,315.963,1.43619
215.6000,-51.409,315.562,1.43212
215.5000,-53.8429,317.292,1.44963
215.4000,-50.3499,316.612,1.44276
215.3000,-58.6236,316.894,1.44561
215.2000,-54.4405,316.768,1.44434
215.1000,-55.04,318.136,1.45814
215.0000,-56.0699,318.013,1.45691
214.9000,-49.4032,318.871,1.46554
214.8000,-53.1254,317.957,1.45634
214.7000,-51.3096,318.213,1.45892
214.6000,-54.9813,319.599,1.47285
214.5000,-54.0057,318.995,1.46678
214.4000,-54.0311,320.974,1.48663
214.3000,-53.7649,320.759,1.48447
214.2000,-60.1914,321.227,1.48915
214.1000,-49.9103,319.809,1.47496
214.0000,-55.6377,321.604,1.49292
213.9000,-51.8354,321.655,1.49343
213.8000,-66.1159,321.951,1.49638
213.7000,-58.9007,321.925,1.49612
213.6000,-59.2022,321.23,1.48919
213.5000,-54.3045,322.945,1.50628
213.4000,-57.7021,323.111,1.50793
213.3000,-54.6614,322.622,1.50306
213.2000,-58.2496,324.335,1.52008
213.1000,-56.7073,324.073,1.51749
213.0000,-56.5691,325.303,1.52966
212.9000,-58.7905,324.758,1.52427
212.8000,-54.702,324.991,1.52658
212.7000,-56.4637,324.69,1.52359
212.6000,-56.6447,326.142,1.53795
212.5000,-51.8933,326.158,1.53811
212.4000,-51.7506,326.882,1.54524
212.3000,-55.6514,326.61,1.54256
212.2000,-56.779,328.279,1.55898
212.1000,-58.8374,328.629,1.56241
212.0000,-50.8577,329.085,1.56687
211.9000,-57.1723,328.417,1.56033
211.8000,-57.6541,329.904,1.57489
211.7000,-56.9877,330.66,1.58226
211.6000,-51.2863,330.723,1.58288
211.5000,-53.8063,331.049,1.58606
211.4000,-58.0201,331.378,1.58926
211.3000,-55.7861,332.125,1.59652
211.2000,-57.9847,333.569,1.61054
211.1000,-60.4717,332.628,1.60141
211.0000,-60.9744,333.55,1.61035
210.9000,-63.0324,333.615,1.61098
210.8000,-56.7376,334.715,1.62161
210.7000,-56.2105,334.661,1.62109
210.6000,-56.1682,335.381,1.62804
210.5000,-59.9994,335.988,1.63389
210.4000,-56.8182,336.683,1.64056
210.3000,-57.0226,337.085,1.64443
210.2000,-62.6703,337.855,1.6518
210.1000,-59.7786,338.287,1.65595
210.0000,-50.1405,338.685,1.65975
209.9000,-61.0167,340.641,1.6784
209.8000,-57.2736,340.283,1.67499
209.7000,-56.917,341.641,1.68791
209.6000,-62.2398,340.811,1.68002
209.5000,-63.8101,341.955,1.69088
209.4000,-64.6932,342.165,1.69287
209.3000,-58.5313,342.425,1.69534
209.2000,-53.0651,345.222,1.72174
209.1000,-55.1934,345.682,1.72606
209.0000,-59.5375,345.725,1.72647
208.9000,-57.0347,345.717,1.72639
208.8000,-50.9697,347.386,1.74204
208.7000,-61.2436,347.462,1.74275
208.6000,-63.3512,347.878,1.74664
208.5000,-57.6856,349.782,1.7644
208.4000,-65.1141,349.776,1.76434
208.3000,-66.955,350.137,1.7677
208.2000,-49.3827,350.039,1.76679
208.1000,-50.0999,351.453,1.77991
208.0000,-61.6319,353.289,1.7969
207.9000,-59.3679,352.724,1.79168
207.8000,-51.5589,355.619,1.81833
207.7000,-50.3772,355.535,1.81756
207.6000,-59.2136,357.584,1.83632
207.5000,-56.2459,357.303,1.83375
207.4000,-51.958,358.161,1.8416
207.3000,-60.0044,360.262,1.86071
207.2000,-47.7392,359.495,1.85374
207.1000,-53.0998,360.323,1.86127
207.0000,-53.5508,361.121,1.8685
206.9000,-50.5245,361.836,1.87497
206.8000,-51.2985,362.488,1.88086
206.7000,-38.9557,364.464,1.89866
206.6000,-54.5,364.592,1.89981
206.5000,-49.3213,364.922,1.90279
206.4000,-36.7868,367.087,1.92217
206.3000,-49.368,366.88,1.92033
206.2000,-42.4059,368.451,1.93434
206.1000,-44.0257,370.813,1.95533
206.0000,-45.5283,371.751,1.96363
205.9000,-42.5289,371.526,1.96164
205.8000,-42.1551,372.439,1.96971
205.7000,-41.3118,374.088,1.98424
205.6000,-41.4769,375.783,1.99912
205.5000,-40.2433,375.466,1.99634
205.4000,-39.5791,375.724,1.9986
205.3000,-40.8964,377.45,2.01369
205.2000,-34.9993,378.463,2.02253
205.1000,-36.3694,381.678,2.05043
205.0000,-24.4037,381.56,2.04941
204.9000,-32.1813,383.22,2.06375
204.8000,-36.0937,384.491,2.07468
204.7000,-27.4166,384.926,2.07842
204.6000,-33.5143,387.541,2.10081
204.5000,-28.1649,388.174,2.10621
204.4000,-28.361,391.697,2.13613
204.3000,-23.2132,391.446,2.13401
204.2000,-25.2175,392.552,2.14336
204.1000,-20.1621,393.65,2.15263
204.0000,-24.4114,395.005,2.16403
203.9000,-18.2371,397.376,2.18389
203.8000,-18.9113,399.256,2.19958
203.7000,-24.0374,400.12,2.20677
203.6000,-23.3912,402.714,2.22827
203.5000,-12.977,403.059,2.23112
203.4000,-32.6338,404.683,2.24451
203.3000,-16.4923,405.249,2.24918
203.2000,-20.3085,407.048,2.26394
203.1000,-14.1483,408.405,2.27504
203.0000,-29.4065,410.305,2.29053
202.9000,-19.6406,412.262,2.30643
202.8000,-19.3106,413.365,2.31535
202.7000,-16.038,414.222,2.32228
202.6000,-6.72225,416.573,2.34122
202.5000,-7.09419,416.843,2.34338
202.4000,-10.3186,418.309,2.35514
202.3000,-6.87864,420.921,2.376
202.2000,-3.41449,422.8,2.39093
202.1000,12.3761,422.759,2.39061
202.0000,-5.44839,425.641,2.41341
201.9000,-8.80771,429.433,2.44322
201.8000,8.89532,430.344,2.45034
201.7000,-5.42041,431.849,2.4621
201.6000,-5.80405,435.704,2.49203
201.5000,-3.53021,436.718,2.49987
201.4000,9.08101,438.576,2.51419
201.3000,7.61736,439.5,2.52129
201.2000,3.58888,442.076,2.54103
201.1000,-6.93008,442.444,2.54383
201.0000,13.0426,444.397,2.55872
200.9000,15.1134,447.659,2.58347
200.8000,10.7347,449.166,2.59485
200.7000,21.5633,451.589,2.61307
200.6000,16.8485,453.004,2.62368
200.5000,6.54563,455.025,2.63878
200.4000,-3.32827,457.394,2.65641
200.3000,10.5854,458.531,2.66484
200.2000,18.7208,460.687,2.68079
200.1000,18.834,463.873,2.70424
200.0000,15.0595,465.203,2.71399
199.9000,1.094,468.768,2.74
199.8000,14.4316,469.613,2.74614
199.7000,5.77265,472.606,2.76781
199.6000,20.3912,472.497,2.76703
199.5000,17.6756,474.934,2.7846
199.4000,27.1469,476.855,2.79839
199.3000,13.3697,480.299,2.82301
199.2000,35.7417,481.334,2.83037
199.1000,28.0946,483.916,2.84869
199.0000,22.735,485.217,2.85789
198.9000,10.4101,487.333,2.87282
198.8000,29.1083,490.958,2.89825
198.7000,25.6274,493.239,2.91417
198.6000,34.4001,496.199,2.93474
198.5000,34.0532,499.475,2.95739
198.4000,17.1379,500.428,2.96395
198.3000,31.015,502.626,2.97905
198.2000,14.4749,504.766,2.99369
198.1000,30.1593,507.126,3.00979
198.0000,30.0518,508.544,3.01943
197.9000,25.4277,512.328,3.04503
197.8000,32.0359,514.888,3.06227
197.7000,32.0336,516.749,3.07475
197.6000,44.5721,518.504,3.08649
197.5000,30.7558,521.271,3.10493
197.4000,23.5974,523.635,3.12061
197.3000,31.5603,527.101,3.1435
197.2000,23.8649,528.604,3.15339
197.1000,15.5333,531.073,3.16958
197.0000,28.1046,533.603,3.1861
196.9000,14.961,536.076,3.20219
196.8000,36.9305,538.862,3.22024
196.7000,25.3226,541.115,3.23477
196.6000,21.6551,542.889,3.24618
196.5000,33.6586,546.949,3.27218
196.4000,40.3081,547.865,3.27802
196.3000,25.5102,551.465,3.3009
196.2000,20.0948,554.198,3.31819
196.1000,38.5969,557.075,3.33631
196.0000,33.989,558.971,3.3482
195.9000,21.3733,561.366,3.36318
195.8000,16.0287,563.862,3.37874
195.7000,28.2003,566.737,3.39658
195.6000,8.74925,568.401,3.40687
195.5000,20.9063,570.275,3.41843
195.4000,10.6689,573.149,3.4361
195.3000,17.817,574.245,3.44282
195.2000,33.3252,576.115,3.45425
195.1000,24.0662,577.988,3.46568
195.0000,6.38712,580.553,3.48127
194.9000,36.7976,581.789,3.48876
194.8000,30.7721,583.84,3.50117
194.7000,25.3982,585.948,3.51387
194.6000,22.035,587.191,3.52135
194.5000,27.4341,589.184,3.53331
194.4000,28.1363,591.24,3.54561
194.3000,14.5672,593.807,3.56092
194.2000,9.91176,596.654,3.57783
194.1000,33.6748,600.09,3.59815
194.0000,26.7772,600.815,3.60242
193.9000,12.9919,602.771,3.61394
193.8000,29.3134,604.632,3.62486
193.7000,32.0999,607.595,3.64219
193.6000,17.1605,610.267,3.65775
193.5000,6.97907,610.873,3.66128
193.4000,6.82488,613.076,3.67406
193.3000,17.6039,613.224,3.67492
193.2000,36.7557,615.559,3.68842
193.1000,35.591,616.683,3.6949
193.0000,13.7141,619.731,3.71243
192.9000,13.9674,621.487,3.7225
192.8000,27.7494,622.755,3.72976
192.7000,17.536,624.815,3.74151
192.6000,23.8298,626.657,3.75199
192.5000,28.7236,628.76,3.76393
192.4000,9.97741,631.851,3.78142
192.3000,17.2226,633.756,3.79217
192.2000,24.1061,635.223,3.80042
192.1000,30.6769,636.506,3.80763
192.0000,19.0587,639.397,3.82381
191.9000,21.9936,641.444,3.83524
191.8000,3.43961,642.684,3.84214
191.7000,21.3526,644.235,3.85076
191.6000,16.0423,646.191,3.86161
191.5000,30.6355,647.736,3.87016
191.4000,20.6796,650.184,3.88367
191.3000,26.2228,651.876,3.89299
191.2000,8.65349,654.333,3.90647
191.1000,27.8454,656.572,3.91872
191.0000,15.2595,659.029,3.93213
190.9000,7.47908,661.658,3.94642
190.8000,5.7077,663.938,3.95878
190.7000,13.3071,667.398,3.97747
190.6000,13.4566,669.756,3.99015
190.5000,3.34009,670.439,3.99382
190.4000,13.5903,673.805,4.01185
190.3000,10.1,674.537,4.01576
190.2000,12.8366,676.799,4.02782
190.1000,10.7928,679.316,4.0412
190.0000,13.29,680.814,4.04914

##### Extended Information
[Comments]
Sample name,TestSample_RMCT
Comment
User,ManningTrnkus
Division
Company,Saint Mary's College

[Detailed Information]
Creation date,9/27/2022 2:28 PM

Data array type,Linear data array * 3
Horizontal axis,Wavelength [nm]
Vertical axis(1),CD [mdeg]
Vertical axis(2),HT [V]
Vertical axis(3),Abs
Start,320 nm
End,190 nm
Data interval,0.1 nm
Data points,1301    

[Measurement Information]
Instrument name,J-1500
Model name,J-1500
Serial No.,B051061638

Detector,PM-539
Detector S/N,B051061638
  Lock-in amp.,X mode
  HT volt,Auto

Accessory,PTC-517
Accessory S/N,B026561646
  Temperature,21.94 C
  Control sensor,Holder
  Monitor sensor,Holder

Measurement date,9/27/2022 2:28 PM

CD Overload detect,866
Photometric mode,CD, HT, Abs
Measure range,320 - 190 nm
Data pitch,0.1 nm
CD scale,20 mdeg/0.05 dOD
FL scale,20 mdeg/0.05 dOD
D.I.T.,8 msec
Bandwidth,1.00 nm
Start mode,Immediately
Scanning mode,Continuous
Scanning speed,50 nm/min
Baseline correction,None
Shutter control,Auto
No. of cycle,1/1
N2 Flowmeter,Manual

Solvent,NaPO4 buffer

