TITLE,class
DATA TYPE,
ORIGIN,JASCO
OWNER,
DATE,21/09/29
TIME,16:31:15
SPECTROMETER/DATA SYSTEM,
LOCALE,1033
RESOLUTION,
DELTAX,-0.1
XUNITS,NANOMETERS
YUNITS,CD [mdeg]
Y2UNITS,HT [V]
Y3UNITS,ABSORBANCE
FIRSTX,  290.0000
LASTX,  190.0000
NPOINTS,    1001
FIRSTY,     1.95412
MAXY,    11.85223
MINY,    -4.29303
XYDATA
290.0000,1.95412,252.778,0.735216
289.9000,1.90623,252.663,0.733819
289.8000,2.04148,253.167,0.73996
289.7000,1.3272,252.852,0.736125
289.6000,1.05041,253.14,0.739636
289.5000,2.94548,252.617,0.733252
289.4000,1.03494,252.778,0.735218
289.3000,1.32009,252.382,0.730385
289.2000,0.729186,252.512,0.731978
289.1000,1.40648,252.311,0.729519
289.0000,0.994661,252.909,0.736816
288.9000,1.98695,252.509,0.731936
288.8000,2.12139,252.621,0.733307
288.7000,1.02658,253.151,0.739767
288.6000,0.759549,252.888,0.73656
288.5000,1.5176,252.381,0.730375
288.4000,0.854805,252.844,0.736018
288.3000,1.69444,252.595,0.732981
288.2000,1.41813,252.383,0.730399
288.1000,2.42645,252.482,0.73161
288.0000,1.40419,252.474,0.731504
287.9000,1.45521,252.788,0.735336
287.8000,1.06231,252.757,0.734964
287.7000,1.56039,252.534,0.732235
287.6000,0.986451,252.574,0.732726
287.5000,2.46497,252.565,0.732619
287.4000,1.15723,252.483,0.731622
287.3000,1.40374,252.407,0.730695
287.2000,2.27738,252.404,0.730655
287.1000,1.88575,252.603,0.733077
287.0000,1.48355,252.19,0.728041
286.9000,0.696327,252.192,0.728069
286.8000,1.95456,252.526,0.732147
286.7000,0.768952,252.558,0.732531
286.6000,2.26711,252.504,0.731876
286.5000,2.01173,252.29,0.729256
286.4000,1.4146,251.999,0.725707
286.3000,1.28121,252.426,0.73092
286.2000,1.19426,252.478,0.731558
286.1000,1.67232,252.406,0.730683
286.0000,2.06353,252.098,0.726919
285.9000,2.06019,252.169,0.727781
285.8000,1.58083,252.193,0.728072
285.7000,1.29086,252.107,0.727023
285.6000,1.46322,252.005,0.72578
285.5000,0.88528,252.113,0.727094
285.4000,1.54165,252.228,0.728508
285.3000,1.58209,252.118,0.727165
285.2000,0.399924,252.236,0.728603
285.1000,2.12117,252.07,0.726578
285.0000,1.75893,252.091,0.726826
284.9000,1.84087,252.381,0.73037
284.8000,1.69419,252.202,0.728186
284.7000,2.18959,252.236,0.728598
284.6000,0.587996,251.669,0.721672
284.5000,0.993486,252.137,0.727387
284.4000,-0.685304,252.255,0.728828
284.3000,0.601731,252.166,0.727752
284.2000,2.92547,252.164,0.727726
284.1000,1.24867,251.951,0.725117
284.0000,1.9756,252.322,0.729659
283.9000,0.829713,251.784,0.723074
283.8000,1.60498,252.275,0.729083
283.7000,0.835633,252.093,0.72686
283.6000,0.705001,252.013,0.725877
283.5000,1.7207,251.98,0.725468
283.4000,1.96155,252.172,0.72782
283.3000,1.19352,251.896,0.724441
283.2000,1.15313,251.74,0.722542
283.1000,1.63521,251.966,0.725302
283.0000,1.65018,252.049,0.726317
282.9000,0.582943,252.626,0.733366
282.8000,1.58593,252.065,0.726513
282.7000,1.50527,251.948,0.725085
282.6000,0.886977,251.466,0.719185
282.5000,0.278104,251.977,0.725441
282.4000,1.83802,252.325,0.729688
282.3000,1.99175,252.186,0.727989
282.2000,1.31433,252.075,0.726635
282.1000,2.08343,251.902,0.724516
282.0000,0.970842,251.858,0.72398
281.9000,0.541286,252.012,0.725862
281.8000,1.8732,251.821,0.723523
281.7000,0.261079,251.824,0.723559
281.6000,1.57008,252.144,0.727473
281.5000,1.21356,251.938,0.724963
281.4000,0.91167,251.598,0.720802
281.3000,0.320253,251.968,0.725331
281.2000,0.305806,252.104,0.726985
281.1000,2.01345,251.316,0.717351
281.0000,0.347607,251.405,0.718441
280.9000,0.45707,251.677,0.721764
280.8000,1.18557,252.475,0.731525
280.7000,1.66413,251.578,0.720557
280.6000,1.1531,251.256,0.716613
280.5000,1.36812,251.828,0.723613
280.4000,0.647711,251.887,0.724334
280.3000,0.933426,251.614,0.720991
280.2000,1.39804,251.604,0.720876
280.1000,0.0610207,252.215,0.72834
280.0000,1.63086,251.504,0.71965
279.9000,1.44805,251.792,0.723177
279.8000,1.22576,251.721,0.722301
279.7000,0.867509,251.797,0.72323
279.6000,0.349621,251.542,0.720118
279.5000,1.17581,251.812,0.723424
279.4000,0.67685,251.291,0.717035
279.3000,1.85,251.718,0.722267
279.2000,0.213002,250.996,0.713416
279.1000,0.824263,251.644,0.721363
279.0000,1.72032,251.681,0.721819
278.9000,1.70503,251.691,0.721937
278.8000,2.91881,252.079,0.726682
278.7000,0.0921784,251.702,0.722072
278.6000,0.919874,251.531,0.719974
278.5000,0.878402,251.776,0.722977
278.4000,1.05454,251.717,0.722251
278.3000,0.545756,251.712,0.722201
278.2000,0.792054,251.635,0.721249
278.1000,0.548982,251.838,0.723736
278.0000,-0.216817,251.744,0.722587
277.9000,0.698056,251.519,0.719832
277.8000,0.865405,251.429,0.718725
277.7000,1.26242,251.61,0.720942
277.6000,1.46079,251.292,0.717047
277.5000,0.325683,251.574,0.720509
277.4000,1.37706,251.852,0.723913
277.3000,1.32501,251.37,0.718002
277.2000,2.08695,251.483,0.719391
277.1000,0.0652203,251.649,0.721428
277.0000,1.644,251.561,0.720349
276.9000,1.02404,251.417,0.718587
276.8000,1.58316,251.93,0.724857
276.7000,0.167761,251.195,0.715867
276.6000,1.12199,251.655,0.721497
276.5000,0.450439,251.395,0.718314
276.4000,0.892951,251.202,0.715948
276.3000,-0.236095,251.486,0.719425
276.2000,1.70595,251.274,0.716835
276.1000,-0.0547181,251.565,0.720396
276.0000,1.50101,251.619,0.721051
275.9000,1.28468,251.254,0.716586
275.8000,0.217089,251.592,0.720722
275.7000,1.42969,251.496,0.719555
275.6000,1.13221,251.255,0.716594
275.5000,0.898328,251.27,0.716785
275.4000,0.93223,251.529,0.719954
275.3000,1.30197,251.636,0.72127
275.2000,1.50177,251.602,0.720854
275.1000,1.42421,251.337,0.717598
275.0000,1.68734,251.497,0.719567
274.9000,1.10685,251.592,0.720722
274.8000,0.755238,251.273,0.716816
274.7000,1.34452,251.382,0.718158
274.6000,1.18814,251.076,0.714398
274.5000,1.43564,251.188,0.715782
274.4000,1.44426,251.214,0.716098
274.3000,1.48421,251.158,0.715405
274.2000,0.563234,251.274,0.716834
274.1000,0.540033,251.464,0.719163
274.0000,1.04122,251.234,0.716336
273.9000,0.682835,251.071,0.71434
273.8000,1.02272,250.828,0.711365
273.7000,2.04164,251.112,0.714842
273.6000,1.75636,251.176,0.715625
273.5000,0.291524,251.188,0.715775
273.4000,1.41224,251.279,0.716889
273.3000,1.28249,250.833,0.711423
273.2000,1.35259,251.095,0.714641
273.1000,1.67633,251.201,0.715931
273.0000,1.16507,251.04,0.713956
272.9000,1.06923,251.089,0.714568
272.8000,1.33742,251.293,0.717063
272.7000,1.19133,251.321,0.717408
272.6000,1.07444,250.978,0.713202
272.5000,2.37717,251.19,0.715801
272.4000,1.12752,251.378,0.718104
272.3000,0.898385,251.085,0.714514
272.2000,1.15664,250.765,0.710588
272.1000,0.690145,251.048,0.714062
272.0000,-0.045185,250.967,0.713065
271.9000,1.48119,251.177,0.715641
271.8000,0.67449,251.408,0.718477
271.7000,0.219862,251.242,0.71644
271.6000,0.00740192,251.241,0.716421
271.5000,1.57565,251.11,0.714818
271.4000,0.493397,251.27,0.716783
271.3000,0.990319,251.233,0.716332
271.2000,0.223968,250.993,0.713385
271.1000,1.08761,251.127,0.715026
271.0000,0.801169,251.131,0.71508
270.9000,0.453116,251.111,0.714833
270.8000,0.29481,251.436,0.718816
270.7000,0.969777,250.869,0.711862
270.6000,0.678484,251.071,0.714337
270.5000,1.82204,251.3,0.717153
270.4000,1.76622,251.317,0.717363
270.3000,0.952369,250.901,0.712259
270.2000,1.26336,250.816,0.711214
270.1000,1.34623,251.094,0.714618
270.0000,1.05803,251.016,0.71367
269.9000,1.27316,251.21,0.716044
269.8000,1.77925,251.045,0.714019
269.7000,0.789307,251.266,0.71673
269.6000,0.763479,251.163,0.715467
269.5000,1.74311,251.39,0.718255
269.4000,0.643677,251.321,0.717401
269.3000,1.06489,251.333,0.717556
269.2000,0.397305,251.76,0.722787
269.1000,1.13257,251.221,0.716178
269.0000,0.437158,251.281,0.71691
268.9000,0.890003,251.179,0.715669
268.8000,1.13348,251.433,0.718774
268.7000,0.68032,251.233,0.716329
268.6000,0.765589,251.09,0.714569
268.5000,2.13985,251.3,0.71715
268.4000,-0.412634,251.228,0.716271
268.3000,0.2589,251.021,0.713732
268.2000,0.25805,251.411,0.718509
268.1000,0.308722,251.058,0.714179
268.0000,0.4043,250.809,0.711125
267.9000,1.46785,251.585,0.720637
267.8000,1.18795,251.253,0.716568
267.7000,1.37379,251.115,0.714882
267.6000,1.39256,251.38,0.718132
267.5000,1.26815,251.363,0.717922
267.4000,0.486557,251.249,0.716521
267.3000,1.75722,251.201,0.71594
267.2000,1.45985,251.434,0.718796
267.1000,0.976567,251.4,0.71837
267.0000,0.800194,251.018,0.713697
266.9000,0.902903,251.35,0.717759
266.8000,0.959194,251.309,0.717263
266.7000,1.62745,251.333,0.717552
266.6000,0.647134,251.212,0.716074
266.5000,-0.246752,251.409,0.718483
266.4000,0.157116,252.142,0.727458
266.3000,0.570406,251.23,0.716291
266.2000,0.712955,251.278,0.716879
266.1000,0.872928,251.316,0.717351
266.0000,1.14478,251.251,0.716546
265.9000,2.33037,251.529,0.719948
265.8000,-0.0528215,251.836,0.723707
265.7000,0.864452,251.369,0.717993
265.6000,1.48333,251.738,0.722514
265.5000,1.44697,251.504,0.719647
265.4000,0.375136,251.453,0.71902
265.3000,0.491993,251.83,0.723644
265.2000,1.78299,251.569,0.720444
265.1000,0.438854,251.539,0.72008
265.0000,1.46568,251.664,0.721608
264.9000,0.298301,251.812,0.723424
264.8000,2.03775,251.565,0.720401
264.7000,-0.107139,251.787,0.723116
264.6000,1.52515,251.193,0.715837
264.5000,1.12729,251.461,0.719121
264.4000,0.255768,251.663,0.721592
264.3000,1.20595,251.476,0.719303
264.2000,1.22837,251.86,0.724001
264.1000,0.955347,251.562,0.720356
264.0000,0.916667,251.633,0.72123
263.9000,0.476828,251.684,0.721856
263.8000,1.00853,251.713,0.722211
263.7000,0.6785,251.591,0.720713
263.6000,0.813226,251.864,0.724053
263.5000,0.518095,252.151,0.727569
263.4000,1.06386,251.353,0.717795
263.3000,0.911861,252.503,0.73186
263.2000,0.283321,252.296,0.729337
263.1000,0.567451,251.947,0.72507
263.0000,1.49072,251.73,0.722421
262.9000,0.802768,251.795,0.723213
262.8000,-0.278788,251.949,0.725096
262.7000,0.870359,252.067,0.72654
262.6000,1.3317,251.807,0.723355
262.5000,1.41859,252.159,0.727657
262.4000,0.128765,252.093,0.72686
262.3000,0.707652,252.026,0.726036
262.2000,0.211749,252.317,0.729591
262.1000,0.670249,252.192,0.728067
262.0000,0.679145,252.313,0.729545
261.9000,1.05976,252.095,0.726874
261.8000,0.568857,252.012,0.72586
261.7000,0.113185,252.327,0.729711
261.6000,1.61864,252.156,0.72762
261.5000,0.856192,251.923,0.724774
261.4000,0.549855,252.32,0.729631
261.3000,1.14146,252.132,0.727331
261.2000,1.33578,252.051,0.726338
261.1000,1.32123,252.199,0.728148
261.0000,1.33226,252.467,0.731421
260.9000,0.642799,252.139,0.72742
260.8000,0.419971,252.109,0.727046
260.7000,-0.256956,252.123,0.727226
260.6000,1.05882,252.278,0.72911
260.5000,1.74503,252.519,0.732056
260.4000,1.2195,252.592,0.732953
260.3000,-0.906137,252.154,0.727594
260.2000,0.997935,252.608,0.733148
260.1000,1.81568,252.493,0.731745
260.0000,0.726893,252.367,0.730207
259.9000,0.961807,253.001,0.737932
259.8000,0.276972,253.169,0.739981
259.7000,1.08253,252.337,0.729832
259.6000,1.71567,252.29,0.729264
259.5000,0.38047,252.317,0.729588
259.4000,0.526879,252.289,0.729251
259.3000,2.06293,252.597,0.733005
259.2000,0.519595,252.809,0.735593
259.1000,0.272907,252.548,0.732415
259.0000,0.185413,252.71,0.734384
258.9000,1.4092,252.893,0.736624
258.8000,0.382241,252.558,0.732534
258.7000,-0.146051,253.441,0.74329
258.6000,-0.318085,252.509,0.73194
258.5000,0.402258,253.027,0.738252
258.4000,1.35655,252.862,0.736239
258.3000,0.596835,252.871,0.736358
258.2000,1.04806,252.6,0.733046
258.1000,1.83349,253.11,0.739263
258.0000,0.0791752,253.027,0.738253
257.9000,1.23881,252.887,0.736551
257.8000,0.580234,253.097,0.739104
257.7000,0.474747,252.909,0.73681
257.6000,2.06276,253.132,0.73953
257.5000,1.31257,252.827,0.735821
257.4000,0.735565,253.092,0.739044
257.3000,0.920229,252.753,0.734916
257.2000,0.110809,253.589,0.745092
257.1000,0.751583,253.3,0.741576
257.0000,0.862715,253.339,0.74205
256.9000,1.5296,253.071,0.738794
256.8000,1.8698,252.933,0.737102
256.7000,0.348206,253.468,0.743627
256.6000,1.57294,253.426,0.743107
256.5000,1.58047,253.237,0.740812
256.4000,0.438195,253.448,0.743379
256.3000,-0.00692728,253.787,0.747501
256.2000,1.4536,253.524,0.744303
256.1000,-0.33149,253.435,0.743219
256.0000,0.912552,253.653,0.745876
255.9000,1.8862,253.624,0.745518
255.8000,2.03236,253.562,0.744763
255.7000,-0.31578,253.827,0.747994
255.6000,0.902406,253.542,0.744522
255.5000,1.24659,253.576,0.744937
255.4000,0.814826,253.791,0.747555
255.3000,0.300545,253.631,0.745602
255.2000,0.654467,253.22,0.740603
255.1000,1.70388,253.807,0.747748
255.0000,-0.0794822,253.528,0.74435
254.9000,1.51455,253.759,0.747161
254.8000,0.532283,253.834,0.748071
254.7000,0.897331,253.661,0.745972
254.6000,1.4644,253.789,0.747525
254.5000,1.49293,253.675,0.746141
254.4000,0.880488,253.739,0.746916
254.3000,0.843952,253.795,0.747603
254.2000,1.21395,253.936,0.74931
254.1000,1.16024,254.01,0.750219
254.0000,1.03368,253.608,0.745326
253.9000,0.952224,254.038,0.750547
253.8000,1.39452,254.294,0.753665
253.7000,0.376991,253.998,0.750071
253.6000,0.819119,253.924,0.749162
253.5000,0.573046,254.08,0.75106
253.4000,1.23219,253.652,0.74586
253.3000,0.654984,254.203,0.752558
253.2000,1.44732,254.022,0.750358
253.1000,1.19669,254.236,0.752958
253.0000,0.639778,253.823,0.747942
252.9000,0.817256,253.989,0.749956
252.8000,0.121329,254.284,0.753539
252.7000,1.06418,253.854,0.748323
252.6000,0.961196,253.936,0.749315
252.5000,0.698079,254.491,0.756048
252.4000,0.706646,254.391,0.754835
252.3000,0.984252,254.61,0.757492
252.2000,1.60139,254.81,0.759919
252.1000,2.30891,254.664,0.758143
252.0000,1.12498,254.861,0.760539
251.9000,2.1045,254.023,0.750365
251.8000,1.09883,254.009,0.750205
251.7000,1.31138,254.314,0.753909
251.6000,0.644799,254.307,0.753818
251.5000,1.01241,254.425,0.755251
251.4000,-0.273397,254.882,0.760784
251.3000,1.583,254.168,0.752126
251.2000,0.888028,253.811,0.747792
251.1000,0.51224,254.145,0.751848
251.0000,0.859656,254.585,0.757185
250.9000,0.197714,254.178,0.752259
250.8000,1.19502,254.523,0.756443
250.7000,1.75044,254.73,0.758945
250.6000,0.720875,254.617,0.757573
250.5000,2.34249,254.524,0.756447
250.4000,-0.342701,254.675,0.758285
250.3000,1.0236,254.867,0.760602
250.2000,0.0886584,254.294,0.753661
250.1000,-0.301893,254.346,0.754294
250.0000,0.0287708,254.525,0.756469
249.9000,0.559303,254.336,0.754175
249.8000,1.11543,254.411,0.755084
249.7000,1.2062,254.547,0.756733
249.6000,1.37765,254.074,0.750988
249.5000,0.872285,254.423,0.755222
249.4000,0.914373,254.699,0.758577
249.3000,0.842335,254.435,0.755368
249.2000,0.582456,254.242,0.753032
249.1000,0.185578,254.271,0.753378
249.0000,0.931075,254.59,0.75725
248.9000,1.12686,254.361,0.754471
248.8000,0.385376,254.337,0.754179
248.7000,0.0303284,254.222,0.752783
248.6000,1.35528,254.486,0.755984
248.5000,1.03018,254.379,0.754687
248.4000,-0.0374838,254.374,0.754637
248.3000,-0.225957,254.67,0.758224
248.2000,0.379696,254.307,0.753825
248.1000,0.0412678,254.313,0.753895
248.0000,1.198,254.398,0.754928
247.9000,1.10994,254.366,0.754533
247.8000,0.361746,253.912,0.749018
247.7000,0.377936,254.342,0.754248
247.6000,1.56483,254.042,0.750601
247.5000,0.890581,254.732,0.758969
247.4000,1.37726,254.511,0.756289
247.3000,1.58118,254.353,0.75438
247.2000,1.08917,254.417,0.755155
247.1000,2.99923,254.858,0.760498
247.0000,1.39238,254.686,0.758416
246.9000,1.84834,254.872,0.760674
246.8000,0.714166,254.913,0.76117
246.7000,0.801096,254.894,0.760933
246.6000,1.13807,254.334,0.754143
246.5000,0.468987,254.576,0.757077
246.4000,1.1432,254.918,0.761221
246.3000,1.39269,254.847,0.76036
246.2000,1.58493,254.935,0.761436
246.1000,0.536922,254.632,0.75776
246.0000,1.33642,254.823,0.760072
245.9000,0.80989,254.938,0.761472
245.8000,1.19941,254.917,0.76121
245.7000,-0.149949,254.585,0.757194
245.6000,-0.0229608,254.652,0.758001
245.5000,1.07405,254.678,0.758323
245.4000,0.496266,254.726,0.758895
245.3000,0.898567,254.985,0.762033
245.2000,0.0798637,254.815,0.759974
245.1000,0.131354,254.564,0.756931
245.0000,1.11832,254.746,0.759142
244.9000,2.07187,254.667,0.758188
244.8000,1.14937,254.942,0.761515
244.7000,0.934495,254.59,0.75725
244.6000,1.77007,255.099,0.763413
244.5000,0.535126,255.029,0.762566
244.4000,0.376725,255.135,0.763847
244.3000,0.534343,255.133,0.763831
244.2000,0.388734,254.809,0.7599
244.1000,0.333728,255.079,0.763173
244.0000,1.23895,254.844,0.760329
243.9000,0.760661,254.883,0.7608
243.8000,0.461107,255.138,0.763895
243.7000,0.827242,255.226,0.764956
243.6000,0.0668145,255.034,0.762628
243.5000,-0.248835,254.912,0.761153
243.4000,0.203524,255.332,0.766237
243.3000,0.788504,255.114,0.763596
243.2000,0.234085,255.404,0.767111
243.1000,0.301924,255.288,0.765704
243.0000,0.784231,255.374,0.766741
242.9000,0.499535,255.273,0.765524
242.8000,0.471738,255.086,0.763264
242.7000,1.76475,255.131,0.763807
242.6000,0.218669,255.356,0.766521
242.5000,1.78799,255.284,0.765651
242.4000,1.55144,254.853,0.760438
242.3000,1.20123,255.634,0.769886
242.2000,0.535645,255.517,0.768474
242.1000,-0.256127,256.164,0.776289
242.0000,1.20965,255.322,0.766121
241.9000,0.7474,255.74,0.771164
241.8000,0.744728,255.557,0.768956
241.7000,0.682093,255.659,0.770184
241.6000,0.523296,255.383,0.766854
241.5000,-0.544132,255.754,0.771342
241.4000,0.569287,256.116,0.775705
241.3000,0.140944,255.848,0.772477
241.2000,0.46629,255.577,0.769201
241.1000,0.801237,255.542,0.768777
241.0000,0.901577,255.609,0.76959
240.9000,0.67219,255.505,0.768328
240.8000,0.574526,255.922,0.773361
240.7000,0.815844,255.842,0.772402
240.6000,1.29106,255.878,0.772828
240.5000,1.32678,255.84,0.772377
240.4000,-0.0104933,255.772,0.771559
240.3000,0.698114,255.926,0.773418
240.2000,1.4835,255.849,0.772479
240.1000,1.17095,256.031,0.774685
240.0000,0.737702,255.689,0.770553
239.9000,1.35919,256.052,0.774939
239.8000,-0.579621,256.46,0.779858
239.7000,0.78527,256.166,0.776315
239.6000,0.0308563,256.115,0.775691
239.5000,1.22187,256.602,0.781559
239.4000,0.481724,256.496,0.780289
239.3000,0.425195,256.586,0.78137
239.2000,0.723124,256.179,0.776465
239.1000,-0.548309,256.909,0.785256
239.0000,0.0716319,256.647,0.782103
238.9000,-0.0196893,256.516,0.780528
238.8000,0.228007,256.696,0.782697
238.7000,0.771509,256.986,0.786193
238.6000,1.19462,256.814,0.784119
238.5000,1.35616,257.02,0.786595
238.4000,1.13582,256.951,0.785769
238.3000,0.870912,256.874,0.784843
238.2000,-0.011183,257.212,0.788899
238.1000,-0.0633063,257.127,0.787883
238.0000,0.244802,257.068,0.787171
237.9000,-0.248178,257.363,0.790717
237.8000,-0.12542,257.408,0.791258
237.7000,0.286692,257.306,0.79003
237.6000,0.835809,257.153,0.788191
237.5000,-0.138236,257.151,0.788172
237.4000,0.281365,257.547,0.792934
237.3000,-0.789055,257.139,0.788022
237.2000,0.187961,257.314,0.790127
237.1000,-0.270998,257.653,0.794203
237.0000,0.105036,257.49,0.792244
236.9000,-0.466675,257.803,0.796001
236.8000,-0.351725,257.892,0.797075
236.7000,-0.676747,257.865,0.796744
236.6000,-0.781109,257.852,0.796587
236.5000,0.5586,257.915,0.797343
236.4000,0.411475,258.058,0.79906
236.3000,0.0666877,258.022,0.798631
236.2000,0.238448,258.369,0.802785
236.1000,0.515385,258.297,0.801929
236.0000,0.146087,258.509,0.804468
235.9000,0.187779,258.074,0.799257
235.8000,0.486016,258.49,0.804237
235.7000,-1.18514,258.268,0.801574
235.6000,1.03835,258.306,0.802027
235.5000,0.554016,258.245,0.801299
235.4000,-0.271347,258.547,0.804922
235.3000,-0.368858,258.884,0.808948
235.2000,-0.0895129,258.85,0.808543
235.1000,-0.192846,258.945,0.809683
235.0000,-0.23191,258.839,0.808411
234.9000,-0.524982,259.114,0.811702
234.8000,-0.511858,258.907,0.809226
234.7000,-0.257688,259.336,0.814346
234.6000,-1.03624,259.348,0.814493
234.5000,0.163725,259.365,0.8147
234.4000,0.215053,259.264,0.813487
234.3000,0.862848,259.46,0.815826
234.2000,-1.09384,259.178,0.812464
234.1000,-0.346247,259.359,0.814625
234.0000,-0.224663,259.488,0.816167
233.9000,-1.03233,259.473,0.81599
233.8000,-0.961908,259.815,0.820066
233.7000,-1.08793,259.694,0.818625
233.6000,-0.997184,259.921,0.821325
233.5000,0.197702,259.929,0.821427
233.4000,-0.0401704,259.928,0.821406
233.3000,-0.625679,260.135,0.823882
233.2000,-0.0775491,260.239,0.825113
233.1000,-0.478934,260.223,0.824924
233.0000,-0.447843,260.086,0.823291
232.9000,0.19574,260.431,0.827397
232.8000,-0.859446,260.64,0.829885
232.7000,-0.0916443,260.637,0.829856
232.6000,0.649461,260.604,0.829462
232.5000,-0.717332,260.691,0.830498
232.4000,-1.57062,260.897,0.832947
232.3000,-0.119405,260.784,0.831596
232.2000,-1.44141,261.074,0.835046
232.1000,0.562015,260.854,0.832435
232.0000,0.00378301,260.759,0.831306
231.9000,-1.00412,260.998,0.834145
231.8000,-0.996121,261.261,0.837269
231.7000,1.17441,261.334,0.838126
231.6000,-2.52763,261.469,0.839732
231.5000,0.866667,261.647,0.841844
231.4000,-1.51736,261.792,0.843556
231.3000,0.194793,261.496,0.840056
231.2000,-0.035454,261.633,0.84168
231.1000,-1.19412,261.569,0.840922
231.0000,-0.795956,261.844,0.844172
230.9000,-0.863771,261.734,0.842873
230.8000,-1.11064,261.88,0.844598
230.7000,-0.954146,261.92,0.845076
230.6000,-1.12283,262.186,0.848228
230.5000,-1.21111,262.021,0.846268
230.4000,0.0472107,261.674,0.84216
230.3000,-1.502,261.924,0.845128
230.2000,-2.04523,261.849,0.844237
230.1000,-1.09903,262.081,0.846979
230.0000,-1.61207,261.826,0.84396
229.9000,-1.49882,261.832,0.844029
229.8000,-2.07501,261.508,0.840197
229.7000,-1.47065,261.557,0.84078
229.6000,-1.34244,261.494,0.840027
229.5000,-0.758243,261.577,0.841015
229.4000,-0.67869,262.012,0.846168
229.3000,-1.05325,262.385,0.850576
229.2000,-1.53702,261.749,0.843046
229.1000,-1.46152,262.383,0.850556
229.0000,-0.878871,262.384,0.850571
228.9000,-1.51792,262.564,0.852696
228.8000,-0.984336,262.914,0.856831
228.7000,-2.63271,263.016,0.858032
228.6000,-1.4567,263.074,0.858717
228.5000,-2.21989,263.214,0.860367
228.4000,-0.763683,263.07,0.858663
228.3000,-1.58072,263.744,0.866613
228.2000,-2.31915,263.4,0.862561
228.1000,-2.83166,263.615,0.865088
228.0000,-1.94109,263.99,0.869511
227.9000,-1.57375,263.998,0.869606
227.8000,-1.10697,264.237,0.872418
227.7000,-3.04953,264.127,0.871117
227.6000,-1.3166,264.136,0.871227
227.5000,-0.61683,264.363,0.873889
227.4000,-1.48937,264.511,0.875635
227.3000,-2.8438,264.221,0.872223
227.2000,-1.52747,264.586,0.876508
227.1000,-2.06271,265.05,0.881956
227.0000,-1.77805,264.569,0.876315
226.9000,-2.23534,264.791,0.878926
226.8000,-2.39946,264.885,0.880017
226.7000,-1.33481,264.716,0.878038
226.6000,-2.13221,264.932,0.880572
226.5000,-1.60719,264.645,0.877205
226.4000,-1.96523,264.945,0.880727
226.3000,-2.96173,265.298,0.884859
226.2000,-1.75225,265.192,0.883623
226.1000,-2.13869,265.18,0.883478
226.0000,-0.935412,265.744,0.890086
225.9000,-0.267209,265.312,0.885029
225.8000,-1.36952,265.518,0.887446
225.7000,-1.92822,265.618,0.888611
225.6000,-1.68332,265.962,0.892636
225.5000,-0.72616,265.754,0.890207
225.4000,-0.639088,265.7,0.889573
225.3000,-0.505774,266.149,0.894821
225.2000,-0.807909,265.899,0.891904
225.1000,-2.21505,266.361,0.897298
225.0000,-2.38654,266.256,0.896067
224.9000,-0.610991,266.557,0.899583
224.8000,-2.8653,266.323,0.896853
224.7000,-2.61689,266.6,0.90009
224.6000,-1.89854,266.442,0.898244
224.5000,-1.4565,266.519,0.899147
224.4000,-2.14426,266.996,0.904702
224.3000,-3.29384,266.77,0.902076
224.2000,-1.16907,266.994,0.904682
224.1000,-2.68565,266.939,0.904045
224.0000,-2.3047,267.155,0.906562
223.9000,-1.99037,267.045,0.905273
223.8000,-2.25035,267.282,0.908041
223.7000,-1.86357,267.124,0.906204
223.6000,-1.41654,267.669,0.912539
223.5000,-2.34751,267.346,0.908785
223.4000,-2.5564,267.352,0.908854
223.3000,-2.46534,267.482,0.910363
223.2000,-2.0756,267.463,0.910142
223.1000,-2.48421,267.637,0.912167
223.0000,-2.46667,268.111,0.917674
222.9000,-1.68658,267.926,0.915526
222.8000,-2.05913,267.709,0.913007
222.7000,-1.59204,268.048,0.916947
222.6000,-2.08178,268.514,0.922356
222.5000,-2.03324,268.364,0.920622
222.4000,-2.72875,267.955,0.915867
222.3000,-0.395315,268.512,0.922339
222.2000,-2.40564,268.048,0.916947
222.1000,-2.95575,268.342,0.920359
222.0000,-2.04644,268.87,0.926481
221.9000,-2.21335,268.469,0.921833
221.8000,-2.7546,268.76,0.925207
221.7000,-2.28261,268.782,0.925469
221.6000,-2.97674,268.945,0.927348
221.5000,-2.0162,268.725,0.924804
221.4000,-1.4942,269.323,0.93173
221.3000,-1.31623,268.967,0.927605
221.2000,-1.43123,268.975,0.927696
221.1000,-2.44982,269.071,0.928817
221.0000,-2.07915,269.222,0.93056
220.9000,-2.70073,269.156,0.929802
220.8000,-0.408018,269.662,0.93565
220.7000,-2.09289,269.619,0.935155
220.6000,-1.74577,269.357,0.932122
220.5000,-2.47728,269.675,0.935799
220.4000,-2.88221,270.153,0.941323
220.3000,-1.29455,269.964,0.939135
220.2000,-4.18806,269.785,0.937067
220.1000,-1.88641,269.84,0.93771
220.0000,-1.84715,269.999,0.939541
219.9000,-2.90806,269.812,0.93738
219.8000,-2.37513,270.314,0.943178
219.7000,-2.31147,270.033,0.939935
219.6000,-2.71976,270.575,0.946188
219.5000,-1.40441,270.399,0.944165
219.4000,-1.00197,270.729,0.947965
219.3000,-2.54861,270.496,0.945275
219.2000,-2.44547,270.538,0.945765
219.1000,-3.28232,270.71,0.94775
219.0000,-3.3682,270.775,0.948487
218.9000,-2.11403,270.459,0.944854
218.8000,-1.323,271.084,0.952049
218.7000,-1.54935,270.553,0.945935
218.6000,-2.18439,270.466,0.944937
218.5000,-2.31494,270.812,0.948915
218.4000,-1.48371,270.798,0.948756
218.3000,-2.00063,270.928,0.950251
218.2000,-1.84078,271.006,0.951147
218.1000,-2.82403,270.851,0.949372
218.0000,-2.1897,271.346,0.955061
217.9000,-3.03145,271.222,0.953636
217.8000,-1.51845,271.081,0.952013
217.7000,-2.48727,271.542,0.957322
217.6000,-0.895931,271.755,0.959769
217.5000,-1.93245,271.56,0.95752
217.4000,-1.31771,271.689,0.959004
217.3000,-2.10281,271.837,0.96071
217.2000,-0.514763,271.884,0.961252
217.1000,-1.73003,271.863,0.961
217.0000,-2.18313,272.409,0.96727
216.9000,-3.24801,272.295,0.965961
216.8000,-2.40227,272.45,0.967744
216.7000,-2.09991,272.006,0.962647
216.6000,-2.18629,272.658,0.970118
216.5000,-0.28736,272.846,0.972272
216.4000,-2.48568,272.601,0.969466
216.3000,-2.41753,272.549,0.968878
216.2000,-1.27334,272.666,0.97021
216.1000,-2.74434,272.885,0.972721
216.0000,-1.84804,272.688,0.970467
215.9000,-1.65993,272.643,0.969948
215.8000,-1.25167,272.645,0.969969
215.7000,-2.1576,273.043,0.974526
215.6000,-1.59969,273.156,0.975827
215.5000,-2.35573,273.278,0.977215
215.4000,-2.15377,272.865,0.972487
215.3000,-2.98332,273.043,0.974532
215.2000,-1.76458,273.358,0.978126
215.1000,-2.08726,273.496,0.979712
215.0000,-1.25437,273.439,0.979058
214.9000,-2.45679,273.386,0.978453
214.8000,-1.5013,273.635,0.981297
214.7000,-1.55691,273.479,0.979513
214.6000,-1.57285,273.734,0.98242
214.5000,-1.6535,273.911,0.984443
214.4000,-0.776314,273.949,0.984883
214.3000,-2.49948,273.513,0.979896
214.2000,-0.938706,274.011,0.985584
214.1000,-1.42243,274.043,0.985948
214.0000,-1.94,273.969,0.985112
213.9000,-1.8145,274.154,0.98722
213.8000,-2.39747,274.32,0.989108
213.7000,-2.88801,274.384,0.989834
213.6000,-2.15468,274.62,0.992523
213.5000,-1.65582,274.118,0.986807
213.4000,-1.22189,274.713,0.993585
213.3000,-1.94566,274.491,0.991057
213.2000,-1.92355,274.517,0.991349
213.1000,-2.08113,274.664,0.993026
213.0000,-2.95747,274.675,0.993153
212.9000,-1.46697,274.566,0.99191
212.8000,-2.06536,274.652,0.992892
212.7000,-1.85545,275.165,0.998726
212.6000,-2.0175,274.942,0.996186
212.5000,-1.55917,274.889,0.99559
212.4000,-2.81697,274.887,0.995569
212.3000,-1.74754,275.343,1.00075
212.2000,-2.0298,275.738,1.00523
212.1000,-1.37834,275.553,1.00313
212.0000,-1.10762,275.731,1.00515
211.9000,-3.44176,275.831,1.00629
211.8000,-2.73705,275.865,1.00667
211.7000,-1.82131,275.858,1.00659
211.6000,-3.83969,276.246,1.011
211.5000,-2.33212,276.222,1.01073
211.4000,-1.89506,276.32,1.01184
211.3000,-1.39572,276.279,1.01136
211.2000,-2.47682,276.697,1.0161
211.1000,-2.32315,276.44,1.01319
211.0000,-1.31912,276.612,1.01514
210.9000,-3.19872,276.994,1.01946
210.8000,-1.62502,276.634,1.01538
210.7000,-2.55047,276.964,1.01912
210.6000,-2.16815,276.68,1.01591
210.5000,-1.68913,276.776,1.01699
210.4000,-2.38447,276.761,1.01683
210.3000,-3.01179,277.214,1.02194
210.2000,-1.49952,277.336,1.02332
210.1000,-0.891766,276.759,1.0168
210.0000,-1.77324,277.52,1.02539
209.9000,-2.65173,277.233,1.02216
209.8000,-4.29303,277.741,1.02789
209.7000,-3.20656,278.119,1.03215
209.6000,-2.93017,277.848,1.0291
209.5000,-1.85005,278.219,1.03328
209.4000,-2.86175,278.029,1.03114
209.3000,-1.74004,278.155,1.03255
209.2000,-1.90216,277.865,1.02929
209.1000,-3.05074,278.459,1.03599
209.0000,-0.372685,278.843,1.0403
208.9000,-1.9541,279.133,1.04356
208.8000,-1.20908,279.069,1.04284
208.7000,-2.92654,279.183,1.04413
208.6000,-1.17984,279.451,1.04713
208.5000,-2.90371,278.993,1.04199
208.4000,-1.794,278.724,1.03896
208.3000,-2.03031,279.06,1.04275
208.2000,-1.26873,279.49,1.04757
208.1000,-1.36498,279.547,1.04821
208.0000,-1.72442,279.973,1.05299
207.9000,-1.65014,279.683,1.04974
207.8000,-2.30954,280.118,1.05461
207.7000,-1.01894,280.164,1.05513
207.6000,-3.71147,280.377,1.0575
207.5000,-2.9925,280.583,1.05981
207.4000,-1.92401,280.843,1.06272
207.3000,-1.2315,281.049,1.06502
207.2000,-2.36688,280.767,1.06187
207.1000,-0.39399,280.912,1.06349
207.0000,-1.38041,281.611,1.07129
206.9000,-0.998011,281.158,1.06624
206.8000,-1.97321,281.246,1.06722
206.7000,0.0434304,281.497,1.07002
206.6000,-1.2822,281.484,1.06987
206.5000,-2.02834,281.824,1.07366
206.4000,-0.643546,282.009,1.07573
206.3000,-2.63827,282.253,1.07844
206.2000,-1.48297,282.258,1.0785
206.1000,-2.02922,282.659,1.08296
206.0000,-1.28869,282.807,1.08461
205.9000,-2.17995,282.281,1.07876
205.8000,-1.43096,282.134,1.07712
205.7000,0.806599,283.144,1.08835
205.6000,-1.62929,283.373,1.09089
205.5000,1.1585,283.153,1.08845
205.4000,-0.287118,283.207,1.08905
205.3000,-1.78514,283.79,1.09551
205.2000,0.287004,284.364,1.10186
205.1000,-0.951677,284.175,1.09977
205.0000,-1.02542,284.48,1.10314
204.9000,-0.862402,284.401,1.10227
204.8000,0.680209,284.773,1.10638
204.7000,-1.56061,284.784,1.1065
204.6000,1.2259,285.192,1.11101
204.5000,-0.397433,285.574,1.11523
204.4000,0.393778,285.895,1.11876
204.3000,0.38504,285.634,1.11588
204.2000,-0.960729,286.192,1.12202
204.1000,1.08216,285.976,1.11965
204.0000,-0.0391952,286.353,1.1238
203.9000,1.04384,286.748,1.12814
203.8000,-1.27287,286.823,1.12896
203.7000,-0.649201,287.125,1.13228
203.6000,0.936409,287.203,1.13313
203.5000,1.48405,287.314,1.13435
203.4000,1.14051,287.257,1.13373
203.3000,3.33559,287.85,1.14022
203.2000,0.748099,288.011,1.14198
203.1000,1.17283,287.652,1.13805
203.0000,1.96916,288.63,1.14875
202.9000,0.843127,288.5,1.14733
202.8000,0.386913,288.878,1.15146
202.7000,0.599082,288.517,1.14752
202.6000,1.94188,289.229,1.1553
202.5000,0.784348,289.546,1.15874
202.4000,1.09937,289.517,1.15843
202.3000,3.14633,289.624,1.15959
202.2000,1.91437,290.049,1.16422
202.1000,2.6383,290.294,1.16688
202.0000,2.56672,290.716,1.17147
201.9000,2.48031,290.96,1.17412
201.8000,3.29295,291.377,1.17865
201.7000,2.43814,291.479,1.17975
201.6000,2.63016,291.687,1.182
201.5000,1.65039,292.202,1.18757
201.4000,2.27071,292.046,1.18589
201.3000,3.19793,292.432,1.19006
201.2000,2.0313,292.91,1.19522
201.1000,0.723904,293.246,1.19884
201.0000,3.16827,293.323,1.19968
200.9000,1.86685,293.432,1.20085
200.8000,2.22259,293.94,1.20631
200.7000,4.0913,293.9,1.20588
200.6000,3.83496,294.196,1.20908
200.5000,3.55909,294.514,1.21249
200.4000,4.67589,294.628,1.21371
200.3000,3.64303,295.223,1.22009
200.2000,4.49304,295.184,1.21969
200.1000,5.28056,295.475,1.2228
200.0000,5.35795,296.091,1.22939
199.9000,3.43571,296.213,1.2307
199.8000,3.97627,296.495,1.23371
199.7000,5.34562,297.014,1.23925
199.6000,5.51951,297.113,1.24031
199.5000,4.85299,297.167,1.24089
199.4000,5.15662,297.222,1.24147
199.3000,5.56718,297.186,1.24109
199.2000,4.82233,297.539,1.24484
199.1000,5.2809,297.835,1.248
199.0000,7.42433,297.996,1.24971
198.9000,5.86776,298.599,1.25612
198.8000,5.99293,298.87,1.25899
198.7000,5.63258,298.901,1.25933
198.6000,8.41824,299.179,1.26227
198.5000,6.50063,299.531,1.26601
198.4000,7.8202,299.576,1.26648
198.3000,6.85272,299.961,1.27056
198.2000,7.15853,300.055,1.27155
198.1000,5.31953,300.391,1.2751
198.0000,8.11092,300.403,1.27522
197.9000,6.74904,300.709,1.27846
197.8000,6.12618,301.254,1.28421
197.7000,6.30916,301.289,1.28458
197.6000,7.05248,301.586,1.2877
197.5000,7.49085,301.792,1.28987
197.4000,8.34813,301.951,1.29155
197.3000,6.75378,302.42,1.29648
197.2000,7.7561,302.98,1.30236
197.1000,7.57438,303.285,1.30556
197.0000,9.8242,303.161,1.30426
196.9000,7.75577,303.453,1.30731
196.8000,9.42242,304.141,1.31452
196.7000,7.12296,304.209,1.31523
196.6000,8.97342,304.315,1.31634
196.5000,8.95774,304.881,1.32225
196.4000,8.1619,305.256,1.32616
196.3000,7.73187,305.447,1.32815
196.2000,9.83648,305.876,1.33262
196.1000,10.4214,306.327,1.33732
196.0000,7.53491,306.433,1.33841
195.9000,8.82462,306.704,1.34123
195.8000,9.26534,307.479,1.34927
195.7000,8.7763,307.842,1.35303
195.6000,10.8956,308.075,1.35545
195.5000,10.6335,308.21,1.35683
195.4000,9.74245,308.775,1.36268
195.3000,7.04828,308.925,1.36422
195.2000,9.32642,309.683,1.37204
195.1000,9.60843,309.768,1.37291
195.0000,7.0031,309.904,1.37431
194.9000,11.5102,310.221,1.37758
194.8000,9.14055,310.466,1.3801
194.7000,10.5545,310.924,1.3848
194.6000,9.68109,311.184,1.38747
194.5000,10.5003,311.626,1.392
194.4000,9.99224,312.278,1.39868
194.3000,10.3802,312.813,1.40415
194.2000,9.48254,313.225,1.40836
194.1000,10.6096,313.641,1.4126
194.0000,11.3478,314.447,1.4208
193.9000,11.0605,315.308,1.42955
193.8000,9.1148,316.049,1.43707
193.7000,6.75049,316.877,1.44544
193.6000,10.0414,317.263,1.44934
193.5000,9.89497,318.11,1.45788
193.4000,11.8522,318.469,1.4615
193.3000,9.07788,318.652,1.46334
193.2000,11.441,319.125,1.4681
193.1000,10.4608,319.903,1.47591
193.0000,9.32317,320.343,1.48031
192.9000,9.88349,321.418,1.49106
192.8000,11.6626,321.867,1.49554
192.7000,11.2042,322.683,1.50368
192.6000,9.52977,323.831,1.51508
192.5000,9.55522,324.441,1.52113
192.4000,6.53983,325.33,1.52993
192.3000,10.0356,326.486,1.54134
192.2000,9.63274,327.287,1.54923
192.1000,8.97058,327.974,1.55598
192.0000,11.1314,328.501,1.56115
191.9000,8.58743,329.472,1.57067
191.8000,11.3837,330.124,1.57703
191.7000,9.62811,330.931,1.5849
191.6000,10.6285,332.158,1.59685
191.5000,9.97654,332.844,1.60351
191.4000,10.0605,334.615,1.62065
191.3000,8.34512,335.375,1.62798
191.2000,9.332,336.563,1.63941
191.1000,9.80033,338.319,1.65625
191.0000,10.8145,339.453,1.66708
190.9000,11.1082,341.221,1.68392
190.8000,8.71855,342.727,1.69819
190.7000,8.20567,343.914,1.70942
190.6000,11.579,345.121,1.72079
190.5000,9.75347,346.713,1.73574
190.4000,10.7717,348.546,1.75288
190.3000,10.6376,349.648,1.76315
190.2000,7.85922,351.096,1.77661
190.1000,6.97865,352.54,1.78998
190.0000,7.58983,354.048,1.80389

##### Extended Information
[Comments]
Sample name,class
Comment
User
Division
Company,Saint Mary's College

[Detailed Information]
Creation date,9/29/2021 3:31 PM

Data array type,Linear data array * 3
Horizontal axis,Wavelength [nm]
Vertical axis(1),CD [mdeg]
Vertical axis(2),HT [V]
Vertical axis(3),Abs
Start,290 nm
End,190 nm
Data interval,0.1 nm
Data points,1001    

[Measurement Information]
Instrument name,J-1500
Model name,J-1500
Serial No.,B051061638

Detector,PM-539
Detector S/N,B051061638
  Lock-in amp.,X mode
  HT volt,Auto

Accessory,PTC-517
Accessory S/N,B026561646
  Temperature,22.63 C
  Control sensor,Holder
  Monitor sensor,Holder

Measurement date,9/29/2021 3:30 PM

CD Overload detect,863
Photometric mode,CD, HT, Abs
Measure range,290 - 190 nm
Data pitch,0.1 nm
CD scale,20 mdeg/0.05 dOD
FL scale,20 mdeg/0.05 dOD
D.I.T.,64 msec
Bandwidth,1.00 nm
Start mode,Immediately
Scanning mode,Continuous
Scanning speed,50 nm/min
Baseline correction,None
Shutter control,Auto
No. of cycle,1/1
N2 Flowmeter,Manual


