TITLE,class
DATA TYPE,
ORIGIN,JASCO
OWNER,
DATE,21/09/29
TIME,16:57:49
SPECTROMETER/DATA SYSTEM,
LOCALE,1033
RESOLUTION,
DELTAX,-0.1
XUNITS,NANOMETERS
YUNITS,CD [mdeg]
Y2UNITS,HT [V]
Y3UNITS,ABSORBANCE
FIRSTX,  290.0000
LASTX,  190.0000
NPOINTS,    1001
FIRSTY,     0.84995
MAXY,     5.17168
MINY,    -0.80423
XYDATA
290.0000,0.849951,252.539,0.732305
289.9000,2.80682,252.406,0.730683
289.8000,1.39392,252.629,0.733404
289.7000,0.731983,253.103,0.739182
289.6000,1.13523,252.51,0.73195
289.5000,1.66093,252.562,0.732578
289.4000,2.14529,253.192,0.74026
289.3000,1.35421,252.615,0.733226
289.2000,1.57576,252.659,0.733763
289.1000,1.5618,252.624,0.733335
289.0000,0.784592,252.829,0.735838
288.9000,1.11451,252.76,0.735002
288.8000,0.901507,252.468,0.731431
288.7000,0.669945,252.941,0.737204
288.6000,2.09609,252.352,0.730022
288.5000,1.72692,252.71,0.734384
288.4000,0.872487,252.507,0.73191
288.3000,1.24366,252.614,0.733216
288.2000,1.16575,252.932,0.737092
288.1000,2.15864,252.786,0.73532
288.0000,1.8761,252.777,0.735209
287.9000,2.08643,252.454,0.731266
287.8000,1.54539,252.796,0.735443
287.7000,1.40528,252.484,0.731635
287.6000,1.18124,252.534,0.732241
287.5000,0.583132,252.267,0.728982
287.4000,0.634358,252.39,0.730479
287.3000,0.389543,252.796,0.735432
287.2000,0.811732,252.587,0.732892
287.1000,0.492053,252.502,0.731845
287.0000,1.31146,252.328,0.729724
286.9000,1.80354,252.671,0.733919
286.8000,1.4051,252.52,0.732075
286.7000,1.22012,252.607,0.733134
286.6000,1.38342,252.372,0.730269
286.5000,0.890424,252.437,0.731051
286.4000,1.47906,252.574,0.732733
286.3000,-0.122947,252.477,0.731547
286.2000,0.446067,252.418,0.730823
286.1000,1.24756,252.538,0.732291
286.0000,1.26266,252.627,0.733376
285.9000,0.860724,252.37,0.730242
285.8000,0.910956,252.484,0.731625
285.7000,1.59951,252.543,0.732355
285.6000,1.52826,252.453,0.731253
285.5000,2.1081,252.23,0.728534
285.4000,2.05633,252.032,0.726114
285.3000,2.09302,252.329,0.729733
285.2000,0.946575,251.941,0.724996
285.1000,0.251478,252.484,0.731625
285.0000,1.54531,252.377,0.730327
284.9000,1.06691,251.965,0.725285
284.8000,2.55963,252.371,0.730252
284.7000,1.57088,252.11,0.727059
284.6000,0.675506,252.03,0.726085
284.5000,0.705521,252.065,0.726509
284.4000,1.20925,252.412,0.730754
284.3000,0.980414,252.281,0.729152
284.2000,0.949777,252.331,0.729763
284.1000,1.64267,252.504,0.731872
284.0000,-0.342983,252.387,0.730444
283.9000,1.39277,251.926,0.724815
283.8000,1.61749,252.549,0.732422
283.7000,1.77934,252.202,0.728181
283.6000,1.51901,252.196,0.728112
283.5000,1.05927,252.242,0.728676
283.4000,1.00072,252.091,0.726831
283.3000,0.720925,251.997,0.725681
283.2000,1.59413,252.057,0.726417
283.1000,0.657536,252.514,0.731997
283.0000,1.2853,252.062,0.726473
282.9000,1.34582,252.136,0.727385
282.8000,0.99924,252.183,0.72796
282.7000,1.25028,252.101,0.726949
282.6000,0.761235,252.038,0.726177
282.5000,1.22611,252.239,0.728642
282.4000,1.25168,252.088,0.726788
282.3000,0.618781,252.16,0.727674
282.2000,0.998298,251.934,0.724907
282.1000,0.644864,252.307,0.729467
282.0000,0.368254,252.146,0.727499
281.9000,0.613408,252.505,0.731888
281.8000,1.38094,252.105,0.726996
281.7000,1.04503,252.236,0.728607
281.6000,-0.357711,251.919,0.724722
281.5000,0.301537,252.149,0.727534
281.4000,0.710492,251.872,0.724147
281.3000,-0.239633,251.735,0.722476
281.2000,1.20989,251.982,0.725498
281.1000,1.32028,252.018,0.725938
281.0000,1.4874,251.973,0.72539
280.9000,0.624394,251.788,0.723123
280.8000,1.0025,251.88,0.724249
280.7000,0.128737,252.008,0.725822
280.6000,0.563751,251.892,0.724391
280.5000,1.82861,252.021,0.725979
280.4000,1.83504,251.808,0.72337
280.3000,1.3763,251.873,0.724162
280.2000,1.50184,251.541,0.720106
280.1000,1.52209,251.852,0.723909
280.0000,0.64139,252.015,0.725898
279.9000,1.23641,251.737,0.722506
279.8000,0.666698,251.8,0.723275
279.7000,1.0302,251.826,0.723591
279.6000,2.08199,251.505,0.719664
279.5000,0.773906,251.444,0.718914
279.4000,0.491409,251.728,0.722395
279.3000,1.54575,251.789,0.723135
279.2000,0.739946,251.448,0.718968
279.1000,2.03432,251.583,0.720616
279.0000,1.85594,251.66,0.721552
278.9000,0.557094,251.565,0.720392
278.8000,1.17249,251.636,0.72127
278.7000,-0.0990554,251.729,0.722407
278.6000,1.67651,251.825,0.723575
278.5000,0.889686,251.438,0.718842
278.4000,0.796628,251.827,0.723598
278.3000,2.00512,251.297,0.717106
278.2000,1.16534,251.653,0.721471
278.1000,0.808599,251.879,0.724239
278.0000,1.49116,251.641,0.721322
277.9000,1.74635,251.663,0.721599
277.8000,0.689333,251.423,0.718661
277.7000,0.931021,251.714,0.722225
277.6000,1.10056,251.594,0.720753
277.5000,2.16858,251.58,0.720574
277.4000,1.25856,251.513,0.719752
277.3000,2.14628,251.609,0.720932
277.2000,1.87064,251.473,0.719274
277.1000,1.87357,252.056,0.726398
277.0000,0.805857,251.305,0.717209
276.9000,0.69085,251.792,0.723177
276.8000,2.20284,251.626,0.72114
276.7000,1.03431,251.587,0.720668
276.6000,0.687084,251.776,0.722982
276.5000,0.56034,251.666,0.72163
276.4000,1.05481,251.692,0.721949
276.3000,1.55876,251.445,0.71892
276.2000,1.69035,251.484,0.7194
276.1000,0.673562,251.639,0.721303
276.0000,0.74932,251.545,0.720144
275.9000,1.18993,251.531,0.719974
275.8000,0.165204,251.256,0.716612
275.7000,0.918098,251.387,0.718215
275.6000,1.25492,251.33,0.717521
275.5000,0.613667,251.383,0.718163
275.4000,1.53476,251.373,0.718042
275.3000,1.05903,251.471,0.719242
275.2000,1.02332,251.186,0.715756
275.1000,0.805313,251.446,0.718942
275.0000,0.888925,251.589,0.720687
274.9000,1.18636,251.716,0.722246
274.8000,1.27576,251.388,0.718229
274.7000,1.41248,251.152,0.715337
274.6000,1.6857,251.295,0.717089
274.5000,1.29197,251.395,0.718313
274.4000,1.36556,251.236,0.716363
274.3000,0.0286055,251.246,0.716487
274.2000,1.55532,251.252,0.716566
274.1000,1.56097,251.138,0.715162
274.0000,0.00809913,251.362,0.717905
273.9000,0.483419,251.216,0.716119
273.8000,1.77829,251.341,0.717651
273.7000,0.45181,251.198,0.715896
273.6000,1.22392,251.406,0.718443
273.5000,1.25416,251.325,0.717457
273.4000,1.6601,251.584,0.720625
273.3000,0.861863,251.586,0.720647
273.2000,0.635669,251.152,0.71533
273.1000,0.746643,251.158,0.71541
273.0000,1.40271,251.407,0.718457
272.9000,1.22113,251.371,0.718014
272.8000,0.871774,251.31,0.717266
272.7000,0.37279,251.524,0.719896
272.6000,1.40382,251.421,0.718632
272.5000,1.07677,251.419,0.718613
272.4000,0.851978,251.42,0.718619
272.3000,0.49868,251.236,0.716367
272.2000,0.453879,251.428,0.718718
272.1000,1.05068,251.004,0.713518
272.0000,1.5647,251.279,0.716886
271.9000,1.62921,251.181,0.715686
271.8000,0.389048,251.112,0.714842
271.7000,0.65655,251.207,0.716007
271.6000,1.3968,251.264,0.716707
271.5000,0.780654,251.193,0.715837
271.4000,0.170775,251.189,0.715792
271.3000,0.42449,251.539,0.720071
271.2000,0.993288,251.291,0.717044
271.1000,1.06293,251.128,0.715044
271.0000,1.50768,251.494,0.71952
270.9000,1.27186,251.359,0.71787
270.8000,0.862164,251.246,0.716492
270.7000,0.604781,251.154,0.715355
270.6000,0.656496,251.092,0.714594
270.5000,1.07491,251.39,0.718257
270.4000,1.94307,251.007,0.713552
270.3000,1.53854,251.288,0.717002
270.2000,1.61667,251.382,0.718148
270.1000,1.1754,251.013,0.713625
270.0000,0.670518,251.15,0.715308
269.9000,0.724172,251.173,0.715592
269.8000,0.670793,251.208,0.716027
269.7000,0.331551,251.068,0.714311
269.6000,1.64499,251.565,0.720397
269.5000,0.588803,251.358,0.717858
269.4000,0.567763,251.344,0.717689
269.3000,-0.149993,251.008,0.713564
269.2000,0.452069,251.141,0.715202
269.1000,1.26557,250.998,0.713444
269.0000,0.7381,251.138,0.715165
268.9000,1.48827,251.485,0.719417
268.8000,1.99853,251.396,0.71833
268.7000,0.667656,250.993,0.713388
268.6000,1.21901,251.092,0.714594
268.5000,0.141506,251.366,0.71796
268.4000,0.674209,251.402,0.718397
268.3000,0.88191,251.27,0.716787
268.2000,-0.0379479,251.219,0.716152
268.1000,1.84968,251.422,0.718639
268.0000,-0.307746,251.584,0.720625
267.9000,0.734624,251.427,0.718703
267.8000,0.0934344,251.383,0.718168
267.7000,0.283226,251.413,0.718529
267.6000,0.153733,251.405,0.718434
267.5000,1.15279,251.071,0.714344
267.4000,0.338155,251.343,0.717674
267.3000,-0.00309573,251.33,0.717521
267.2000,1.36794,251.326,0.717469
267.1000,1.54761,251.048,0.714057
267.0000,1.0703,251.22,0.716167
266.9000,1.93735,251.382,0.718154
266.8000,-0.43155,251.299,0.717136
266.7000,0.697445,251.575,0.720519
266.6000,1.14836,251.619,0.721062
266.5000,0.660043,251.473,0.719265
266.4000,1.22804,251.616,0.721018
266.3000,0.236132,251.362,0.717913
266.2000,1.16766,251.665,0.721625
266.1000,0.0744111,251.563,0.720365
266.0000,0.192574,251.553,0.720247
265.9000,1.29378,251.431,0.718757
265.8000,0.402198,251.681,0.721818
265.7000,0.798346,251.257,0.716627
265.6000,0.712669,251.393,0.718288
265.5000,0.713383,251.456,0.719065
265.4000,0.34651,251.865,0.724072
265.3000,-0.394763,251.701,0.722064
265.2000,0.692018,251.692,0.721946
265.1000,0.313581,251.908,0.72459
265.0000,1.31533,251.796,0.723225
264.9000,1.14126,251.598,0.720795
264.8000,0.000369501,251.711,0.722187
264.7000,0.917318,251.868,0.724107
264.6000,-0.130367,251.922,0.724762
264.5000,-0.30163,252.025,0.726028
264.4000,-0.536028,252.157,0.727639
264.3000,-0.493251,251.923,0.724781
264.2000,0.14952,251.702,0.722071
264.1000,1.27711,251.777,0.722995
264.0000,1.02012,251.978,0.725449
263.9000,0.289835,252.047,0.726291
263.8000,1.27892,252.089,0.7268
263.7000,-0.393542,252.088,0.726798
263.6000,1.57436,252.027,0.726054
263.5000,0.351688,251.832,0.723658
263.4000,0.653969,252.156,0.727629
263.3000,1.01763,251.99,0.72559
263.2000,0.572783,252.019,0.725948
263.1000,0.903465,251.889,0.724355
263.0000,0.759848,252.31,0.729512
262.9000,0.40477,252.173,0.727835
262.8000,0.780847,251.988,0.725565
262.7000,1.16154,252.448,0.731193
262.6000,1.27193,252.14,0.72743
262.5000,1.60823,252.332,0.72978
262.4000,-0.804235,251.982,0.725498
262.3000,1.7195,252.366,0.730188
262.2000,0.0511831,252.522,0.732094
262.1000,1.66016,251.84,0.723759
262.0000,0.276703,252.221,0.728413
261.9000,1.19942,252.371,0.730249
261.8000,0.637851,251.918,0.724715
261.7000,1.55956,252.401,0.730614
261.6000,0.846346,252.173,0.72783
261.5000,0.509259,252.325,0.729688
261.4000,0.750702,252.01,0.725842
261.3000,0.89884,252.275,0.729074
261.2000,0.38486,252.242,0.72868
261.1000,-0.169823,252.347,0.729956
261.0000,0.298664,252.186,0.727993
260.9000,1.02934,252.583,0.732844
260.8000,0.929103,252.721,0.734527
260.7000,1.42274,252.159,0.727657
260.6000,0.200906,252.699,0.734259
260.5000,0.207883,252.437,0.731051
260.4000,0.602252,252.638,0.733509
260.3000,0.517232,252.505,0.731881
260.2000,0.532436,252.856,0.736173
260.1000,1.85309,252.68,0.734019
260.0000,0.735035,252.624,0.733337
259.9000,0.0289077,252.98,0.73768
259.8000,0.144317,253.052,0.738554
259.7000,0.728272,252.653,0.733691
259.6000,0.835238,252.793,0.735396
259.5000,1.331,252.556,0.73251
259.4000,0.497329,252.696,0.734221
259.3000,-0.391792,253.094,0.739066
259.2000,0.469443,252.799,0.735469
259.1000,0.705219,252.999,0.737908
259.0000,1.69453,252.772,0.735144
258.9000,-0.132882,252.688,0.734126
258.8000,1.78135,252.734,0.734686
258.7000,1.50835,252.943,0.737233
258.6000,0.328213,253.386,0.742631
258.5000,1.3618,253.255,0.741029
258.4000,0.930581,253.01,0.738051
258.3000,-0.476558,253.069,0.738768
258.2000,2.12285,253.119,0.739373
258.1000,0.818766,253.136,0.739582
258.0000,0.690195,253.015,0.738103
257.9000,0.993153,253.392,0.742693
257.8000,1.00489,252.954,0.737366
257.7000,0.889583,253.331,0.741959
257.6000,1.13187,253.092,0.739051
257.5000,0.701257,253.416,0.742997
257.4000,0.978985,253.017,0.738131
257.3000,-0.194932,253.338,0.74204
257.2000,0.354945,253.294,0.741507
257.1000,0.119229,253.267,0.741183
257.0000,0.713548,253.23,0.740726
256.9000,1.62199,253.351,0.7422
256.8000,1.25688,253.471,0.743658
256.7000,1.40226,253.229,0.740714
256.6000,1.14248,253.663,0.746001
256.5000,0.32227,253.676,0.746153
256.4000,1.31866,253.673,0.746115
256.3000,1.28255,253.596,0.745185
256.2000,0.145985,253.814,0.747835
256.1000,0.25347,253.472,0.743676
256.0000,0.947359,253.35,0.742183
255.9000,0.509633,253.866,0.748464
255.8000,1.19244,253.52,0.744251
255.7000,-0.221113,253.7,0.746442
255.6000,0.835905,253.733,0.746847
255.5000,0.928401,253.801,0.747669
255.4000,0.996366,253.627,0.745554
255.3000,0.560953,253.879,0.748625
255.2000,1.12872,253.81,0.747784
255.1000,0.762937,253.843,0.748178
255.0000,1.00171,253.802,0.747689
254.9000,0.717908,253.846,0.748224
254.8000,0.669896,253.701,0.74646
254.7000,1.19392,253.829,0.748018
254.6000,1.24754,253.893,0.748787
254.5000,1.10488,253.73,0.746816
254.4000,1.34675,254.116,0.751495
254.3000,-0.160709,253.953,0.749519
254.2000,0.365589,253.808,0.747758
254.1000,1.12051,254.307,0.753823
254.0000,0.852506,253.729,0.746799
253.9000,0.469416,254.167,0.752114
253.8000,1.83823,253.816,0.747858
253.7000,1.62923,254.217,0.752726
253.6000,1.36984,253.983,0.749887
253.5000,1.66531,254.317,0.753941
253.4000,1.38079,254.196,0.752472
253.3000,1.29732,254.188,0.752377
253.2000,0.0431206,254.376,0.754655
253.1000,1.17852,254.151,0.751927
253.0000,1.25094,254.117,0.751511
252.9000,1.08622,254.251,0.753139
252.8000,2.2835,254.327,0.754062
252.7000,1.25594,254.227,0.75285
252.6000,1.21822,254.436,0.755383
252.5000,0.809586,254.219,0.752754
252.4000,0.295495,254.292,0.753632
252.3000,0.104805,254.421,0.755204
252.2000,1.12836,254.341,0.754234
252.1000,0.264194,254.68,0.758347
252.0000,0.711106,254.472,0.755821
251.9000,1.22958,254.306,0.753802
251.8000,0.809048,254.523,0.756438
251.7000,0.942245,254.302,0.753754
251.6000,0.725328,254.372,0.754608
251.5000,1.62863,254.634,0.757786
251.4000,1.00884,254.463,0.755711
251.3000,0.110801,254.532,0.756548
251.2000,1.32518,254.643,0.757898
251.1000,1.6434,254.381,0.75472
251.0000,1.14312,254.672,0.758241
250.9000,0.728977,254.484,0.755964
250.8000,0.928942,254.823,0.760072
250.7000,1.25368,254.071,0.750953
250.6000,1.73905,254.592,0.757281
250.5000,1.47564,254.507,0.756242
250.4000,0.955128,254.781,0.759566
250.3000,1.17218,254.663,0.758131
250.2000,1.18859,254.508,0.756261
250.1000,1.02743,254.951,0.76163
250.0000,1.70537,254.595,0.757314
249.9000,0.366172,254.892,0.760911
249.8000,1.0386,254.782,0.759583
249.7000,0.989195,254.492,0.756067
249.6000,1.60378,254.424,0.755242
249.5000,0.803842,254.842,0.760302
249.4000,0.264265,254.306,0.753801
249.3000,0.416175,254.616,0.75757
249.2000,1.33488,254.352,0.754366
249.1000,0.403793,254.543,0.756678
249.0000,0.606424,254.692,0.758488
248.9000,0.602513,254.531,0.756534
248.8000,0.83556,253.984,0.749897
248.7000,0.885318,254.751,0.759199
248.6000,0.368808,254.437,0.755395
248.5000,1.01395,254.608,0.757468
248.4000,0.310425,254.441,0.75544
248.3000,0.50999,254.625,0.757671
248.2000,0.405102,254.631,0.757752
248.1000,0.667032,254.34,0.754225
248.0000,1.15482,254.25,0.753132
247.9000,0.39985,254.434,0.755363
247.8000,1.73711,254.536,0.756599
247.7000,0.74738,254.583,0.757166
247.6000,1.12051,254.609,0.757487
247.5000,2.00831,254.448,0.755534
247.4000,0.644689,254.52,0.756407
247.3000,2.06049,254.905,0.761069
247.2000,1.34444,255.004,0.762268
247.1000,1.13281,254.717,0.75879
247.0000,0.207939,254.859,0.760506
246.9000,1.64648,254.924,0.761299
246.8000,0.945509,254.444,0.755478
246.7000,1.06092,254.765,0.759374
246.6000,-0.270406,254.618,0.757592
246.5000,0.109019,254.404,0.754995
246.4000,1.06699,254.832,0.760182
246.3000,0.43578,254.799,0.759787
246.2000,0.6715,254.924,0.761304
246.1000,0.86591,254.888,0.760865
246.0000,0.343769,254.785,0.759617
245.9000,0.359708,254.845,0.760336
245.8000,0.959155,255.081,0.763197
245.7000,1.08574,254.619,0.757606
245.6000,1.0788,254.767,0.759398
245.5000,1.23036,255.062,0.762972
245.4000,0.87196,254.943,0.761525
245.3000,0.343122,254.706,0.758658
245.2000,0.579835,254.937,0.761462
245.1000,1.33853,255.278,0.765588
245.0000,1.14971,255.053,0.762856
244.9000,1.22146,254.857,0.760484
244.8000,-0.0978104,254.801,0.759806
244.7000,1.42609,255.019,0.76245
244.6000,1.61413,254.878,0.760746
244.5000,0.546613,255.001,0.762237
244.4000,0.738686,255.247,0.765209
244.3000,1.34172,254.954,0.761657
244.2000,0.771543,255.255,0.76531
244.1000,0.197643,255.153,0.764068
244.0000,0.0368295,254.702,0.758608
243.9000,0.477804,255.105,0.763485
243.8000,-0.160484,255.097,0.763396
243.7000,0.477086,255.264,0.765415
243.6000,0.763024,255.34,0.766338
243.5000,1.07756,255.202,0.764664
243.4000,1.16898,255.244,0.76517
243.3000,1.19861,255.137,0.763876
243.2000,0.808152,255.358,0.766552
243.1000,0.0355187,255.216,0.764829
243.0000,0.888066,254.999,0.762201
242.9000,0.794487,255.271,0.765504
242.8000,1.50407,255.322,0.766112
242.7000,0.232432,255.098,0.763405
242.6000,0.506033,255.499,0.768254
242.5000,0.2189,255.556,0.768949
242.4000,0.651083,255.476,0.767972
242.3000,1.28126,255.238,0.765096
242.2000,0.0477888,255.171,0.764289
242.1000,1.98866,255.434,0.76747
242.0000,1.43853,255.129,0.763785
241.9000,1.14848,255.402,0.767088
241.8000,1.31536,255.175,0.764335
241.7000,0.12346,255.383,0.766852
241.6000,1.277,255.81,0.772009
241.5000,1.07935,255.586,0.769312
241.4000,0.928317,255.415,0.767246
241.3000,2.03376,255.785,0.771711
241.2000,0.408645,256.165,0.776296
241.1000,0.291625,255.977,0.774033
241.0000,0.844772,255.798,0.771864
240.9000,0.755312,255.777,0.77161
240.8000,2.17335,255.604,0.769521
240.7000,1.55005,255.842,0.7724
240.6000,-0.414501,255.898,0.773078
240.5000,0.751365,255.898,0.773076
240.4000,0.785609,255.722,0.770955
240.3000,0.922249,256.073,0.775182
240.2000,1.02026,256.066,0.775101
240.1000,0.972904,255.919,0.773331
240.0000,1.86371,255.88,0.772862
239.9000,0.565505,255.795,0.771836
239.8000,1.26187,256.453,0.779767
239.7000,-0.0644171,256.492,0.78024
239.6000,1.55611,256.017,0.774515
239.5000,0.449717,256.061,0.775043
239.4000,0.141887,256.476,0.780049
239.3000,1.11488,256.198,0.776697
239.2000,1.05362,256.316,0.778122
239.1000,0.770569,256.563,0.78109
239.0000,1.50933,256.492,0.780237
238.9000,1.32334,256.606,0.781614
238.8000,-0.0949409,256.887,0.785
238.7000,1.78348,256.702,0.782768
238.6000,0.179284,256.79,0.783829
238.5000,0.462412,256.922,0.785419
238.4000,1.6409,257.007,0.786438
238.3000,0.594564,256.792,0.783853
238.2000,0.0769241,256.997,0.786324
238.1000,0.991697,257.08,0.787321
238.0000,0.930988,257.345,0.790505
237.9000,0.900631,257.052,0.786987
237.8000,0.323401,257.188,0.788615
237.7000,1.94586,257.568,0.793187
237.6000,0.365396,257.493,0.792281
237.5000,0.585098,257.199,0.78875
237.4000,1.74903,257.342,0.790471
237.3000,1.64948,257.362,0.790707
237.2000,1.25862,257.332,0.790341
237.1000,0.746771,257.341,0.79046
237.0000,1.19149,257.739,0.795233
236.9000,2.04756,257.505,0.792426
236.8000,0.092891,257.537,0.792805
236.7000,0.421612,257.609,0.793672
236.6000,1.69376,257.747,0.795325
236.5000,1.59118,257.802,0.795987
236.4000,1.55986,258.151,0.800172
236.3000,0.703334,257.859,0.796677
236.2000,0.60756,257.617,0.793769
236.1000,0.110017,257.963,0.797922
236.0000,0.92717,257.883,0.796964
235.9000,1.5819,257.973,0.798036
235.8000,-0.033745,258.188,0.80062
235.7000,0.647369,258.002,0.798391
235.6000,1.4183,258.185,0.800585
235.5000,1.80202,258.544,0.80488
235.4000,1.33348,258.198,0.800744
235.3000,0.503602,258.386,0.802994
235.2000,1.5766,258.17,0.800401
235.1000,0.533962,258.269,0.801591
235.0000,0.155324,258.349,0.802551
234.9000,0.627007,258.445,0.8037
234.8000,0.828221,258.588,0.805405
234.7000,0.698175,258.714,0.806914
234.6000,1.11695,258.816,0.808137
234.5000,0.705869,259.178,0.812459
234.4000,0.769925,259.061,0.811064
234.3000,1.92355,258.771,0.807605
234.2000,-0.176754,258.918,0.809355
234.1000,1.2181,259.182,0.812508
234.0000,0.1817,259.297,0.81389
233.9000,0.348098,259.269,0.813546
233.8000,1.35334,259.362,0.814659
233.7000,1.04773,259.402,0.815139
233.6000,1.89206,259.399,0.815102
233.5000,0.852411,259.69,0.818575
233.4000,1.84203,259.798,0.819869
233.3000,0.653997,259.795,0.819823
233.2000,1.62255,259.762,0.819433
233.1000,1.85781,259.773,0.819568
233.0000,0.509241,259.982,0.822058
232.9000,1.21769,259.933,0.821474
232.8000,1.54185,260.036,0.822694
232.7000,0.860762,259.571,0.817158
232.6000,0.745099,259.838,0.820334
232.5000,2.30168,260.129,0.823806
232.4000,1.37573,260.247,0.825214
232.3000,1.19214,260.187,0.824496
232.2000,2.71474,260.325,0.826143
232.1000,1.45753,260.33,0.826202
232.0000,0.540392,260.314,0.82601
231.9000,0.656,260.777,0.831513
231.8000,0.831394,260.556,0.828888
231.7000,1.59081,260.673,0.830284
231.6000,1.33043,260.619,0.829641
231.5000,1.25819,261.136,0.835784
231.4000,2.12804,260.936,0.8334
231.3000,1.56302,260.613,0.829563
231.2000,0.589088,260.636,0.829841
231.1000,1.33789,260.813,0.831939
231.0000,2.38456,260.819,0.832016
230.9000,0.88524,260.963,0.833726
230.8000,1.52591,261.011,0.8343
230.7000,2.23676,261.029,0.834513
230.6000,0.816507,261.167,0.836146
230.5000,0.944287,261.16,0.836064
230.4000,0.810587,261.147,0.835916
230.3000,1.50865,261.141,0.835842
230.2000,1.35318,261.173,0.836225
230.1000,2.21653,260.912,0.83312
230.0000,0.566176,260.628,0.82975
229.9000,0.515271,260.885,0.832802
229.8000,0.187833,261.136,0.835778
229.7000,1.1978,261.169,0.83617
229.6000,0.718909,261.127,0.835677
229.5000,1.8012,260.87,0.832626
229.4000,1.87496,260.928,0.833309
229.3000,0.658479,261.494,0.840026
229.2000,1.15603,261.302,0.837753
229.1000,1.69726,261.378,0.838647
229.0000,1.21123,261.65,0.841876
228.9000,1.33645,261.705,0.842532
228.8000,0.0656393,261.886,0.844673
228.7000,1.68522,261.893,0.844761
228.6000,2.42522,262.04,0.846498
228.5000,0.451904,261.927,0.845155
228.4000,0.953236,261.953,0.845472
228.3000,1.59703,262.497,0.851901
228.2000,-0.646589,262.538,0.85239
228.1000,2.29416,262.327,0.849888
228.0000,1.32889,262.637,0.853561
227.9000,1.58664,262.488,0.851801
227.8000,1.7625,263.125,0.859315
227.7000,0.597709,263.03,0.8582
227.6000,1.66763,263.363,0.862126
227.5000,0.361123,263.21,0.860326
227.4000,0.822967,263.19,0.860088
227.3000,1.51546,263.035,0.85825
227.2000,0.661154,263.5,0.863737
227.1000,0.647829,263.498,0.863712
227.0000,1.28167,263.704,0.866137
226.9000,1.92319,263.707,0.866181
226.8000,0.630617,263.583,0.864721
226.7000,2.42791,263.516,0.863928
226.6000,1.48212,263.704,0.866146
226.5000,1.19986,263.756,0.866758
226.4000,0.945406,263.984,0.869436
226.3000,1.63659,263.962,0.869173
226.2000,0.0730802,264.096,0.870752
226.1000,0.111962,263.793,0.867191
226.0000,1.96482,264.218,0.872191
225.9000,0.535239,264.126,0.871104
225.8000,0.999165,264.221,0.87222
225.7000,1.6251,264.316,0.873344
225.6000,2.00655,264.476,0.875221
225.5000,0.445908,264.393,0.874252
225.4000,1.06438,264.555,0.876145
225.3000,1.27808,264.617,0.876877
225.2000,0.735914,264.773,0.878714
225.1000,1.60686,264.831,0.879394
225.0000,2.8439,265.251,0.88432
224.9000,1.16386,264.781,0.878802
224.8000,0.334025,265.147,0.883093
224.7000,1.53534,265.364,0.885639
224.6000,1.01956,265.017,0.881569
224.5000,2.07291,265.098,0.882517
224.4000,1.14112,265.412,0.886197
224.3000,0.703423,265.279,0.88464
224.2000,1.90779,265.493,0.887154
224.1000,2.42873,265.61,0.888515
224.0000,2.2312,265.532,0.887605
223.9000,0.819465,265.582,0.888192
223.8000,0.412694,265.77,0.890393
223.7000,1.13856,265.747,0.890123
223.6000,0.424763,265.787,0.89059
223.5000,1.74816,265.787,0.890588
223.4000,0.644889,266.15,0.89483
223.3000,1.12299,266.075,0.893962
223.2000,1.35524,266.033,0.893465
223.1000,1.18549,266.644,0.900603
223.0000,1.40502,266.341,0.89707
222.9000,2.17467,266.5,0.898923
222.8000,1.3915,266.223,0.895687
222.7000,0.589725,266.476,0.898639
222.6000,-0.256545,266.728,0.901584
222.5000,2.25452,266.482,0.898713
222.4000,1.19329,266.567,0.899709
222.3000,1.65764,266.715,0.901436
222.2000,1.38713,266.922,0.90384
222.1000,0.317522,266.81,0.902539
222.0000,1.03866,267.067,0.905539
221.9000,1.63065,266.981,0.904535
221.8000,0.584641,266.824,0.902699
221.7000,0.8137,267.055,0.905393
221.6000,1.22071,267.137,0.906349
221.5000,1.52003,267.39,0.909298
221.4000,1.46982,267.454,0.91004
221.3000,1.27927,267.346,0.908785
221.2000,0.83375,267.23,0.907436
221.1000,0.806484,267.585,0.911563
221.0000,2.61794,267.467,0.910195
220.9000,2.06377,267.356,0.908897
220.8000,1.52527,267.551,0.911167
220.7000,2.77622,267.477,0.91031
220.6000,2.76402,267.571,0.911406
220.5000,0.552154,267.983,0.91619
220.4000,2.24163,267.731,0.913263
220.3000,1.64299,267.999,0.916384
220.2000,2.51594,267.934,0.915628
220.1000,1.21371,267.925,0.91552
220.0000,0.568578,268.287,0.919724
219.9000,1.4039,267.891,0.915118
219.8000,1.71897,267.785,0.913897
219.7000,1.79666,268.566,0.922955
219.6000,2.31717,268.151,0.918139
219.5000,1.30856,267.946,0.915765
219.4000,0.735115,268.44,0.921501
219.3000,1.33034,267.908,0.915324
219.2000,1.13144,268.478,0.921938
219.1000,2.75047,268.559,0.922881
219.0000,0.952532,268.863,0.926405
218.9000,1.73304,268.509,0.922303
218.8000,0.0864499,268.622,0.923606
218.7000,0.297002,268.371,0.920699
218.6000,1.95494,268.879,0.926585
218.5000,1.0161,268.82,0.925908
218.4000,0.659856,268.997,0.927954
218.3000,2.41972,268.76,0.925215
218.2000,1.77375,268.929,0.927163
218.1000,1.60282,268.837,0.926103
218.0000,0.83736,268.924,0.927104
217.9000,0.815826,269.239,0.930763
217.8000,0.995904,269.457,0.933278
217.7000,1.44646,268.946,0.92737
217.6000,0.950577,269.266,0.931065
217.5000,-0.254155,269.513,0.933929
217.4000,1.13949,269.352,0.932061
217.3000,1.36678,269.102,0.929166
217.2000,1.39309,269.236,0.930717
217.1000,2.73327,269.711,0.936218
217.0000,2.01958,270.021,0.939801
216.9000,1.88912,270.017,0.939748
216.8000,0.267103,270.251,0.942452
216.7000,1.74112,269.972,0.939233
216.6000,0.57042,270.053,0.940162
216.5000,2.2071,269.951,0.938991
216.4000,1.37333,270.395,0.944109
216.3000,1.90496,270.077,0.940443
216.2000,1.6422,270.482,0.945113
216.1000,1.70009,270,0.939555
216.0000,1.25797,270.173,0.941549
215.9000,2.68684,270.35,0.943598
215.8000,1.93979,270.523,0.945592
215.7000,0.932597,270.49,0.945213
215.6000,0.509513,270.494,0.945255
215.5000,1.28534,270.622,0.946731
215.4000,0.858367,270.538,0.945763
215.3000,1.63542,270.559,0.946
215.2000,1.71679,270.693,0.947549
215.1000,0.588786,271.036,0.951493
215.0000,2.04096,270.934,0.950326
214.9000,1.72458,270.688,0.947489
214.8000,1.53184,270.946,0.950461
214.7000,3.16803,271.04,0.951544
214.6000,0.262863,271.181,0.95317
214.5000,2.83094,271.482,0.956633
214.4000,1.19882,271.355,0.955174
214.3000,1.27932,270.942,0.950415
214.2000,1.58017,271.277,0.954268
214.1000,1.17802,271.525,0.95712
214.0000,1.95198,271.66,0.958679
213.9000,0.626332,271.455,0.956315
213.8000,1.29626,271.37,0.95534
213.7000,1.43819,271.765,0.959884
213.6000,0.268918,271.636,0.958397
213.5000,1.85561,271.83,0.960629
213.4000,1.71416,271.81,0.960393
213.3000,1.39252,271.619,0.958203
213.2000,1.26366,271.75,0.959705
213.1000,1.70065,271.727,0.959445
213.0000,1.47672,271.583,0.957794
212.9000,1.89287,271.855,0.960919
212.8000,0.970519,271.988,0.96244
212.7000,1.23882,272.112,0.963867
212.6000,1.28596,272.33,0.966366
212.5000,1.98828,272.098,0.963706
212.4000,1.63728,272.103,0.96376
212.3000,1.0144,272.193,0.964792
212.2000,0.451924,272.295,0.965963
212.1000,2.0721,272.412,0.967304
212.0000,1.79648,272.454,0.967783
211.9000,0.615717,272.591,0.969355
211.8000,3.41054,272.871,0.972557
211.7000,0.224806,272.567,0.969076
211.6000,2.83062,272.478,0.968064
211.5000,0.912238,272.878,0.972641
211.4000,1.0266,272.861,0.972442
211.3000,1.9752,273.023,0.974294
211.2000,1.17939,273.143,0.975671
211.1000,1.6211,273.037,0.974463
211.0000,0.727173,272.921,0.973129
210.9000,1.48619,273.217,0.976522
210.8000,2.38895,273.373,0.978304
210.7000,-0.476574,273.444,0.979115
210.6000,2.0857,273.514,0.979914
210.5000,1.33837,273.599,0.980883
210.4000,1.63118,273.563,0.980476
210.3000,2.40803,273.559,0.980424
210.2000,2.43554,273.337,0.977888
210.1000,0.842702,273.816,0.983364
210.0000,3.88183,273.544,0.980257
209.9000,1.54238,274.192,0.987655
209.8000,2.09505,273.857,0.983825
209.7000,1.09524,274.013,0.985604
209.6000,2.43286,274.28,0.988654
209.5000,2.28324,274.416,0.990202
209.4000,2.13198,274.247,0.98828
209.3000,2.04026,274.629,0.992629
209.2000,2.44726,274.7,0.993435
209.1000,2.916,275.095,0.997926
209.0000,3.68275,274.994,0.996782
208.9000,1.90932,274.854,0.995191
208.8000,1.82736,275.21,0.999236
208.7000,2.04997,275.082,0.997787
208.6000,2.09211,275.133,0.998367
208.5000,1.41998,275.06,0.997538
208.4000,1.72651,275.078,0.997742
208.3000,2.04506,275.483,1.00234
208.2000,1.94075,275.164,0.998718
208.1000,2.18823,275.376,1.00113
208.0000,2.14217,275.528,1.00285
207.9000,1.17143,275.826,1.00623
207.8000,1.4397,275.742,1.00528
207.7000,1.95815,275.955,1.0077
207.6000,1.03853,276.107,1.00942
207.5000,2.09481,276.263,1.01118
207.4000,1.51742,276.091,1.00924
207.3000,2.06484,276.124,1.00961
207.2000,1.63952,276.464,1.01346
207.1000,2.71452,276.554,1.01448
207.0000,1.53375,276.408,1.01283
206.9000,0.580705,276.246,1.011
206.8000,1.52734,276.557,1.01451
206.7000,-0.178605,276.785,1.01709
206.6000,3.21184,276.442,1.01321
206.5000,1.71516,276.617,1.0152
206.4000,3.1844,276.98,1.0193
206.3000,1.4251,277.137,1.02107
206.2000,2.17223,277.454,1.02465
206.1000,2.48577,277.095,1.0206
206.0000,1.41506,277.437,1.02447
205.9000,1.94927,277.593,1.02622
205.8000,1.94556,277.456,1.02467
205.7000,1.41641,277.773,1.02825
205.6000,1.04517,278.122,1.03218
205.5000,2.75306,278.093,1.03186
205.4000,1.53923,278.094,1.03187
205.3000,2.57586,278.039,1.03125
205.2000,2.46905,278.219,1.03328
205.1000,1.00496,278.733,1.03907
205.0000,1.35343,278.949,1.04149
204.9000,2.85958,278.982,1.04186
204.8000,2.42829,278.882,1.04074
204.7000,2.69151,279.244,1.04481
204.6000,1.23493,279.378,1.04631
204.5000,0.927256,279.673,1.04962
204.4000,1.66011,279.624,1.04908
204.3000,2.32355,279.587,1.04866
204.2000,2.42258,279.761,1.05061
204.1000,1.15828,279.821,1.05128
204.0000,2.16891,280.123,1.05466
203.9000,2.00137,280.293,1.05656
203.8000,3.88128,280.541,1.05935
203.7000,1.82673,280.597,1.05996
203.6000,2.22531,280.667,1.06076
203.5000,2.76537,280.747,1.06164
203.4000,2.52041,280.969,1.06412
203.3000,2.39203,280.854,1.06284
203.2000,0.116069,281.055,1.06508
203.1000,1.01381,281.42,1.06916
203.0000,1.85603,281.216,1.06688
202.9000,1.64735,281.256,1.06733
202.8000,4.15767,281.762,1.07297
202.7000,1.22593,281.581,1.07096
202.6000,0.884948,281.775,1.07312
202.5000,2.95228,282.053,1.07621
202.4000,0.908468,282.273,1.07867
202.3000,0.713659,282.533,1.08156
202.2000,2.70398,282.572,1.08199
202.1000,0.65998,282.769,1.08419
202.0000,2.36967,283.064,1.08745
201.9000,1.38159,282.998,1.08672
201.8000,1.80772,283.025,1.08702
201.7000,1.09996,283.387,1.09104
201.6000,1.02761,283.612,1.09354
201.5000,1.60587,283.996,1.09779
201.4000,1.69892,283.935,1.09711
201.3000,1.88719,284.262,1.10073
201.2000,1.4061,284.232,1.10041
201.1000,2.32567,284.375,1.10199
201.0000,2.54552,284.678,1.10534
200.9000,1.15222,284.738,1.106
200.8000,1.14124,284.939,1.10822
200.7000,2.6733,285.021,1.10912
200.6000,3.12906,284.965,1.10851
200.5000,2.12063,285.554,1.115
200.4000,2.25845,285.397,1.11327
200.3000,3.58066,285.748,1.11714
200.2000,3.10244,285.966,1.11953
200.1000,0.0836701,286.034,1.12028
200.0000,2.49373,286.069,1.12068
199.9000,2.04276,286.315,1.12338
199.8000,1.30327,286.243,1.12258
199.7000,2.50523,286.648,1.12704
199.6000,4.09355,286.804,1.12875
199.5000,1.68683,287.012,1.13104
199.4000,3.35404,286.892,1.12971
199.3000,3.1729,286.993,1.13083
199.2000,3.41562,287.318,1.13439
199.1000,2.12024,287.236,1.13349
199.0000,4.1364,287.747,1.1391
198.9000,2.84981,287.71,1.13869
198.8000,2.27272,287.853,1.14025
198.7000,1.33184,287.967,1.1415
198.6000,2.41571,288.104,1.143
198.5000,5.17168,288.196,1.14401
198.4000,2.73027,288.704,1.14957
198.3000,2.60603,288.485,1.14716
198.2000,1.30581,288.813,1.15075
198.1000,2.4457,288.744,1.15
198.0000,1.21362,289.272,1.15576
197.9000,1.84338,289.501,1.15825
197.8000,1.05982,289.118,1.15408
197.7000,0.889522,289.428,1.15746
197.6000,1.48842,289.869,1.16227
197.5000,0.957241,290.034,1.16406
197.4000,0.300132,289.923,1.16285
197.3000,3.00349,290.298,1.16693
197.2000,1.13702,290.27,1.16663
197.1000,2.32047,290.384,1.16787
197.0000,1.61786,290.555,1.16973
196.9000,2.50295,291.04,1.17499
196.8000,0.757198,291.229,1.17704
196.7000,1.58771,291.523,1.18022
196.6000,3.79115,291.499,1.17996
196.5000,1.62387,292.076,1.18622
196.4000,3.45663,291.99,1.18528
196.3000,2.94897,292.189,1.18743
196.2000,-0.0741107,292.448,1.19023
196.1000,1.69247,292.383,1.18953
196.0000,1.54455,293.214,1.19849
195.9000,2.02074,293.383,1.20032
195.8000,2.4497,293.674,1.20345
195.7000,2.40219,294.115,1.2082
195.6000,1.38097,293.782,1.20462
195.5000,1.60028,294.425,1.21153
195.4000,3.30507,295.158,1.2194
195.3000,1.42529,294.826,1.21584
195.2000,1.18499,295.049,1.21824
195.1000,2.50201,295.289,1.2208
195.0000,4.39626,295.588,1.22401
194.9000,2.5487,295.935,1.22772
194.8000,1.31382,295.888,1.22722
194.7000,2.84078,296.001,1.22843
194.6000,1.81843,296.386,1.23254
194.5000,2.3581,296.651,1.23538
194.4000,1.09304,297.356,1.24289
194.3000,2.3729,297.753,1.24712
194.2000,1.83079,298.388,1.25387
194.1000,3.12047,298.571,1.25582
194.0000,2.35553,299.412,1.26474
193.9000,2.38328,300.058,1.27158
193.8000,2.40924,300.422,1.27543
193.7000,3.16532,301.222,1.28387
193.6000,2.70283,301.755,1.28949
193.5000,3.43857,301.853,1.29052
193.4000,0.844142,302.527,1.2976
193.3000,1.45967,303.149,1.30413
193.2000,2.93485,303.159,1.30424
193.1000,2.97649,304.254,1.3157
193.0000,1.87312,305.005,1.32355
192.9000,3.02626,305.533,1.32905
192.8000,2.88863,305.733,1.33114
192.7000,2.4625,306.573,1.33987
192.6000,1.34589,307.478,1.34926
192.5000,0.383247,308.287,1.35763
192.4000,1.68223,308.844,1.36339
192.3000,1.06251,309.596,1.37114
192.2000,2.52778,310.076,1.37609
192.1000,3.75967,310.616,1.38164
192.0000,1.77069,311.279,1.38845
191.9000,0.491628,312.161,1.39749
191.8000,0.169316,312.913,1.40517
191.7000,1.01588,313.677,1.41296
191.6000,3.04603,314.557,1.42193
191.5000,1.47188,315.326,1.42974
191.4000,1.10904,316.466,1.44129
191.3000,2.50332,317.685,1.4536
191.2000,1.84666,318.996,1.4668
191.1000,2.8492,320.54,1.48228
191.0000,1.88402,321.498,1.49186
190.9000,0.38365,323.219,1.50901
190.8000,1.23855,324.823,1.52491
190.7000,4.62405,325.533,1.53193
190.6000,2.57159,327.172,1.5481
190.5000,2.9855,328.751,1.5636
190.4000,1.86571,330.112,1.57692
190.3000,0.870582,330.759,1.58324
190.2000,4.30176,332.483,1.60001
190.1000,1.7515,333.188,1.60685
190.0000,3.31476,334.436,1.61892

##### Extended Information
[Comments]
Sample name,class
Comment
User
Division
Company,Saint Mary's College

[Detailed Information]
Creation date,9/29/2021 3:57 PM

Data array type,Linear data array * 3
Horizontal axis,Wavelength [nm]
Vertical axis(1),CD [mdeg]
Vertical axis(2),HT [V]
Vertical axis(3),Abs
Start,290 nm
End,190 nm
Data interval,0.1 nm
Data points,1001    

[Measurement Information]
Instrument name,J-1500
Model name,J-1500
Serial No.,B051061638

Detector,PM-539
Detector S/N,B051061638
  Lock-in amp.,X mode
  HT volt,Auto

Accessory,PTC-517
Accessory S/N,B026561646
  Temperature,22.58 C
  Control sensor,Holder
  Monitor sensor,Holder

Measurement date,9/29/2021 3:57 PM

CD Overload detect,869
Photometric mode,CD, HT, Abs
Measure range,290 - 190 nm
Data pitch,0.1 nm
CD scale,20 mdeg/0.05 dOD
FL scale,20 mdeg/0.05 dOD
D.I.T.,64 msec
Bandwidth,1.00 nm
Start mode,Immediately
Scanning mode,Continuous
Scanning speed,50 nm/min
Baseline correction,None
Shutter control,Auto
No. of cycle,1/1
N2 Flowmeter,Manual


