TITLE,class
DATA TYPE,
ORIGIN,JASCO
OWNER,
DATE,21/09/29
TIME,16:27:55
SPECTROMETER/DATA SYSTEM,
LOCALE,1033
RESOLUTION,
DELTAX,-0.1
XUNITS,NANOMETERS
YUNITS,CD [mdeg]
Y2UNITS,HT [V]
Y3UNITS,ABSORBANCE
FIRSTX,  290.0000
LASTX,  190.0000
NPOINTS,    1001
FIRSTY,     1.39498
MAXY,    12.47322
MINY,    -4.19984
XYDATA
290.0000,1.39498,252.658,0.73376
289.9000,1.45128,252.745,0.73481
289.8000,2.33562,252.846,0.736045
289.7000,1.51807,252.728,0.734612
289.6000,0.788805,252.489,0.731696
289.5000,2.13595,252.366,0.730185
289.4000,1.87332,252.69,0.734149
289.3000,2.05939,252.632,0.733435
289.2000,1.22927,252.554,0.732491
289.1000,2.10206,252.788,0.735336
289.0000,1.21712,252.743,0.734793
288.9000,1.09567,252.64,0.733537
288.8000,1.50088,252.779,0.735233
288.7000,1.2283,252.566,0.732633
288.6000,1.41394,252.608,0.733141
288.5000,1.32703,252.266,0.728974
288.4000,1.15179,252.371,0.730249
288.3000,0.305376,252.739,0.73474
288.2000,1.36468,252.277,0.729105
288.1000,1.75977,252.757,0.734966
288.0000,1.04488,252.531,0.73221
287.9000,1.243,252.457,0.731307
287.8000,2.03333,252.552,0.732457
287.7000,1.95547,252.771,0.735132
287.6000,1.65678,252.576,0.732754
287.5000,2.39702,252.466,0.731413
287.4000,0.741465,252.258,0.728868
287.3000,1.30475,252.5,0.731822
287.2000,1.82291,252.404,0.730658
287.1000,1.55708,252.328,0.729723
287.0000,0.950198,252.316,0.729579
286.9000,1.55452,252.619,0.733274
286.8000,1.33566,252.427,0.730935
286.7000,1.52739,252.445,0.731158
286.6000,1.53051,252.166,0.727742
286.5000,1.4977,252.437,0.731056
286.4000,1.38236,252.423,0.730887
286.3000,1.29331,252.262,0.728925
286.2000,1.3101,252.206,0.728231
286.1000,2.07324,252.069,0.726559
286.0000,1.10248,252.438,0.731065
285.9000,0.943544,252.522,0.732095
285.8000,1.90625,252.214,0.728332
285.7000,1.21047,252.207,0.728247
285.6000,1.77469,252.413,0.730769
285.5000,2.0058,252.131,0.727314
285.4000,2.13739,252.473,0.731503
285.3000,1.39565,251.977,0.725437
285.2000,1.68589,252.003,0.725751
285.1000,1.11684,252.325,0.729685
285.0000,1.60303,252.091,0.726828
284.9000,2.96418,252.186,0.727991
284.8000,1.33904,252.133,0.727345
284.7000,1.3625,252.275,0.729072
284.6000,2.2632,252.12,0.727188
284.5000,1.09056,252.389,0.730465
284.4000,2.29601,252.193,0.728072
284.3000,0.812101,252.17,0.727797
284.2000,0.69561,252.185,0.727975
284.1000,1.54275,252.065,0.726518
284.0000,1.72163,252.278,0.729116
283.9000,1.43703,252.042,0.726237
283.8000,1.58405,251.902,0.724524
283.7000,0.745822,251.945,0.725051
283.6000,2.03169,252.156,0.727627
283.5000,0.722623,251.979,0.725456
283.4000,1.57029,251.693,0.721963
283.3000,2.24308,251.935,0.724923
283.2000,1.37075,252.029,0.726076
283.1000,1.23415,252.124,0.727231
283.0000,0.970688,252.049,0.726319
282.9000,2.1531,252.054,0.726374
282.8000,1.6171,251.886,0.724322
282.7000,1.77081,252.044,0.726254
282.6000,1.83504,252,0.725723
282.5000,1.1817,251.941,0.724997
282.4000,1.49644,252.109,0.727054
282.3000,1.20956,251.804,0.723324
282.2000,0.962454,251.868,0.724105
282.1000,0.880881,251.911,0.724628
282.0000,2.12417,251.789,0.723131
281.9000,0.299941,251.795,0.723208
281.8000,0.735431,251.997,0.725683
281.7000,1.68775,251.854,0.72393
281.6000,1.29245,251.896,0.724447
281.5000,0.549518,251.906,0.724569
281.4000,1.51304,251.732,0.722445
281.3000,2.43124,251.767,0.722865
281.2000,1.74207,251.798,0.723247
281.1000,1.31795,251.699,0.722039
281.0000,0.431864,252.042,0.726237
280.9000,1.65997,251.935,0.724919
280.8000,1.0256,251.86,0.724011
280.7000,1.9991,251.657,0.721524
280.6000,0.885473,251.606,0.7209
280.5000,1.66293,251.654,0.721485
280.4000,1.11199,251.541,0.720106
280.3000,1.09445,251.647,0.721405
280.2000,0.978597,251.799,0.72326
280.1000,1.84336,251.604,0.720876
280.0000,1.03544,251.771,0.72292
279.9000,0.665498,251.925,0.724796
279.8000,-0.14424,251.63,0.721186
279.7000,1.17625,251.406,0.718451
279.6000,1.65648,251.772,0.722925
279.5000,0.859875,251.646,0.721386
279.4000,1.1206,251.522,0.71987
279.3000,1.4707,251.686,0.721871
279.2000,1.46408,251.478,0.719334
279.1000,2.41985,251.521,0.719858
279.0000,1.67569,251.214,0.716091
278.9000,0.528818,251.453,0.719018
278.8000,-0.0132002,251.489,0.719468
278.7000,0.467084,251.95,0.725108
278.6000,1.01817,251.524,0.719891
278.5000,0.966191,251.642,0.721342
278.4000,1.82173,251.466,0.719182
278.3000,2.45269,251.321,0.717407
278.2000,1.96381,251.726,0.72236
278.1000,1.82247,251.56,0.720335
278.0000,1.2924,251.72,0.722289
277.9000,1.21934,251.469,0.719222
277.8000,0.316073,251.682,0.721823
277.7000,1.08995,251.158,0.715412
277.6000,1.12071,251.602,0.720854
277.5000,1.13569,251.38,0.718127
277.4000,1.14473,251.288,0.717
277.3000,0.777097,251.585,0.720639
277.2000,1.43942,251.601,0.720833
277.1000,0.828073,251.215,0.71611
277.0000,0.872201,251.51,0.719719
276.9000,0.693856,251.21,0.716042
276.8000,1.5194,251.448,0.718958
276.7000,1.64434,251.512,0.719749
276.6000,1.34933,251.312,0.717295
276.5000,0.721197,251.359,0.717867
276.4000,1.28922,251.351,0.71778
276.3000,0.535098,251.279,0.716888
276.2000,0.369302,251.518,0.71982
276.1000,0.359517,251.377,0.718087
276.0000,1.47168,251.522,0.719863
275.9000,0.631879,251.285,0.716969
275.8000,2.15347,251.324,0.717447
275.7000,0.936301,251.308,0.717252
275.6000,1.04904,251.293,0.717066
275.5000,1.66721,251.212,0.716065
275.4000,0.520951,251.325,0.717454
275.3000,0.317082,251.371,0.718023
275.2000,1.83798,251.263,0.7167
275.1000,0.991132,251.22,0.716174
275.0000,1.14119,251.419,0.718604
274.9000,0.244956,251.215,0.716106
274.8000,1.14764,251.24,0.716419
274.7000,0.779512,251.111,0.714826
274.6000,1.34195,251.21,0.716047
274.5000,1.86863,251.375,0.718071
274.4000,1.28479,251.065,0.714269
274.3000,0.283945,251.153,0.715346
274.2000,1.13638,251.115,0.714884
274.1000,1.57388,251.155,0.71537
274.0000,0.836163,250.9,0.712245
273.9000,0.793062,250.835,0.711445
273.8000,1.27854,251.028,0.713809
273.7000,1.95802,251.265,0.716725
273.6000,1.88999,250.882,0.712024
273.5000,1.49334,251.148,0.71529
273.4000,1.38657,251.113,0.714853
273.3000,0.13679,250.834,0.711437
273.2000,1.24612,251.215,0.716108
273.1000,1.608,251.09,0.714571
273.0000,-0.499694,251.198,0.715903
272.9000,1.5871,250.958,0.712952
272.8000,0.841582,250.929,0.712599
272.7000,2.05357,251.239,0.716407
272.6000,1.15676,251.311,0.717278
272.5000,0.600571,251.133,0.715108
272.4000,1.18324,251.125,0.715
272.3000,1.48196,251.171,0.71557
272.2000,-0.128643,251.004,0.713518
272.1000,1.04377,250.785,0.710833
272.0000,-0.0305748,251.174,0.715603
271.9000,1.23996,251.167,0.715514
271.8000,0.118004,250.799,0.711002
271.7000,1.66081,251.168,0.715537
271.6000,0.952615,250.719,0.710016
271.5000,-0.0997082,250.944,0.712785
271.4000,1.57691,251.083,0.714493
271.3000,0.631237,250.898,0.712217
271.2000,1.00045,251.024,0.71376
271.1000,1.56258,251.183,0.715719
271.0000,0.821283,251.01,0.713591
270.9000,0.633881,251.199,0.715912
270.8000,0.252674,251.169,0.715539
270.7000,0.610254,251.215,0.716113
270.6000,0.832318,251.01,0.713591
270.5000,0.452478,250.973,0.713135
270.4000,1.07081,251.038,0.713941
270.3000,0.347891,251.019,0.713701
270.2000,1.15415,251.04,0.713958
270.1000,1.22788,250.915,0.712427
270.0000,0.246464,251.168,0.715535
269.9000,1.44647,251.211,0.716059
269.8000,0.456024,250.883,0.712035
269.7000,2.28848,251.067,0.714299
269.6000,0.715819,251.143,0.715224
269.5000,2.07617,250.993,0.713381
269.4000,1.17324,250.982,0.713251
269.3000,1.18174,250.809,0.711132
269.2000,0.217128,250.988,0.713324
269.1000,1.04592,250.99,0.713352
269.0000,0.688181,251.213,0.716082
268.9000,0.368333,250.891,0.712135
268.8000,1.05448,250.898,0.712217
268.7000,1.83243,251.3,0.717155
268.6000,0.572618,251.054,0.71413
268.5000,1.49194,251.082,0.714481
268.4000,1.45559,251.068,0.714307
268.3000,0.800221,251.062,0.714233
268.2000,0.350017,251.027,0.713805
268.1000,1.42826,251.011,0.713609
268.0000,0.874804,251.242,0.716441
267.9000,0.709415,251.128,0.715037
267.8000,1.3738,251.251,0.716546
267.7000,1.16311,251.351,0.717771
267.6000,1.5505,251.647,0.7214
267.5000,1.9591,251.124,0.714988
267.4000,1.01803,250.905,0.712311
267.3000,0.744741,251.147,0.715268
267.2000,0.811722,251.363,0.717919
267.1000,0.644961,251.239,0.716398
267.0000,1.20551,251.206,0.715993
266.9000,1.00616,251.196,0.715874
266.8000,1.0107,251.236,0.716365
266.7000,1.61843,251.286,0.716979
266.6000,1.5199,251.075,0.714394
266.5000,1.80409,251.009,0.713584
266.4000,1.22371,251.334,0.717571
266.3000,1.14834,251.152,0.715334
266.2000,0.552162,251.42,0.718616
266.1000,0.670188,251.328,0.71749
266.0000,0.681813,251.358,0.717863
265.9000,2.12481,251.6,0.720822
265.8000,1.75214,251.202,0.715952
265.7000,0.448768,251.1,0.714693
265.6000,0.645618,251.34,0.717643
265.5000,1.07018,251.406,0.718448
265.4000,0.364452,251.661,0.721566
265.3000,0.977628,251.292,0.717052
265.2000,1.192,251.764,0.722826
265.1000,1.1972,251.466,0.719178
265.0000,1.66332,251.56,0.720335
264.9000,0.453851,251.384,0.718182
264.8000,1.00276,251.522,0.719874
264.7000,0.597048,251.658,0.721535
264.6000,0.970729,251.484,0.719404
264.5000,0.658328,251.63,0.721186
264.4000,0.96962,251.699,0.722031
264.3000,1.28468,251.459,0.719102
264.2000,0.552371,251.258,0.716634
264.1000,1.50827,251.63,0.72119
264.0000,0.866689,251.582,0.720602
263.9000,1.34934,251.476,0.719303
263.8000,1.06203,251.522,0.719867
263.7000,1.03216,251.551,0.720219
263.6000,0.904386,251.783,0.723064
263.5000,0.166099,251.492,0.719497
263.4000,1.30617,251.732,0.722435
263.3000,1.65686,251.677,0.721762
263.2000,1.33763,251.74,0.722542
263.1000,0.318363,251.81,0.723391
263.0000,1.0435,251.561,0.72034
262.9000,1.94114,251.78,0.723027
262.8000,0.359252,251.662,0.721587
262.7000,-0.086738,251.722,0.72232
262.6000,1.06879,252.093,0.72686
262.5000,0.527193,252.123,0.727217
262.4000,0.879376,252.05,0.726329
262.3000,0.88479,252.171,0.727807
262.2000,0.719762,252.258,0.728877
262.1000,0.964152,252.214,0.728334
262.0000,0.387126,252.043,0.726249
261.9000,1.13841,251.872,0.72415
261.8000,0.882185,252.065,0.726511
261.7000,0.756576,252.17,0.72779
261.6000,0.252875,252.086,0.726774
261.5000,-0.0914261,252.151,0.72756
261.4000,0.597933,252.417,0.730807
261.3000,0.443752,252.045,0.726272
261.2000,0.845141,252.029,0.726076
261.1000,0.763209,252.134,0.727357
261.0000,0.964527,252.577,0.732771
260.9000,1.00683,252.27,0.729015
260.8000,1.31016,252.083,0.726738
260.7000,0.397253,252.155,0.72761
260.6000,0.236668,252.232,0.728551
260.5000,1.336,252.093,0.726857
260.4000,1.51623,252.19,0.728043
260.3000,0.156073,252.154,0.7276
260.2000,0.648146,252.301,0.729401
260.1000,0.434664,252.491,0.731712
260.0000,1.04033,252.3,0.729389
259.9000,-0.258241,252.719,0.734493
259.8000,0.508555,252.46,0.73134
259.7000,0.963677,252.532,0.732213
259.6000,0.198971,252.563,0.732595
259.5000,1.21035,252.717,0.734472
259.4000,1.36735,252.294,0.729313
259.3000,-0.378788,252.609,0.733155
259.2000,0.689553,252.701,0.734273
259.1000,0.853304,252.428,0.730949
259.0000,0.387101,252.497,0.731786
258.9000,0.68012,252.695,0.7342
258.8000,1.45315,252.657,0.733746
258.7000,0.910253,252.499,0.731819
258.6000,0.012805,252.805,0.735546
258.5000,0.581147,252.921,0.736962
258.4000,0.752411,253.064,0.738702
258.3000,0.995199,252.948,0.737292
258.2000,1.72641,252.814,0.735655
258.1000,0.0285748,252.843,0.736014
258.0000,0.397868,253.142,0.739658
257.9000,0.434994,252.796,0.735434
257.8000,0.329888,253.204,0.740405
257.7000,1.54802,253.022,0.738188
257.6000,1.71325,252.925,0.737011
257.5000,0.511687,253.141,0.739643
257.4000,-0.601126,253.068,0.738756
257.3000,0.382467,253.162,0.739896
257.2000,0.56701,253.099,0.739125
257.1000,-0.344554,253.072,0.738801
257.0000,1.20473,253.129,0.739499
256.9000,0.605822,253.187,0.740203
256.8000,0.981156,253.067,0.73874
256.7000,0.417357,253.374,0.742476
256.6000,-0.0448523,253.395,0.742736
256.5000,0.245367,253.194,0.740288
256.4000,0.13587,253.344,0.742114
256.3000,0.962096,253.247,0.740938
256.2000,-0.195389,253.35,0.742185
256.1000,-0.336888,253.354,0.742233
256.0000,1.69496,253.619,0.745466
255.9000,0.590126,253.308,0.741676
255.8000,0.0507658,253.221,0.740617
255.7000,0.941601,253.445,0.743343
255.6000,0.603004,253.74,0.746935
255.5000,0.12613,253.887,0.748715
255.4000,0.350179,253.62,0.745473
255.3000,1.56895,253.519,0.744244
255.2000,0.780108,253.405,0.74286
255.1000,1.25114,253.309,0.741685
255.0000,0.336692,253.637,0.745685
254.9000,1.00868,253.592,0.745128
254.8000,1.01898,253.66,0.745964
254.7000,0.480585,253.597,0.745197
254.6000,1.89853,253.807,0.747741
254.5000,1.24806,253.492,0.743917
254.4000,-0.138355,253.384,0.742605
254.3000,1.48305,253.461,0.743533
254.2000,2.31553,253.579,0.744975
254.1000,0.244979,253.685,0.746263
254.0000,0.495201,253.913,0.749033
253.9000,0.880764,253.752,0.747076
253.8000,0.962875,253.893,0.748789
253.7000,1.30314,253.872,0.748532
253.6000,1.04574,253.945,0.749422
253.5000,0.947986,253.771,0.747305
253.4000,1.12729,254.012,0.750243
253.3000,0.824025,253.75,0.747059
253.2000,0.674115,253.906,0.748945
253.1000,0.330969,254.067,0.750907
253.0000,1.34551,253.939,0.749353
252.9000,0.846789,253.989,0.749954
252.8000,1.69975,253.973,0.749766
252.7000,0.643261,253.975,0.749792
252.6000,1.46382,254.03,0.750461
252.5000,1.5122,254.081,0.751072
252.4000,0.575401,253.956,0.74956
252.3000,1.02463,253.856,0.748345
252.2000,0.418427,254.727,0.758915
252.1000,1.70275,254.267,0.75333
252.0000,0.115058,254.372,0.754605
251.9000,0.33758,254.021,0.750346
251.8000,2.02621,254.215,0.752707
251.7000,1.97501,254.425,0.755249
251.6000,0.603533,254.61,0.757494
251.5000,1.1054,254.245,0.753068
251.4000,0.576945,254.305,0.753799
251.3000,2.10593,254.45,0.755552
251.2000,0.356872,254.45,0.755557
251.1000,2.14678,254.265,0.753309
251.0000,0.296251,254.24,0.753003
250.9000,0.135479,254.396,0.754904
250.8000,0.920124,254.475,0.755857
250.7000,1.06949,254.326,0.75405
250.6000,1.37063,254.058,0.750797
250.5000,0.373412,254.371,0.754591
250.4000,0.357419,254.533,0.756563
250.3000,1.58702,254.298,0.753715
250.2000,0.993487,254.239,0.752994
250.1000,0.265945,254.737,0.759036
250.0000,0.984655,254.452,0.755574
249.9000,1.76759,254.195,0.752456
249.8000,1.90178,254.32,0.753971
249.7000,1.21753,254.347,0.754306
249.6000,0.281516,254.319,0.753966
249.5000,-0.0186625,254.33,0.7541
249.4000,1.28111,254.535,0.756584
249.3000,1.09765,254.281,0.753503
249.2000,0.645964,254.538,0.756622
249.1000,0.769257,254.271,0.753376
249.0000,1.60849,254.413,0.755107
248.9000,1.26972,254.176,0.752224
248.8000,0.82782,254.358,0.754438
248.7000,1.77124,254.208,0.752611
248.6000,0.260867,254.584,0.757175
248.5000,1.64006,254.201,0.752537
248.4000,1.7894,254.276,0.753447
248.3000,0.863544,254.524,0.75645
248.2000,0.814134,254.239,0.752989
248.1000,0.636023,254.441,0.75544
248.0000,0.665291,254.342,0.754248
247.9000,0.476405,254.07,0.750938
247.8000,1.4307,254.176,0.752235
247.7000,0.296195,254.152,0.751941
247.6000,1.30346,254.362,0.754483
247.5000,0.206855,254.339,0.75421
247.4000,1.32034,254.339,0.754201
247.3000,0.406418,254.432,0.755332
247.2000,1.02488,254.675,0.758287
247.1000,0.1762,254.569,0.756994
247.0000,0.802339,254.482,0.755942
246.9000,1.78612,254.65,0.757983
246.8000,-0.12051,254.49,0.756038
246.7000,1.10066,254.559,0.756872
246.6000,2.00953,254.595,0.757315
246.5000,0.76934,254.556,0.756843
246.4000,1.01815,254.578,0.757108
246.3000,1.51275,254.812,0.759938
246.2000,1.79658,254.869,0.76063
246.1000,0.11712,254.607,0.757453
246.0000,1.69788,254.692,0.758483
245.9000,1.31438,254.783,0.759592
245.8000,0.628318,254.77,0.75943
245.7000,-0.156066,254.719,0.758813
245.6000,0.971532,254.673,0.758258
245.5000,0.440161,254.691,0.758481
245.4000,1.30187,254.569,0.756998
245.3000,1.87432,254.626,0.75769
245.2000,1.13314,254.854,0.760449
245.1000,0.289172,254.588,0.757228
245.0000,0.639417,254.737,0.759036
244.9000,1.44815,254.76,0.759307
244.8000,1.89452,254.636,0.75781
244.7000,0.571941,254.689,0.758454
244.6000,0.818698,254.689,0.758457
244.5000,0.462713,254.908,0.761107
244.4000,0.997162,254.679,0.75833
244.3000,0.55718,254.708,0.758685
244.2000,-0.219069,254.954,0.761657
244.1000,1.24043,254.951,0.761626
244.0000,0.574712,255.122,0.763699
243.9000,-0.00153659,255.058,0.762923
243.8000,-0.559082,255.236,0.765081
243.7000,1.26141,254.948,0.761592
243.6000,0.575236,254.717,0.758795
243.5000,1.51228,254.973,0.761897
243.4000,0.435472,255.398,0.76704
243.3000,-0.0327594,255.147,0.764003
243.2000,1.07664,255.213,0.764794
243.1000,0.433473,255.304,0.7659
243.0000,0.870563,255.102,0.763449
242.9000,-0.337567,255.053,0.762861
242.8000,1.8932,255.237,0.765086
242.7000,0.946308,255.021,0.762473
242.6000,0.13967,255.199,0.764621
242.5000,1.55722,255.55,0.768876
242.4000,0.465827,255.513,0.768427
242.3000,1.79505,255.265,0.765422
242.2000,1.18004,255.09,0.763305
242.1000,-0.371573,255.437,0.767503
242.0000,2.16667,255.378,0.766797
241.9000,0.577692,255.378,0.766789
241.8000,0.431652,255.704,0.770738
241.7000,1.52909,255.474,0.767948
241.6000,2.26052,255.676,0.770397
241.5000,1.283,255.659,0.770184
241.4000,-1.16307,255.714,0.770854
241.3000,0.476993,255.636,0.769915
241.2000,0.665415,255.729,0.771029
241.1000,0.962251,255.329,0.766196
241.0000,0.800653,255.529,0.768617
240.9000,0.194641,255.78,0.771655
240.8000,1.40729,255.707,0.770772
240.7000,0.451081,255.563,0.769026
240.6000,-0.100193,255.773,0.771562
240.5000,1.0042,256.395,0.779071
240.4000,1.96645,255.732,0.771071
240.3000,0.0109882,255.835,0.77231
240.2000,1.36536,255.97,0.773946
240.1000,-0.272841,256.034,0.774715
240.0000,0.330111,256.082,0.775296
239.9000,-0.224989,255.813,0.772045
239.8000,0.499825,256.258,0.777416
239.7000,0.833933,256.1,0.775517
239.6000,0.276553,256.072,0.775173
239.5000,1.42551,256.326,0.778234
239.4000,-0.281838,256.276,0.777632
239.3000,1.63389,256.399,0.779117
239.2000,0.408002,256.436,0.779561
239.1000,-0.175136,256.556,0.781008
239.0000,0.955961,256.366,0.778726
238.9000,0.934982,256.398,0.77911
238.8000,0.891406,256.692,0.782646
238.7000,0.761647,256.413,0.779291
238.6000,-0.0876996,256.534,0.780749
238.5000,1.27829,256.684,0.782555
238.4000,-0.605129,257.006,0.786431
238.3000,1.82991,256.979,0.786104
238.2000,1.47995,256.975,0.786057
238.1000,0.287494,257.298,0.789938
238.0000,1.20723,257.129,0.787905
237.9000,0.0707752,257.418,0.791383
237.8000,0.432953,257.46,0.791883
237.7000,0.198954,257.042,0.786856
237.6000,1.18805,257.5,0.792366
237.5000,1.1419,257.486,0.792193
237.4000,0.428342,257.384,0.790978
237.3000,0.711428,257.277,0.789681
237.2000,0.554687,257.376,0.790875
237.1000,-0.193945,257.663,0.794327
237.0000,-0.0250387,257.557,0.793048
236.9000,0.505826,257.406,0.791241
236.8000,0.294298,257.635,0.793992
236.7000,0.326855,258.194,0.800697
236.6000,0.396826,257.808,0.796066
236.5000,0.265276,257.613,0.79372
236.4000,0.961384,257.77,0.795607
236.3000,-0.154881,257.968,0.797982
236.2000,1.31124,257.796,0.795913
236.1000,-0.527539,258.245,0.801301
236.0000,-0.979698,258.418,0.803374
235.9000,0.498765,258.261,0.801494
235.8000,-0.500121,258.536,0.804781
235.7000,-1.72695,258.662,0.806292
235.6000,1.06437,258.884,0.808948
235.5000,-0.0680965,258.36,0.80268
235.4000,-1.3017,258.627,0.80588
235.3000,-0.164443,258.717,0.806956
235.2000,-0.480101,258.754,0.807401
235.1000,-0.480443,258.541,0.804848
235.0000,0.137236,258.526,0.804668
234.9000,-0.699548,258.716,0.806937
234.8000,-0.726596,258.983,0.810133
234.7000,-0.557108,259.278,0.813663
234.6000,-0.566988,259.008,0.810436
234.5000,-0.516838,259.079,0.811286
234.4000,0.0508852,259.111,0.81166
234.3000,-0.133465,259.275,0.813626
234.2000,1.01907,259.793,0.819799
234.1000,-0.608384,259.132,0.811911
234.0000,0.0693271,259.496,0.816265
233.9000,0.67818,259.665,0.818278
233.8000,-0.24272,259.776,0.819595
233.7000,-0.22482,259.691,0.818589
233.6000,-1.02351,259.737,0.819136
233.5000,-0.439278,259.79,0.819772
233.4000,0.206744,259.899,0.821069
233.3000,-1.82014,260.605,0.829476
233.2000,-0.471971,260.174,0.824339
233.1000,-0.211527,260.005,0.822326
233.0000,-1.50492,260.437,0.827468
232.9000,-0.847297,260.404,0.827084
232.8000,-1.48749,260.309,0.825947
232.7000,-1.22947,260.475,0.827926
232.6000,-0.274276,260.664,0.830171
232.5000,-0.322803,260.788,0.831646
232.4000,0.260732,260.776,0.831508
232.3000,0.667032,261.052,0.834784
232.2000,-0.493732,260.987,0.834017
232.1000,-0.818322,260.659,0.830116
232.0000,-1.59775,261.077,0.835075
231.9000,-2.8342,260.94,0.833452
231.8000,-1.09844,260.97,0.833812
231.7000,-0.927768,261.143,0.835864
231.6000,-0.390721,261.642,0.841787
231.5000,-0.496396,261.668,0.842086
231.4000,-0.729769,261.759,0.843174
231.3000,-0.0180155,261.648,0.841853
231.2000,-1.34544,261.464,0.839673
231.1000,-1.86154,261.675,0.842173
231.0000,-1.15602,261.648,0.841854
230.9000,-0.0285776,261.819,0.843885
230.8000,-1.35264,261.733,0.842865
230.7000,0.164301,261.704,0.842519
230.6000,0.29101,261.673,0.842151
230.5000,-2.09511,261.948,0.84541
230.4000,-1.24659,261.855,0.844308
230.3000,-1.17432,261.952,0.845458
230.2000,-0.685945,261.961,0.845556
230.1000,-1.57254,261.85,0.844249
230.0000,-1.34992,261.906,0.844913
229.9000,-1.15194,262.034,0.846424
229.8000,-0.940126,261.481,0.839878
229.7000,-1.7932,261.586,0.841116
229.6000,-0.222711,261.791,0.843553
229.5000,-1.29022,261.832,0.844029
229.4000,-0.854285,261.916,0.845027
229.3000,-1.7356,262.102,0.847234
229.2000,0.0235752,262.171,0.848052
229.1000,-1.60065,262.494,0.851871
229.0000,-1.05646,262.281,0.849354
228.9000,-2.15867,262.454,0.851395
228.8000,-1.62512,262.941,0.857152
228.7000,-2.1527,262.807,0.85556
228.6000,-2.04368,263.1,0.859018
228.5000,-1.52442,263.426,0.862867
228.4000,-2.16043,263.116,0.85921
228.3000,-0.709682,263.445,0.863087
228.2000,-1.92232,263.467,0.863356
228.1000,-1.55402,263.786,0.867108
228.0000,-0.566246,263.617,0.865121
227.9000,-0.781927,263.998,0.869601
227.8000,-1.61685,263.914,0.86861
227.7000,-2.0992,264.186,0.871817
227.6000,-2.33292,264.398,0.874307
227.5000,-1.06142,264.176,0.871698
227.4000,-1.38697,264.411,0.874457
227.3000,-2.57908,264.252,0.872591
227.2000,-1.69756,264.576,0.876397
227.1000,-1.89821,264.26,0.872679
227.0000,-1.56398,264.291,0.873052
226.9000,-1.75514,264.746,0.878394
226.8000,-2.0942,264.603,0.876714
226.7000,-1.46382,264.881,0.879977
226.6000,-1.79765,264.997,0.881338
226.5000,-1.62472,264.848,0.879592
226.4000,-2.53375,264.867,0.879816
226.3000,-1.89746,265.031,0.881732
226.2000,-1.98059,265.195,0.883661
226.1000,-2.27921,265.187,0.883558
226.0000,-2.05816,265.118,0.882756
225.9000,-3.41141,265.405,0.886124
225.8000,-0.406684,265.704,0.889616
225.7000,-2.81654,265.548,0.887789
225.6000,-1.63432,266.021,0.893323
225.5000,-2.38879,265.909,0.892018
225.4000,-2.25804,265.782,0.890534
225.3000,-2.02229,266.261,0.896133
225.2000,-1.92152,266.205,0.895475
225.1000,-1.52271,266.146,0.894793
225.0000,-1.95485,266.22,0.895652
224.9000,-2.27525,266.194,0.895343
224.8000,-1.69125,266.468,0.898545
224.7000,-2.32295,266.487,0.898771
224.6000,-2.29227,266.562,0.899651
224.5000,-2.07647,266.671,0.900913
224.4000,-1.70555,266.738,0.901697
224.3000,-1.52535,266.757,0.901926
224.2000,-2.80009,267.199,0.907076
224.1000,-2.36358,266.91,0.903707
224.0000,-3.19436,266.623,0.900362
223.9000,-1.11932,266.814,0.902584
223.8000,-1.35611,267.057,0.90542
223.7000,-2.88862,267.447,0.909964
223.6000,-2.5174,267.358,0.908922
223.5000,-1.85573,267.199,0.90707
223.4000,-1.79967,267.236,0.907502
223.3000,-3.12448,267.085,0.905747
223.2000,-3.72811,267.625,0.912027
223.1000,-2.4059,267.537,0.911007
223.0000,-2.52087,267.877,0.91496
222.9000,-1.11057,268.023,0.916659
222.8000,-1.61335,267.859,0.914753
222.7000,-1.7145,268.163,0.918282
222.6000,-1.53712,268.237,0.919142
222.5000,-1.3582,268.166,0.918315
222.4000,-0.289964,268.424,0.92131
222.3000,-2.53131,268.43,0.921378
222.2000,-3.36033,268.363,0.920601
222.1000,-2.63525,268.616,0.923538
222.0000,-1.42806,268.295,0.919812
221.9000,-1.32767,268.7,0.924511
221.8000,-1.70406,268.601,0.923364
221.7000,-2.78015,268.83,0.926023
221.6000,-2.29628,268.793,0.925592
221.5000,-1.96602,268.943,0.927327
221.4000,-1.86408,269.076,0.928872
221.3000,-3.19121,269.18,0.930079
221.2000,-3.24221,269.231,0.930669
221.1000,-1.9414,269.208,0.930402
221.0000,-1.58915,268.741,0.924987
220.9000,-1.75788,269.184,0.930122
220.8000,-1.77659,269.098,0.929127
220.7000,-1.85235,269.611,0.935062
220.6000,-2.45507,269.616,0.935114
220.5000,-1.4295,269.519,0.934001
220.4000,-2.14791,269.784,0.937065
220.3000,-2.16226,269.569,0.934577
220.2000,-2.37849,269.741,0.93656
220.1000,-1.94522,269.771,0.936905
220.0000,-2.77971,270.21,0.941974
219.9000,-2.72149,269.981,0.93933
219.8000,-3.12055,270.367,0.943789
219.7000,-0.277533,270.541,0.945791
219.6000,-3.0569,270.04,0.940013
219.5000,-1.77944,270.431,0.944529
219.4000,-2.11308,270.265,0.942619
219.3000,-1.43264,270.333,0.943397
219.2000,-1.73996,270.508,0.945412
219.1000,-1.87012,270.287,0.942864
219.0000,-3.52389,270.451,0.944759
218.9000,-3.55796,270.479,0.945078
218.8000,-2.5126,270.442,0.944659
218.7000,-2.91323,270.791,0.948682
218.6000,-2.77887,270.729,0.947964
218.5000,-3.53056,270.766,0.948394
218.4000,-2.61753,270.8,0.948778
218.3000,-2.82619,270.826,0.949076
218.2000,-2.28259,271.05,0.951659
218.1000,-2.43434,271.126,0.952536
218.0000,-2.33629,271.165,0.952983
217.9000,-1.80424,271.451,0.956266
217.8000,-1.51556,271.303,0.954573
217.7000,-1.58303,271.042,0.951566
217.6000,-2.38816,271.806,0.960351
217.5000,-1.22763,271.384,0.955496
217.4000,-1.70084,271.812,0.960424
217.3000,-2.47787,271.629,0.958322
217.2000,-2.19827,272.084,0.963539
217.1000,-0.884088,271.66,0.958677
217.0000,-2.33379,272.088,0.963588
216.9000,-1.31219,272.487,0.968164
216.8000,-1.31019,272.485,0.968141
216.7000,-2.62566,272.232,0.965245
216.6000,-1.21266,272.504,0.968354
216.5000,-1.58647,272.438,0.967604
216.4000,-1.93028,272.48,0.968078
216.3000,-2.61944,272.543,0.968799
216.2000,-0.840974,272.292,0.965922
216.1000,-1.73975,272.884,0.972714
216.0000,-0.807231,272.677,0.970337
215.9000,-1.85279,272.747,0.971145
215.8000,-2.72633,273.178,0.976071
215.7000,-2.15663,273.29,0.977357
215.6000,-1.7844,272.981,0.973818
215.5000,-1.63006,273.132,0.975545
215.4000,-3.77862,273.272,0.97715
215.3000,-3.24602,273.27,0.977124
215.2000,-1.58578,273.058,0.974701
215.1000,-2.50058,273.2,0.976327
215.0000,-1.83984,273.471,0.979419
214.9000,-2.47139,273.358,0.978136
214.8000,-1.01152,273.492,0.979665
214.7000,-2.09137,273.259,0.977001
214.6000,-1.79721,273.791,0.983079
214.5000,-0.454579,274.029,0.985796
214.4000,-1.1545,273.952,0.984914
214.3000,-0.740984,273.902,0.984348
214.2000,-2.21616,273.972,0.985143
214.1000,-1.53244,273.939,0.98476
214.0000,-1.1228,273.992,0.985374
213.9000,-0.564014,273.929,0.98465
213.8000,-1.95823,274.1,0.986598
213.7000,-1.20833,274.607,0.992376
213.6000,-1.57981,274.442,0.990495
213.5000,-1.74234,274.79,0.994457
213.4000,-1.52869,274.563,0.991875
213.3000,-1.46972,274.41,0.990129
213.2000,-2.05263,274.715,0.993613
213.1000,-2.80865,274.565,0.991904
213.0000,-1.15511,274.753,0.994043
212.9000,-1.4722,274.706,0.993503
212.8000,-2.41143,275.019,0.997064
212.7000,-1.85108,274.898,0.995695
212.6000,-1.8626,274.651,0.992874
212.5000,-1.75741,274.865,0.99531
212.4000,-2.04861,275.484,1.00235
212.3000,-1.80096,274.727,0.993747
212.2000,-2.47335,275.139,0.998428
212.1000,-0.926554,275.731,1.00515
212.0000,-2.12247,275.442,1.00188
211.9000,-2.60488,276.061,1.0089
211.8000,-3.42033,275.04,0.997306
211.7000,-1.55833,275.903,1.0071
211.6000,-1.71664,275.859,1.0066
211.5000,-1.25264,275.819,1.00615
211.4000,-4.19984,275.784,1.00575
211.3000,-1.41546,275.824,1.00621
211.2000,-1.17584,276.462,1.01344
211.1000,-1.83315,276.235,1.01086
211.0000,-2.33999,276.977,1.01927
210.9000,-1.21774,276.878,1.01815
210.8000,-3.1767,276.603,1.01503
210.7000,-1.65513,276.913,1.01855
210.6000,-1.32214,276.825,1.01754
210.5000,-1.97963,276.362,1.0123
210.4000,-3.99632,276.984,1.01935
210.3000,-3.51785,277.14,1.02111
210.2000,-2.71695,277.168,1.02142
210.1000,-1.18881,277.256,1.02242
210.0000,-2.79913,277.345,1.02342
209.9000,-1.748,277.176,1.02151
209.8000,-2.37396,278.013,1.03096
209.7000,-1.60865,277.777,1.0283
209.6000,-3.87465,277.923,1.02994
209.5000,-1.25728,278.217,1.03326
209.4000,-1.28404,278.452,1.03591
209.3000,-2.85769,278.264,1.03379
209.2000,-2.61737,278.698,1.03868
209.1000,-1.96548,279.028,1.04239
209.0000,-2.2961,278.629,1.03789
208.9000,-1.25551,278.407,1.03539
208.8000,-2.02667,279.044,1.04257
208.7000,-2.52549,279.071,1.04286
208.6000,-1.52225,278.928,1.04126
208.5000,-1.99285,279.068,1.04283
208.4000,-2.71523,278.995,1.04201
208.3000,-2.14324,279.431,1.04691
208.2000,-2.7726,279.446,1.04708
208.1000,-0.12317,279.394,1.04649
208.0000,-0.938992,279.766,1.05066
207.9000,-1.59276,280.049,1.05383
207.8000,-1.40059,280.346,1.05716
207.7000,-1.115,280.232,1.05589
207.6000,-3.20243,280.718,1.06132
207.5000,-2.00451,280.465,1.05849
207.4000,-1.31604,280.669,1.06078
207.3000,-1.83264,280.561,1.05957
207.2000,-1.25005,280.783,1.06205
207.1000,-1.91867,280.932,1.06372
207.0000,-0.876217,281.067,1.06523
206.9000,-2.54866,280.954,1.06395
206.8000,-2.18493,281.361,1.0685
206.7000,-0.709828,281.49,1.06995
206.6000,-2.67901,281.601,1.07118
206.5000,-1.02027,281.784,1.07322
206.4000,-3.44478,282.534,1.08157
206.3000,-1.50405,282.345,1.07947
206.2000,-1.23169,282.248,1.07838
206.1000,-2.10113,282.525,1.08147
206.0000,-0.904608,283.121,1.08809
205.9000,-2.39003,282.835,1.08491
205.8000,-1.09177,282.862,1.08521
205.7000,-0.676255,283.149,1.0884
205.6000,-0.404642,283.085,1.08769
205.5000,-1.63957,283.328,1.09039
205.4000,-2.22616,283.661,1.09408
205.3000,-0.222274,283.745,1.09501
205.2000,0.675419,283.844,1.09611
205.1000,-1.7045,284.04,1.09828
205.0000,-0.334469,284.196,1.1
204.9000,-1.37318,284.509,1.10346
204.8000,-0.302771,284.869,1.10744
204.7000,-0.288809,285.169,1.11076
204.6000,-0.806782,285.168,1.11075
204.5000,0.472559,285.192,1.11101
204.4000,0.453931,285.557,1.11503
204.3000,-0.252731,285.727,1.1169
204.2000,-2.40495,286.03,1.12024
204.1000,0.967717,286.131,1.12136
204.0000,0.317375,286.406,1.12438
203.9000,-0.285939,286.585,1.12635
203.8000,1.34719,286.795,1.12866
203.7000,0.625663,287.089,1.13189
203.6000,0.566762,287.093,1.13192
203.5000,0.558324,287.125,1.13228
203.4000,0.0644951,287.478,1.13614
203.3000,2.00679,287.757,1.13921
203.2000,2.22909,288.02,1.14209
203.1000,0.844552,288.088,1.14282
203.0000,1.15386,288.333,1.14551
202.9000,2.06015,288.613,1.14857
202.8000,2.19278,288.48,1.14711
202.7000,1.75734,288.874,1.15142
202.6000,1.41192,288.959,1.15234
202.5000,3.42761,289.295,1.15601
202.4000,0.737655,289.316,1.15623
202.3000,0.733401,289.743,1.16089
202.2000,0.953952,290.129,1.16509
202.1000,1.27421,290.497,1.1691
202.0000,1.38425,290.437,1.16844
201.9000,3.0264,290.803,1.17242
201.8000,3.27966,291.114,1.17579
201.7000,1.67495,291.453,1.17947
201.6000,3.14636,291.856,1.18383
201.5000,3.52632,292.005,1.18544
201.4000,2.47575,292.065,1.18609
201.3000,2.45506,292.591,1.19178
201.2000,4.53242,292.951,1.19566
201.1000,4.776,292.996,1.19615
201.0000,4.67556,293.053,1.19676
200.9000,3.35385,293.374,1.20023
200.8000,4.03679,293.684,1.20357
200.7000,3.31448,294.08,1.20783
200.6000,2.54213,294.052,1.20752
200.5000,2.56877,294.438,1.21168
200.4000,2.67702,294.844,1.21603
200.3000,4.62679,294.84,1.21599
200.2000,5.05132,295.18,1.21964
200.1000,4.77197,295.449,1.22252
200.0000,4.16585,295.775,1.22601
199.9000,6.56635,296.225,1.23082
199.8000,4.89354,296.468,1.23343
199.7000,3.96219,296.494,1.2337
199.6000,5.304,296.879,1.23781
199.5000,5.97199,296.983,1.23892
199.4000,5.62432,297.212,1.24137
199.3000,5.07202,297.275,1.24204
199.2000,5.90977,297.747,1.24706
199.1000,5.30631,298.001,1.24976
199.0000,6.64939,298.308,1.25303
198.9000,4.68944,298.061,1.25041
198.8000,5.6477,298.69,1.25708
198.7000,6.91949,298.975,1.26011
198.6000,6.14436,299.503,1.26571
198.5000,6.29681,299.48,1.26546
198.4000,5.34245,299.553,1.26624
198.3000,6.97199,299.747,1.2683
198.2000,6.39513,300.512,1.27638
198.1000,6.62755,300.243,1.27354
198.0000,5.46858,300.164,1.2727
197.9000,8.87666,301.17,1.28333
197.8000,7.34475,301.337,1.28508
197.7000,6.66056,301.171,1.28333
197.6000,7.03054,301.464,1.28643
197.5000,7.82498,301.598,1.28784
197.4000,7.84303,301.973,1.29178
197.3000,8.23589,301.988,1.29194
197.2000,8.65908,302.72,1.29963
197.1000,8.40907,302.833,1.30082
197.0000,7.79433,303.302,1.30573
196.9000,8.73669,303.79,1.31084
196.8000,8.22358,303.88,1.31179
196.7000,8.241,304.141,1.31452
196.6000,8.51689,304.778,1.32118
196.5000,7.55209,304.41,1.31733
196.4000,9.17462,305.044,1.32395
196.3000,8.1405,305.542,1.32915
196.2000,7.4988,305.663,1.3304
196.1000,7.24843,306.047,1.33441
196.0000,9.36411,306.905,1.34332
195.9000,8.53248,307.164,1.34601
195.8000,9.56711,307.11,1.34544
195.7000,10.9432,307.628,1.35081
195.6000,10.5704,308.112,1.35582
195.5000,10.4842,308.444,1.35925
195.4000,8.64625,308.784,1.36277
195.3000,10.0561,309.229,1.36736
195.2000,8.44349,309.295,1.36804
195.1000,8.16633,310.011,1.37542
195.0000,10.4546,309.84,1.37366
194.9000,10.0278,310.236,1.37774
194.8000,7.63389,310.789,1.38342
194.7000,9.84023,310.859,1.38414
194.6000,9.86851,311.616,1.3919
194.5000,9.22902,312.126,1.39713
194.4000,9.07969,312.46,1.40054
194.3000,9.62685,312.601,1.40199
194.2000,9.97285,313.503,1.41119
194.1000,8.80187,314.093,1.4172
194.0000,10.8913,314.387,1.4202
193.9000,11.1454,314.99,1.42633
193.8000,9.38764,316.082,1.4374
193.7000,9.86256,316.71,1.44376
193.6000,11.0695,316.83,1.44496
193.5000,8.17955,317.891,1.45568
193.4000,11.8106,318.052,1.45729
193.3000,10.1708,318.973,1.46657
193.2000,11.6779,319.057,1.46741
193.1000,8.91286,319.86,1.47547
193.0000,12.1971,320.133,1.47821
192.9000,10.364,321.275,1.48963
192.8000,11.3801,322.092,1.49779
192.7000,8.69345,322.778,1.50462
192.6000,8.96663,323.951,1.51628
192.5000,10.519,324.174,1.51849
192.4000,12.4732,325.857,1.53514
192.3000,8.74144,326.249,1.53901
192.2000,9.16524,326.87,1.54512
192.1000,9.82855,328.361,1.55978
192.0000,9.9408,328.817,1.56425
191.9000,10.7943,329.576,1.57168
191.8000,10.4869,330.723,1.58288
191.7000,10.8825,331.144,1.58699
191.6000,8.51228,332.171,1.59698
191.5000,9.94108,333.108,1.60607
191.4000,9.67545,334.329,1.61788
191.3000,11.205,335.524,1.62942
191.2000,9.59575,336.886,1.64252
191.1000,9.67127,338.326,1.65632
191.0000,10.0311,339.321,1.66582
190.9000,8.27036,341.257,1.68425
190.8000,11.5002,342.819,1.69906
190.7000,7.61286,344.203,1.71214
190.6000,11.4716,345.585,1.72515
190.5000,9.55922,346.895,1.73745
190.4000,9.35357,348.299,1.75058
190.3000,9.3647,349.693,1.76357
190.2000,11.5721,351.274,1.77826
190.1000,8.88357,352.869,1.79302
190.0000,4.62215,354.011,1.80355

##### Extended Information
[Comments]
Sample name,class
Comment
User
Division
Company,Saint Mary's College

[Detailed Information]
Creation date,9/29/2021 3:27 PM

Data array type,Linear data array * 3
Horizontal axis,Wavelength [nm]
Vertical axis(1),CD [mdeg]
Vertical axis(2),HT [V]
Vertical axis(3),Abs
Start,290 nm
End,190 nm
Data interval,0.1 nm
Data points,1001    

[Measurement Information]
Instrument name,J-1500
Model name,J-1500
Serial No.,B051061638

Detector,PM-539
Detector S/N,B051061638
  Lock-in amp.,X mode
  HT volt,Auto

Accessory,PTC-517
Accessory S/N,B026561646
  Temperature,22.75 C
  Control sensor,Holder
  Monitor sensor,Holder

Measurement date,9/29/2021 3:26 PM

CD Overload detect,839
Photometric mode,CD, HT, Abs
Measure range,290 - 190 nm
Data pitch,0.1 nm
CD scale,20 mdeg/0.05 dOD
FL scale,20 mdeg/0.05 dOD
D.I.T.,64 msec
Bandwidth,1.00 nm
Start mode,Immediately
Scanning mode,Continuous
Scanning speed,50 nm/min
Baseline correction,None
Shutter control,Auto
No. of cycle,1/1
N2 Flowmeter,Manual


