TITLE,class
DATA TYPE,
ORIGIN,JASCO
OWNER,
DATE,21/09/29
TIME,17:03:21
SPECTROMETER/DATA SYSTEM,
LOCALE,1033
RESOLUTION,
DELTAX,-0.1
XUNITS,NANOMETERS
YUNITS,CD [mdeg]
Y2UNITS,HT [V]
Y3UNITS,ABSORBANCE
FIRSTX,  290.0000
LASTX,  190.0000
NPOINTS,    1001
FIRSTY,     0.86805
MAXY,     4.89178
MINY,    -0.84693
XYDATA
290.0000,0.868052,253.144,0.739679
289.9000,0.868789,252.944,0.737245
289.8000,2.00455,252.775,0.735187
289.7000,1.97873,252.512,0.731974
289.6000,0.952171,252.922,0.736976
289.5000,1.66093,252.949,0.737304
289.4000,1.97326,252.296,0.729339
289.3000,1.40398,252.605,0.733102
289.2000,-0.441433,252.839,0.735968
289.1000,1.43883,252.736,0.73471
289.0000,1.13484,253.016,0.738119
288.9000,1.2467,252.885,0.736522
288.8000,0.796842,252.576,0.732758
288.7000,1.02648,252.683,0.734064
288.6000,1.6516,253.043,0.738447
288.5000,1.11505,252.853,0.736135
288.4000,1.16961,252.592,0.732953
288.3000,0.505687,252.617,0.733254
288.2000,2.55842,252.638,0.733508
288.1000,1.77663,252.415,0.730783
288.0000,1.78616,252.626,0.733369
287.9000,1.67438,252.825,0.73579
287.8000,1.55084,252.681,0.734031
287.7000,1.35188,252.798,0.735462
287.6000,1.17021,252.196,0.728115
287.5000,0.737529,252.601,0.733058
287.4000,-0.0523911,252.555,0.732495
287.3000,1.03949,252.544,0.732358
287.2000,1.93976,252.525,0.732135
287.1000,1.42963,252.498,0.7318
287.0000,0.644088,252.286,0.729214
286.9000,1.40558,252.379,0.730347
286.8000,0.965389,252.521,0.732078
286.7000,0.604584,252.496,0.731779
286.6000,2.19506,252.432,0.730991
286.5000,2.01218,252.278,0.729117
286.4000,0.485505,252.204,0.728211
286.3000,0.467132,252.614,0.733216
286.2000,1.07829,252.297,0.729349
286.1000,1.41728,252.608,0.733145
286.0000,0.187689,252.509,0.73194
285.9000,1.71806,252.528,0.732168
285.8000,2.06094,252.536,0.732268
285.7000,3.16962,252.496,0.731772
285.6000,1.15034,252.382,0.730382
285.5000,1.1221,252.47,0.731459
285.4000,0.440349,252.62,0.733285
285.3000,1.71513,252.46,0.731335
285.2000,2.21033,252.719,0.734496
285.1000,0.596539,252.304,0.729436
285.0000,1.10524,252.364,0.73016
284.9000,1.24418,252.243,0.728683
284.8000,0.716452,252.101,0.726954
284.7000,2.35425,252.453,0.73125
284.6000,0.742212,252.584,0.732849
284.5000,0.261497,252.321,0.729638
284.4000,1.2999,252.355,0.730062
284.3000,0.498331,252.306,0.729451
284.2000,0.787435,252.267,0.728982
284.1000,0.742128,252.388,0.730463
284.0000,0.501017,252.311,0.729515
283.9000,0.211202,252.287,0.729219
283.8000,1.5217,252.132,0.72733
283.7000,1.69059,252.265,0.728955
283.6000,1.4153,252.283,0.729173
283.5000,1.34634,252.377,0.730328
283.4000,1.6568,252.436,0.731046
283.3000,1.57579,252.65,0.73366
283.2000,2.16381,252.181,0.727925
283.1000,1.9361,252.215,0.728346
283.0000,0.25807,252.168,0.727775
282.9000,1.07469,252.344,0.729925
282.8000,1.22566,251.996,0.725673
282.7000,1.43186,252.155,0.727617
282.6000,1.94762,252.416,0.730795
282.5000,1.14174,251.733,0.722449
282.4000,1.01569,252.226,0.728476
282.3000,0.421659,252.187,0.728
282.2000,2.05339,252.118,0.727158
282.1000,0.913632,252.021,0.725969
282.0000,1.669,251.845,0.723819
281.9000,0.803956,251.872,0.724152
281.8000,1.96886,252.075,0.726637
281.7000,1.35075,251.952,0.725131
281.6000,1.21918,251.966,0.725299
281.5000,1.11058,251.813,0.723433
281.4000,1.06986,252.035,0.726149
281.3000,1.51743,252.045,0.726269
281.2000,0.7355,252.191,0.728058
281.1000,0.715837,252.085,0.726758
281.0000,1.80405,252.106,0.727008
280.9000,0.0559503,251.92,0.724734
280.8000,0.132421,252.111,0.727074
280.7000,0.741568,251.979,0.725461
280.6000,2.19395,251.797,0.723239
280.5000,0.456498,251.941,0.724996
280.4000,1.04979,251.652,0.721459
280.3000,1.47046,251.787,0.72311
280.2000,1.99556,251.804,0.723318
280.1000,1.27038,252.115,0.727124
280.0000,-0.044886,251.646,0.721383
279.9000,1.61535,251.772,0.722934
279.8000,1.66986,251.787,0.723109
279.7000,1.02965,251.618,0.72105
279.6000,0.94406,251.648,0.721414
279.5000,0.794355,251.832,0.723662
279.4000,1.2854,251.768,0.722878
279.3000,1.2143,251.834,0.723682
279.2000,0.876802,251.667,0.721648
279.1000,0.830657,251.67,0.721686
279.0000,1.67375,251.725,0.722353
278.9000,1.22219,251.741,0.722554
278.8000,1.25626,251.951,0.725117
278.7000,0.276671,251.909,0.724609
278.6000,1.59789,251.695,0.721989
278.5000,0.686153,251.963,0.725269
278.4000,1.48771,251.513,0.719754
278.3000,1.70178,251.585,0.720646
278.2000,0.827511,251.589,0.720694
278.1000,1.96525,251.77,0.722908
278.0000,2.23951,251.657,0.721521
277.9000,1.5782,251.903,0.724528
277.8000,1.64872,251.507,0.719681
277.7000,-0.0330573,251.493,0.719511
277.6000,1.51452,251.811,0.723409
277.5000,1.1698,251.654,0.721487
277.4000,2.01911,251.6,0.720826
277.3000,0.345048,251.473,0.719267
277.2000,0.0108486,251.645,0.721379
277.1000,0.752709,251.69,0.72193
277.0000,0.797801,251.484,0.719407
276.9000,1.59288,251.621,0.721079
276.8000,1.28504,251.658,0.721539
276.7000,0.890877,251.524,0.719888
276.6000,0.398969,251.528,0.719945
276.5000,1.05662,251.627,0.721157
276.4000,1.04551,251.619,0.721058
276.3000,1.49567,251.356,0.71783
276.2000,1.32644,251.312,0.71729
276.1000,1.48638,251.419,0.718608
276.0000,0.29435,251.579,0.720573
275.9000,1.07035,251.408,0.71847
275.8000,1.36777,251.428,0.718718
275.7000,1.73031,251.226,0.716244
275.6000,1.29986,252.072,0.726594
275.5000,0.609904,251.239,0.716398
275.4000,1.32244,251.847,0.723845
275.3000,2.14986,251.304,0.717193
275.2000,0.196983,251.358,0.717859
275.1000,0.751894,251.733,0.722447
275.0000,1.01825,251.512,0.719745
274.9000,0.0930975,251.514,0.719768
274.8000,1.34364,251.412,0.718526
274.7000,1.24747,251.465,0.719171
274.6000,0.97198,251.24,0.716417
274.5000,1.3007,250.902,0.712266
274.4000,0.938913,251.292,0.717052
274.3000,1.52239,251.421,0.718634
274.2000,1.06671,251.083,0.71449
274.1000,1.0175,251.318,0.717372
274.0000,0.0964913,251.286,0.716979
273.9000,0.813805,251.214,0.716092
273.8000,0.614659,251.26,0.716657
273.7000,0.0590672,251.405,0.718432
273.6000,0.0547203,251.342,0.71766
273.5000,0.318959,250.876,0.711949
273.4000,0.0352153,251.388,0.718224
273.3000,2.03831,251.138,0.715158
273.2000,0.420492,251.344,0.717684
273.1000,1.07753,251.372,0.718029
273.0000,0.750506,251.329,0.7175
272.9000,1.12696,251.257,0.716626
272.8000,1.05804,251.3,0.717146
272.7000,0.379119,251.075,0.714391
272.6000,-0.223747,251.351,0.71778
272.5000,1.77244,251.273,0.716815
272.4000,1.07807,251.097,0.714655
272.3000,1.1867,251.579,0.720573
272.2000,1.89304,251.457,0.719078
272.1000,0.318111,251.2,0.715926
272.0000,0.815676,251.14,0.71519
271.9000,0.541374,251.162,0.715457
271.8000,0.293097,250.981,0.713239
271.7000,-0.173527,251.119,0.714931
271.6000,1.36541,251.244,0.716459
271.5000,0.613434,251.498,0.719574
271.4000,1.03224,251.335,0.717573
271.3000,0.848881,251.338,0.717613
271.2000,-0.62916,251.153,0.715351
271.1000,0.370844,251.226,0.716237
271.0000,0.698993,251.197,0.715888
270.9000,0.346527,251.294,0.717073
270.8000,0.514856,250.911,0.712377
270.7000,1.18936,251.267,0.71674
270.6000,1.24739,251.349,0.717749
270.5000,0.671953,251.519,0.719836
270.4000,1.60408,250.973,0.713135
270.3000,0.382226,251.429,0.718729
270.2000,0.0821155,251.225,0.716231
270.1000,1.36339,251.089,0.714559
270.0000,0.703725,251.275,0.716837
269.9000,1.2205,251.17,0.715554
269.8000,1.61431,251.377,0.718097
269.7000,0.387999,251.04,0.71396
269.6000,1.32203,251.106,0.714774
269.5000,1.50448,251.333,0.717554
269.4000,0.780451,251.199,0.71591
269.3000,-0.380781,251.226,0.716244
269.2000,0.573297,251.376,0.718082
269.1000,0.944232,251.277,0.716869
269.0000,1.40164,251.223,0.716207
268.9000,1.08796,251.286,0.716983
268.8000,1.08721,251.315,0.717335
268.7000,1.03886,251.605,0.720887
268.6000,0.930589,251.313,0.717303
268.5000,1.85658,250.968,0.713082
268.4000,1.47631,251.233,0.716327
268.3000,1.43653,251.244,0.716461
268.2000,0.632768,251.47,0.719227
268.1000,1.21252,251.544,0.720139
268.0000,0.887334,251.57,0.720453
267.9000,1.80729,251.423,0.71866
267.8000,1.00056,251.025,0.713781
267.7000,1.26001,251.051,0.714097
267.6000,0.973582,251.483,0.71939
267.5000,2.24607,251.272,0.716801
267.4000,1.64596,250.861,0.711762
267.3000,0.848403,252.078,0.72667
267.2000,1.04136,251.795,0.723206
267.1000,2.07663,251.551,0.720221
267.0000,0.438106,251.193,0.715832
266.9000,0.150739,251.506,0.719674
266.8000,1.83929,250.908,0.712337
266.7000,1.11015,251.516,0.719801
266.6000,0.772576,251.473,0.71927
266.5000,0.263715,251.207,0.716009
266.4000,0.479325,251.611,0.720963
266.3000,1.23975,251.498,0.719579
266.2000,0.448667,251.875,0.724193
266.1000,1.64231,251.558,0.720306
266.0000,0.519286,251.632,0.721218
265.9000,1.01888,251.597,0.720791
265.8000,0.538025,251.517,0.71981
265.7000,0.304715,251.5,0.719596
265.6000,-0.0484256,251.507,0.719688
265.5000,0.972068,251.622,0.721088
265.4000,0.770607,252.104,0.726989
265.3000,1.62759,251.577,0.720543
265.2000,1.57142,251.59,0.720704
265.1000,0.757019,251.618,0.721044
265.0000,-0.0362232,251.53,0.719969
264.9000,0.111769,251.66,0.721552
264.8000,-0.22487,251.973,0.725385
264.7000,1.41712,251.695,0.721991
264.6000,0.278541,251.634,0.721235
264.5000,1.93072,251.943,0.725016
264.4000,0.0918691,251.696,0.721998
264.3000,0.859274,251.627,0.721155
264.2000,2.17979,251.89,0.724367
264.1000,1.78493,252.007,0.725797
264.0000,0.789336,251.923,0.724774
263.9000,0.806304,251.724,0.722345
263.8000,-0.100376,252.026,0.726036
263.7000,0.550936,251.921,0.724753
263.6000,0.975769,251.734,0.722468
263.5000,1.23682,251.773,0.722937
263.4000,0.372235,252.098,0.726912
263.3000,0.538587,251.829,0.723632
263.2000,0.535579,252.17,0.727795
263.1000,-0.393427,252.081,0.726703
263.0000,0.738231,251.938,0.724964
262.9000,0.572695,252.106,0.727008
262.8000,0.440292,251.912,0.724641
262.7000,0.866306,252.275,0.729083
262.6000,0.311932,252.05,0.726332
262.5000,-0.383877,252.151,0.72756
262.4000,0.268961,252.288,0.729242
262.3000,1.36667,252.268,0.728995
262.2000,0.636179,251.911,0.724634
262.1000,0.239724,252.456,0.731283
262.0000,0.915058,252.228,0.728507
261.9000,1.33909,252.217,0.728365
261.8000,0.827697,252.256,0.728842
261.7000,1.08352,252.269,0.729003
261.6000,1.19464,252.043,0.726241
261.5000,0.172027,252.315,0.729569
261.4000,0.0061217,252.388,0.730458
261.3000,0.148612,252.545,0.732372
261.2000,0.0543587,252.347,0.729962
261.1000,-0.0087383,252.247,0.728733
261.0000,1.54103,252.285,0.729202
260.9000,0.284644,252.32,0.729631
260.8000,0.50865,252.275,0.729084
260.7000,-0.576677,252.298,0.729358
260.6000,-0.0551981,252.459,0.731331
260.5000,0.706378,252.074,0.726618
260.4000,-0.0093156,251.974,0.725403
260.3000,0.457828,253.02,0.738171
260.2000,0.39733,252.488,0.731684
260.1000,0.761305,252.727,0.734598
260.0000,1.08456,252.403,0.73064
259.9000,0.740394,252.972,0.73758
259.8000,0.543384,252.92,0.736948
259.7000,0.689567,252.746,0.734829
259.6000,2.03331,252.67,0.733903
259.5000,0.771011,252.894,0.736634
259.4000,-0.014911,252.886,0.736531
259.3000,0.913685,252.541,0.732331
259.2000,2.18425,252.55,0.732439
259.1000,0.528655,252.842,0.735993
259.0000,0.839131,252.946,0.737263
258.9000,0.484183,252.77,0.735116
258.8000,0.714153,252.577,0.732766
258.7000,0.315637,252.521,0.732089
258.6000,1.11278,252.844,0.736028
258.5000,0.0778948,252.883,0.736494
258.4000,1.67292,253.521,0.744268
258.3000,-0.182549,253.038,0.738388
258.2000,0.223623,253.07,0.738775
258.1000,1.73176,253.208,0.740457
258.0000,1.64217,253.42,0.743035
257.9000,0.141869,252.921,0.736966
257.8000,0.924459,253.33,0.74194
257.7000,1.79482,253.251,0.740981
257.6000,1.52085,252.991,0.73782
257.5000,0.706615,253.114,0.739318
257.4000,1.1707,253.267,0.741179
257.3000,0.160832,253.51,0.744138
257.2000,0.0567621,253.34,0.742071
257.1000,1.42754,253.278,0.741309
257.0000,0.792696,252.997,0.737882
256.9000,0.336371,253.094,0.739068
256.8000,1.07598,253.402,0.742822
256.7000,0.545629,253.375,0.74249
256.6000,0.0554108,253.555,0.744687
256.5000,1.37578,253.593,0.745149
256.4000,0.410106,253.692,0.746344
256.3000,0.942336,253.228,0.740707
256.2000,0.252792,253.416,0.742995
256.1000,0.41264,253.803,0.747703
256.0000,0.494548,253.857,0.748357
255.9000,0.329579,253.642,0.745745
255.8000,1.40881,254.048,0.75068
255.7000,1.22612,253.858,0.74836
255.6000,1.64195,253.578,0.744959
255.5000,0.764963,254.023,0.750375
255.4000,-0.275459,253.766,0.74725
255.3000,0.683368,253.857,0.748352
255.2000,0.972858,254.087,0.751153
255.1000,0.976591,254.046,0.750652
255.0000,1.62323,253.834,0.74807
254.9000,0.47828,253.803,0.747701
254.8000,0.0431552,253.858,0.748367
254.7000,0.718946,253.794,0.747589
254.6000,0.64272,253.95,0.749484
254.5000,-0.257545,254.331,0.754112
254.4000,0.150842,253.796,0.747617
254.3000,0.346374,253.974,0.749777
254.2000,1.0312,254.674,0.758275
254.1000,0.629718,254.144,0.751846
254.0000,1.05189,254.211,0.752652
253.9000,0.457294,254.415,0.755132
253.8000,1.27214,253.904,0.74893
253.7000,0.559973,254.317,0.753938
253.6000,0.141471,254.52,0.756407
253.5000,0.415981,253.595,0.745171
253.4000,-0.0595928,254.399,0.754935
253.3000,0.324273,254.168,0.752126
253.2000,0.627024,254.754,0.759242
253.1000,1.30028,254.613,0.757528
253.0000,0.824413,253.97,0.749728
252.9000,2.01564,253.929,0.749228
252.8000,1.96225,254.689,0.758449
252.7000,1.20035,254.491,0.756057
252.6000,2.1689,254.691,0.758474
252.5000,1.72494,254.276,0.753448
252.4000,0.390883,254.342,0.754246
252.3000,1.55213,254.497,0.756125
252.2000,0.744052,254.199,0.752504
252.1000,0.63734,254.792,0.759703
252.0000,0.142425,254.493,0.756081
251.9000,-0.0182941,254.585,0.757192
251.8000,0.958948,254.194,0.752448
251.7000,0.367294,254.175,0.752221
251.6000,0.380594,254.787,0.759645
251.5000,0.603946,254.362,0.754486
251.4000,0.847287,254.638,0.757839
251.3000,0.974669,255.031,0.762593
251.2000,0.354382,254.563,0.756926
251.1000,0.984937,254.183,0.752317
251.0000,-0.283844,254.895,0.760947
250.9000,0.738553,254.412,0.755088
250.8000,-0.313455,254.203,0.75256
250.7000,1.16082,254.603,0.757408
250.6000,-0.0102767,254.758,0.75929
250.5000,0.672718,254.614,0.757537
250.4000,0.0908391,254.806,0.759873
250.3000,1.14364,254.807,0.759882
250.2000,0.338623,254.603,0.757405
250.1000,1.02879,254.654,0.758021
250.0000,1.23947,254.724,0.758876
249.9000,-0.0204163,254.645,0.75792
249.8000,1.22375,254.42,0.755187
249.7000,0.849228,254.317,0.753938
249.6000,1.51966,254.666,0.758169
249.5000,0.689956,254.531,0.756539
249.4000,1.14464,254.834,0.760206
249.3000,1.50403,254.832,0.760178
249.2000,0.85516,254.651,0.757985
249.1000,0.148189,254.087,0.751149
249.0000,1.54425,254.715,0.758763
248.9000,0.582896,254.794,0.759729
248.8000,1.54132,254.573,0.757041
248.7000,1.26023,254.297,0.753701
248.6000,0.066233,254.596,0.757319
248.5000,1.3066,255.034,0.762633
248.4000,0.904791,254.384,0.754758
248.3000,0.723733,254.261,0.753266
248.2000,0.410567,254.623,0.757655
248.1000,0.0109156,254.261,0.753264
248.0000,0.755795,254.397,0.754911
247.9000,1.21315,254.537,0.756613
247.8000,1.24169,254.278,0.753469
247.7000,0.27501,254.506,0.756234
247.6000,1.28596,254.615,0.757551
247.5000,1.19544,254.619,0.757607
247.4000,1.22516,254.872,0.760671
247.3000,0.196071,254.912,0.76115
247.2000,1.58279,254.66,0.758105
247.1000,0.537309,254.832,0.76018
247.0000,0.647246,255.087,0.763272
246.9000,2.12768,254.696,0.758531
246.8000,1.78906,255.107,0.763511
246.7000,1.27247,255.146,0.763982
246.6000,0.610595,255.021,0.762468
246.5000,0.412682,254.704,0.758637
246.4000,1.15038,254.84,0.76028
246.3000,1.28277,254.796,0.759751
246.2000,0.470377,255.143,0.763953
246.1000,1.04441,254.805,0.759856
246.0000,0.825381,255.302,0.765876
245.9000,0.69842,255.205,0.764705
245.8000,0.741716,255.1,0.76343
245.7000,-0.028664,255.134,0.763838
245.6000,0.677714,254.524,0.756453
245.5000,0.935163,255.261,0.765382
245.4000,0.973767,254.975,0.761911
245.3000,1.51061,254.66,0.758102
245.2000,0.697406,254.961,0.761745
245.1000,2.05323,255.04,0.762698
245.0000,0.430107,254.843,0.760323
244.9000,1.0001,254.801,0.759808
244.8000,0.892828,255.28,0.76561
244.7000,0.137312,254.964,0.761782
244.6000,1.8324,255.182,0.764416
244.5000,0.335409,254.888,0.760865
244.4000,-0.846926,255.56,0.768996
244.3000,-0.0844557,255.383,0.766852
244.2000,0.487188,255.268,0.765461
244.1000,1.26063,255.215,0.764815
244.0000,0.570319,255.176,0.764344
243.9000,1.22882,255.023,0.762496
243.8000,1.15405,254.925,0.761316
243.7000,-0.422467,255.142,0.763936
243.6000,0.627079,255.226,0.764959
243.5000,1.59265,255.482,0.768045
243.4000,0.569932,255.136,0.763864
243.3000,1.22288,255.64,0.769963
243.2000,1.18141,255.441,0.767554
243.1000,0.0479849,255.358,0.766552
243.0000,1.27177,255.318,0.766066
242.9000,0.0188871,255.736,0.771118
242.8000,0.456538,255.394,0.766987
242.7000,1.16864,254.567,0.756974
242.6000,1.5903,255.143,0.763955
242.5000,1.18247,255.759,0.771391
242.4000,0.288197,255.201,0.764656
242.3000,0.937023,255.478,0.768003
242.2000,1.17753,255.478,0.768001
242.1000,0.316405,255.799,0.771881
242.0000,0.375804,256.067,0.77512
241.9000,0.525405,255.213,0.764791
241.8000,1.82299,255.734,0.771092
241.7000,1.21269,255.575,0.769172
241.6000,1.30966,255.785,0.771708
241.5000,1.83438,255.734,0.771094
241.4000,0.0260755,256.057,0.774995
241.3000,0.670933,255.547,0.768833
241.2000,0.811633,255.945,0.773643
241.1000,1.72568,255.716,0.770878
241.0000,1.63237,256.068,0.775127
240.9000,-0.430172,256.308,0.778026
240.8000,0.597625,255.801,0.771901
240.7000,1.59324,255.97,0.773939
240.6000,-0.0420194,256.288,0.777778
240.5000,1.77039,256.001,0.774319
240.4000,1.8468,255.981,0.774078
240.3000,1.32905,256.218,0.776933
240.2000,0.883026,255.966,0.773893
240.1000,0.428569,255.931,0.773469
240.0000,0.775326,256.147,0.776082
239.9000,0.32481,256.432,0.779515
239.8000,0.74739,256.254,0.777365
239.7000,0.11692,256.334,0.778333
239.6000,0.927583,256.129,0.775869
239.5000,1.00032,256.099,0.775506
239.4000,1.14377,256.65,0.782139
239.3000,1.74366,257.074,0.787248
239.2000,0.817973,256.703,0.782784
239.1000,-0.433762,256.455,0.779788
239.0000,0.481706,256.736,0.783181
238.9000,1.41792,256.663,0.782294
238.8000,0.763673,256.591,0.781435
238.7000,1.3878,256.902,0.785182
238.6000,1.74414,256.721,0.782999
238.5000,0.929253,256.809,0.784056
238.4000,1.23454,257.166,0.788346
238.3000,0.403092,257.28,0.789727
238.2000,2.0513,257.243,0.789274
238.1000,0.906852,256.585,0.781358
238.0000,0.519891,257.153,0.788196
237.9000,-0.325147,257.142,0.788063
237.8000,0.37216,257.135,0.787985
237.7000,1.03793,257.338,0.790423
237.6000,-0.2563,257.341,0.79046
237.5000,0.715315,257.748,0.795345
237.4000,0.478751,257.173,0.78844
237.3000,0.652467,257.457,0.791854
237.2000,0.105751,257.575,0.793262
237.1000,-0.424568,257.475,0.792065
237.0000,-0.112184,257.458,0.791864
236.9000,1.69804,257.299,0.78995
236.8000,0.430986,257.712,0.794911
236.7000,2.33845,257.879,0.796915
236.6000,1.1717,257.564,0.793136
236.5000,1.43513,258.489,0.804224
236.4000,1.60896,258.135,0.79998
236.3000,0.668383,257.982,0.798147
236.2000,1.10857,257.718,0.794983
236.1000,1.39575,258.015,0.798546
236.0000,0.652879,258.479,0.804105
235.9000,0.308229,258.459,0.803862
235.8000,2.51396,258.428,0.803493
235.7000,0.931134,257.914,0.79733
235.6000,1.26146,257.937,0.797615
235.5000,1.09775,258.361,0.802689
235.4000,1.07215,258.516,0.804544
235.3000,1.40838,258.809,0.808051
235.2000,0.652894,258.448,0.803734
235.1000,2.31194,259.037,0.810782
235.0000,1.6989,259.039,0.8108
234.9000,0.928871,258.989,0.810204
234.8000,0.668198,258.68,0.806515
234.7000,1.09135,258.643,0.806068
234.6000,0.592924,259.018,0.810548
234.5000,1.9753,258.83,0.808306
234.4000,0.531275,259.14,0.812014
234.3000,0.622378,258.944,0.809669
234.2000,0.0485182,259.229,0.813073
234.1000,0.983306,259.145,0.812068
234.0000,0.0618504,259.281,0.813688
233.9000,0.271777,259.142,0.812036
233.8000,1.62453,259.11,0.811646
233.7000,1.37803,259.732,0.81907
233.6000,1.2759,259.172,0.812396
233.5000,1.42139,259.381,0.814891
233.4000,1.21253,259.643,0.818014
233.3000,0.940725,259.333,0.814314
233.2000,1.08774,259.343,0.814433
233.1000,2.21323,259.898,0.82105
233.0000,0.893317,260.036,0.822702
232.9000,2.08519,259.628,0.817838
232.8000,2.34394,259.783,0.819681
232.7000,1.06093,259.891,0.820973
232.6000,-0.246684,259.664,0.818264
232.5000,1.58738,259.761,0.819419
232.4000,1.90455,260.246,0.825204
232.3000,1.68909,260.385,0.826849
232.2000,0.611373,260.347,0.826406
232.1000,1.71175,260.29,0.825727
232.0000,1.88873,260.537,0.828664
231.9000,1.81599,260.93,0.833331
231.8000,1.41019,261.133,0.835744
231.7000,0.971144,260.664,0.830168
231.6000,0.945123,260.977,0.833896
231.5000,0.804507,261.28,0.837489
231.4000,1.67083,260.787,0.831629
231.3000,1.28485,261.33,0.838081
231.2000,0.931049,260.862,0.832525
231.1000,1.4587,261.436,0.839337
231.0000,1.30601,260.791,0.831678
230.9000,2.25924,261.16,0.83607
230.8000,1.721,261.192,0.836444
230.7000,0.759879,260.758,0.831296
230.6000,0.976527,261.74,0.842942
230.5000,1.3027,261.613,0.841436
230.4000,1.16382,261.205,0.836598
230.3000,1.25542,261.021,0.834409
230.2000,1.7548,260.658,0.830096
230.1000,1.19401,260.782,0.831572
230.0000,1.40443,260.939,0.833442
229.9000,1.95219,260.853,0.832419
229.8000,0.679215,260.643,0.829924
229.7000,1.16386,261.041,0.834651
229.6000,1.36393,261.034,0.83457
229.5000,0.0395214,260.757,0.831284
229.4000,0.87142,261.333,0.838123
229.3000,0.933657,261.548,0.840662
229.2000,3.08596,261.655,0.841935
229.1000,0.766069,261.624,0.841571
229.0000,2.27842,261.583,0.841079
228.9000,0.597769,262.053,0.846647
228.8000,0.631397,261.902,0.844865
228.7000,1.17846,262.028,0.846357
228.6000,2.93911,262.166,0.847993
228.5000,1.15258,262.576,0.852841
228.4000,0.252056,262.538,0.852386
228.3000,2.28942,262.577,0.852845
228.2000,1.69596,262.581,0.852898
228.1000,1.39245,262.705,0.854354
228.0000,1.88886,263.185,0.860022
227.9000,1.87958,262.974,0.857533
227.8000,0.202331,263.425,0.862857
227.7000,1.32343,263.319,0.861603
227.6000,0.674661,262.824,0.855761
227.5000,1.98779,263.074,0.858717
227.4000,1.0939,263.34,0.861849
227.3000,1.25477,263.18,0.859967
227.2000,1.03839,262.866,0.856258
227.1000,1.21194,263.817,0.867476
227.0000,1.76187,263.697,0.866064
226.9000,1.8321,263.544,0.864259
226.8000,0.741238,263.825,0.867571
226.7000,1.09738,263.727,0.866417
226.6000,1.72816,263.996,0.86958
226.5000,1.36295,263.701,0.866112
226.4000,1.99828,264.07,0.870451
226.3000,0.635019,264.033,0.870016
226.2000,1.44491,263.809,0.867381
226.1000,1.78999,263.859,0.867968
226.0000,2.44818,264.148,0.871364
225.9000,1.12562,264.254,0.872613
225.8000,0.964881,264.273,0.872841
225.7000,-0.0617871,264.146,0.871342
225.6000,1.65431,264.507,0.875585
225.5000,1.47255,264.579,0.876428
225.4000,1.22168,264.662,0.877409
225.3000,1.23438,264.631,0.877037
225.2000,0.725617,264.657,0.877345
225.1000,1.41053,264.896,0.880147
225.0000,1.358,265.018,0.881581
224.9000,1.76818,264.676,0.877576
224.8000,1.36539,265.011,0.881498
224.7000,0.355176,265.292,0.8848
224.6000,2.27757,264.977,0.881097
224.5000,0.23989,265.341,0.885374
224.4000,1.39018,265.419,0.886286
224.3000,0.0831609,265.267,0.884504
224.2000,1.44272,265.515,0.887404
224.1000,1.84377,265.639,0.888863
224.0000,2.19721,265.658,0.889084
223.9000,1.87649,265.597,0.888366
223.8000,2.45047,265.731,0.889936
223.7000,0.637684,266.033,0.893464
223.6000,0.631706,265.908,0.892
223.5000,0.885873,265.866,0.891516
223.4000,1.86705,266.17,0.895068
223.3000,2.81299,266.351,0.897184
223.2000,1.88574,266.234,0.895817
223.1000,1.55186,266.58,0.899861
223.0000,1.93742,266.209,0.895521
222.9000,1.46562,266.294,0.896515
222.8000,1.43445,266.563,0.899661
222.7000,0.396649,266.444,0.898273
222.6000,-0.180649,266.506,0.898988
222.5000,1.78062,266.524,0.899206
222.4000,0.690564,266.441,0.898234
222.3000,2.55874,266.877,0.903322
222.2000,2.47704,266.909,0.903693
222.1000,1.75338,266.73,0.901611
222.0000,0.236304,267.002,0.904776
221.9000,1.12668,267.053,0.905366
221.8000,1.68942,267.082,0.905705
221.7000,2.30427,267.202,0.907106
221.6000,1.69769,267.184,0.906892
221.5000,1.59559,267.289,0.908117
221.4000,1.2176,267.511,0.910706
221.3000,2.31436,267.282,0.908041
221.2000,0.774979,267.689,0.912775
221.1000,0.623387,267.562,0.911294
221.0000,1.01959,267.623,0.912011
220.9000,1.16654,267.054,0.90538
220.8000,0.104946,267.764,0.91365
220.7000,1.59852,267.852,0.914669
220.6000,1.62424,268.111,0.917679
220.5000,1.86323,268.344,0.920382
220.4000,1.88891,267.708,0.912997
220.3000,1.00411,267.901,0.915243
220.2000,2.84559,268.058,0.917065
220.1000,2.23155,268.056,0.917043
220.0000,1.63018,268.285,0.9197
219.9000,1.196,268.596,0.923304
219.8000,1.25281,268.266,0.919481
219.7000,0.310762,268.22,0.918943
219.6000,2.09262,268.47,0.92185
219.5000,0.776772,268.652,0.923961
219.4000,2.49522,267.811,0.914195
219.3000,1.55052,268.985,0.927816
219.2000,1.13904,268.659,0.924043
219.1000,1.0789,268.508,0.92229
219.0000,2.91726,268.419,0.921258
218.9000,2.49648,268.439,0.921481
218.8000,1.89707,268.938,0.927271
218.7000,2.45412,268.728,0.924836
218.6000,2.3284,269.058,0.928663
218.5000,0.276121,269.276,0.931186
218.4000,2.08045,268.853,0.926288
218.3000,1.01065,269.337,0.931894
218.2000,1.37909,268.631,0.923719
218.1000,1.43973,268.934,0.92723
218.0000,0.724417,269.16,0.929842
217.9000,1.92698,269.288,0.931322
217.8000,1.39929,269.664,0.935678
217.7000,1.31628,269.316,0.931651
217.6000,0.589257,269.586,0.934777
217.5000,0.981715,269.436,0.933036
217.4000,0.848623,269.719,0.936313
217.3000,1.62159,269.51,0.933891
217.2000,2.69199,269.852,0.937849
217.1000,1.39994,269.769,0.936885
217.0000,1.96785,269.884,0.938216
216.9000,0.588728,269.564,0.934522
216.8000,1.53374,270.403,0.944205
216.7000,1.4591,269.764,0.936827
216.6000,2.05174,270.049,0.940125
216.5000,1.50561,270.393,0.944084
216.4000,1.11271,269.909,0.938502
216.3000,1.28335,270.344,0.943523
216.2000,2.24214,270.869,0.949571
216.1000,1.72975,270.605,0.946536
216.0000,1.40033,270.231,0.942222
215.9000,1.33865,270.494,0.94526
215.8000,1.9127,270.941,0.950406
215.7000,-0.134248,270.853,0.949396
215.6000,1.68638,270.646,0.947009
215.5000,1.4985,270.888,0.949799
215.4000,1.10122,270.855,0.949417
215.3000,0.587563,270.865,0.949526
215.2000,2.9175,271.119,0.952453
215.1000,1.65265,271.363,0.955263
215.0000,1.71265,271.009,0.951183
214.9000,1.73935,271.152,0.952838
214.8000,1.6124,271.295,0.954482
214.7000,1.82145,271.105,0.952287
214.6000,1.55561,271.045,0.951602
214.5000,1.32485,271.012,0.951222
214.4000,1.92788,271.506,0.956903
214.3000,2.13732,271.516,0.957019
214.2000,0.72762,271.739,0.959585
214.1000,1.91813,271.161,0.952942
214.0000,1.38296,271.406,0.955759
213.9000,1.87391,271.406,0.955757
213.8000,1.25393,270.911,0.950063
213.7000,1.412,271.853,0.960891
213.6000,2.59965,271.272,0.954214
213.5000,1.67941,271.964,0.962162
213.4000,1.64675,271.284,0.954348
213.3000,1.38027,272.194,0.964806
213.2000,2.22719,271.521,0.957079
213.1000,1.10813,271.789,0.960158
213.0000,0.282341,271.784,0.960094
212.9000,0.814423,271.937,0.961852
212.8000,1.22138,272.02,0.962811
212.7000,1.55845,271.714,0.959297
212.6000,1.96286,272.125,0.96401
212.5000,1.93964,272.395,0.967106
212.4000,1.73325,272.048,0.963125
212.3000,2.32803,272.401,0.967181
212.2000,1.35361,272.506,0.968377
212.1000,2.76399,272.634,0.969848
212.0000,1.46131,272.642,0.969938
211.9000,2.46917,273.019,0.974257
211.8000,0.876132,272.604,0.9695
211.7000,2.2834,272.64,0.969917
211.6000,1.67841,272.959,0.973573
211.5000,2.30768,272.922,0.973144
211.4000,1.74478,273.263,0.977043
211.3000,2.24832,273.285,0.977299
211.2000,2.14331,273.112,0.975318
211.1000,1.91137,273.349,0.978029
211.0000,2.76674,273.621,0.981139
210.9000,1.62424,273.571,0.980563
210.8000,0.868081,273.463,0.979333
210.7000,0.98188,273.581,0.980673
210.6000,2.23128,273.954,0.984936
210.5000,2.31112,273.559,0.980422
210.4000,1.94778,273.541,0.980219
210.3000,2.92465,274.07,0.986263
210.2000,0.472918,273.77,0.982839
210.1000,1.04862,273.958,0.984983
210.0000,1.98221,274.093,0.986523
209.9000,2.49486,273.601,0.980904
209.8000,1.18156,274.434,0.990407
209.7000,1.73497,274.384,0.989837
209.6000,0.18951,274.004,0.985502
209.5000,2.03468,274.382,0.989811
209.4000,1.13683,274.614,0.992455
209.3000,2.49608,274.493,0.991086
209.2000,0.602024,274.68,0.993213
209.1000,1.49923,275.329,1.00059
209.0000,1.0005,274.939,0.996151
208.9000,1.98459,274.964,0.996446
208.8000,1.63208,274.643,0.992786
208.7000,2.33635,275.203,0.999159
208.6000,1.57993,275.18,0.9989
208.5000,1.55965,275.413,1.00154
208.4000,1.8055,274.81,0.994685
208.3000,1.6704,275.002,0.996878
208.2000,0.685097,275.89,1.00696
208.1000,0.545779,275.641,1.00413
208.0000,1.64724,275.318,1.00046
207.9000,2.86603,276.228,1.01079
207.8000,1.7115,275.953,1.00767
207.7000,2.0069,275.85,1.0065
207.6000,2.36893,275.605,1.00372
207.5000,1.74681,276.116,1.00952
207.4000,1.1643,275.977,1.00794
207.3000,1.64599,276.361,1.0123
207.2000,0.917672,276.319,1.01182
207.1000,1.74282,276.571,1.01468
207.0000,2.99848,276.721,1.01637
206.9000,1.10249,276.655,1.01562
206.8000,3.05507,276.829,1.01759
206.7000,2.37936,277.153,1.02125
206.6000,2.70631,276.822,1.01751
206.5000,3.12095,277.289,1.02279
206.4000,1.6778,277.267,1.02255
206.3000,1.9271,277.649,1.02685
206.2000,2.9071,277.633,1.02668
206.1000,2.74574,277.549,1.02572
206.0000,1.15413,277.495,1.02511
205.9000,1.78889,277.579,1.02607
205.8000,1.96854,277.404,1.02409
205.7000,2.22955,277.53,1.02551
205.6000,1.90181,278.011,1.03094
205.5000,0.520917,278.325,1.03447
205.4000,2.76359,278.028,1.03112
205.3000,1.05667,278.598,1.03754
205.2000,1.44614,278.298,1.03417
205.1000,2.15328,278.455,1.03593
205.0000,2.22562,278.922,1.04119
204.9000,2.2447,278.85,1.04038
204.8000,2.62902,279.223,1.04457
204.7000,2.5311,278.951,1.04152
204.6000,2.01031,279.337,1.04585
204.5000,1.40382,279.432,1.04692
204.4000,2.21038,279.774,1.05076
204.3000,0.554243,279.864,1.05176
204.2000,2.44112,279.952,1.05275
204.1000,1.43438,279.599,1.04879
204.0000,1.47996,280.332,1.05701
203.9000,2.2361,280.113,1.05456
203.8000,1.42864,280.375,1.05749
203.7000,2.31468,280.607,1.06008
203.6000,2.19906,281.121,1.06582
203.5000,2.46181,280.836,1.06264
203.4000,3.03981,281.116,1.06577
203.3000,2.43627,280.869,1.06301
203.2000,0.35308,281.301,1.06783
203.1000,2.20826,281.194,1.06664
203.0000,0.47519,281.634,1.07155
202.9000,4.31225,281.519,1.07027
202.8000,2.55754,281.253,1.06729
202.7000,2.46457,281.887,1.07437
202.6000,2.5214,282.568,1.08195
202.5000,2.93568,282.045,1.07613
202.4000,1.43732,282.395,1.08002
202.3000,2.53351,282.26,1.07852
202.2000,0.357055,282.769,1.08419
202.1000,2.36882,283.176,1.0887
202.0000,2.98103,282.934,1.08601
201.9000,2.4742,283.104,1.0879
201.8000,3.69277,283.194,1.0889
201.7000,1.87343,283.521,1.09252
201.6000,2.75438,284.137,1.09936
201.5000,1.63794,283.933,1.09709
201.4000,3.70751,284.123,1.0992
201.3000,1.49932,284.485,1.1032
201.2000,1.97317,284.357,1.10178
201.1000,3.05629,284.264,1.10076
201.0000,2.20337,284.591,1.10437
200.9000,2.06698,284.784,1.1065
200.8000,3.06491,284.806,1.10675
200.7000,2.98685,284.945,1.10828
200.6000,2.8216,285.723,1.11686
200.5000,2.32582,285.31,1.11232
200.4000,1.30126,285.834,1.11808
200.3000,2.76077,285.435,1.11369
200.2000,2.71563,285.564,1.11511
200.1000,2.469,285.646,1.11602
200.0000,0.916256,286.549,1.12596
199.9000,2.55516,285.95,1.11936
199.8000,1.26746,286.971,1.13059
199.7000,2.0617,286.652,1.12709
199.6000,2.80764,286.582,1.12632
199.5000,1.2839,286.932,1.13016
199.4000,2.13102,287.199,1.13308
199.3000,0.518187,286.989,1.13078
199.2000,2.01501,287.188,1.13297
199.1000,2.49461,287.519,1.1366
199.0000,1.90969,287.418,1.13549
198.9000,-0.0072023,287.783,1.13949
198.8000,3.94754,287.587,1.13734
198.7000,2.16394,288.309,1.14524
198.6000,1.87755,287.914,1.14093
198.5000,2.46786,287.985,1.1417
198.4000,3.9144,288.485,1.14717
198.3000,2.04959,288.58,1.14821
198.2000,1.35849,288.877,1.15145
198.1000,3.63459,289.091,1.15378
198.0000,1.01774,289.3,1.15606
197.9000,2.40622,288.989,1.15267
197.8000,0.534647,290.015,1.16386
197.7000,0.84758,289.354,1.15665
197.6000,3.24839,289.255,1.15557
197.5000,2.86051,289.796,1.16147
197.4000,3.32562,290.138,1.16519
197.3000,0.525323,290.306,1.16702
197.2000,2.75317,290.112,1.16491
197.1000,1.10268,290.697,1.17126
197.0000,0.950741,290.427,1.16834
196.9000,1.18783,290.76,1.17195
196.8000,2.40745,291.131,1.17597
196.7000,2.1273,291.351,1.17836
196.6000,1.38377,291.555,1.18057
196.5000,1.2102,292.064,1.18609
196.4000,2.5145,292.208,1.18764
196.3000,0.873676,292.286,1.18848
196.2000,2.03345,292.78,1.19382
196.1000,1.59903,292.622,1.19212
196.0000,2.7298,293.274,1.19914
195.9000,2.6095,292.826,1.19431
195.8000,4.65572,293.695,1.20368
195.7000,1.82722,293.887,1.20575
195.6000,1.33191,294.145,1.20852
195.5000,3.57339,294.123,1.20828
195.4000,3.42846,294.747,1.21499
195.3000,2.78558,294.827,1.21585
195.2000,1.26383,294.991,1.21761
195.1000,3.63963,295.299,1.22091
195.0000,1.20221,295.965,1.22804
194.9000,1.23081,295.763,1.22588
194.8000,2.46421,295.574,1.22386
194.7000,0.730907,296.278,1.23139
194.6000,2.90786,296.391,1.2326
194.5000,2.85649,296.568,1.23449
194.4000,2.24283,297.44,1.24379
194.3000,2.12643,297.742,1.247
194.2000,1.62582,298.136,1.2512
194.1000,1.41169,298.848,1.25876
194.0000,1.96275,299.584,1.26656
193.9000,3.57549,299.818,1.26904
193.8000,2.80916,300.51,1.27636
193.7000,1.14593,301.055,1.28211
193.6000,3.2848,301.218,1.28383
193.5000,2.75251,302.149,1.29363
193.4000,2.16336,302.585,1.29821
193.3000,-0.136539,302.399,1.29626
193.2000,3.71759,303.104,1.30366
193.1000,4.10775,303.651,1.30939
193.0000,1.60838,304.637,1.3197
192.9000,1.87238,304.736,1.32073
192.8000,0.839054,305.131,1.32486
192.7000,3.14793,306.409,1.33816
192.6000,3.32362,306.771,1.34192
192.5000,2.86203,307.367,1.34811
192.4000,1.26745,308.741,1.36233
192.3000,2.78385,309.596,1.37114
192.2000,0.848771,310.035,1.37566
192.1000,2.72015,310.485,1.38029
192.0000,2.77484,311.246,1.3881
191.9000,3.30156,311.582,1.39156
191.8000,0.647267,313.097,1.40705
191.7000,1.29852,313.95,1.41575
191.6000,-0.672835,314.005,1.41631
191.5000,2.27414,315.284,1.42931
191.4000,3.25153,316.32,1.43981
191.3000,-0.192973,317.343,1.45014
191.2000,2.14044,318.098,1.45777
191.1000,4.89178,319.961,1.47648
191.0000,0.625119,321.021,1.48709
190.9000,1.02684,322.623,1.50307
190.8000,2.33017,323.694,1.51373
190.7000,1.95978,325.189,1.52854
190.6000,2.19741,326.361,1.54011
190.5000,0.308337,327.933,1.55558
190.4000,3.91744,329.151,1.56752
190.3000,0.887435,330.077,1.57658
190.2000,1.71868,331.821,1.59357
190.1000,1.51744,332.561,1.60076
190.0000,3.77376,333.903,1.61377

##### Extended Information
[Comments]
Sample name,class
Comment
User
Division
Company,Saint Mary's College

[Detailed Information]
Creation date,9/29/2021 4:03 PM

Data array type,Linear data array * 3
Horizontal axis,Wavelength [nm]
Vertical axis(1),CD [mdeg]
Vertical axis(2),HT [V]
Vertical axis(3),Abs
Start,290 nm
End,190 nm
Data interval,0.1 nm
Data points,1001    

[Measurement Information]
Instrument name,J-1500
Model name,J-1500
Serial No.,B051061638

Detector,PM-539
Detector S/N,B051061638
  Lock-in amp.,X mode
  HT volt,Auto

Accessory,PTC-517
Accessory S/N,B026561646
  Temperature,22.54 C
  Control sensor,Holder
  Monitor sensor,Holder

Measurement date,9/29/2021 4:02 PM

CD Overload detect,759
Photometric mode,CD, HT, Abs
Measure range,290 - 190 nm
Data pitch,0.1 nm
CD scale,20 mdeg/0.05 dOD
FL scale,20 mdeg/0.05 dOD
D.I.T.,64 msec
Bandwidth,1.00 nm
Start mode,Immediately
Scanning mode,Continuous
Scanning speed,50 nm/min
Baseline correction,None
Shutter control,Auto
No. of cycle,1/1
N2 Flowmeter,Manual


