TITLE,class
DATA TYPE,
ORIGIN,JASCO
OWNER,
DATE,21/09/29
TIME,17:00:27
SPECTROMETER/DATA SYSTEM,
LOCALE,1033
RESOLUTION,
DELTAX,-0.1
XUNITS,NANOMETERS
YUNITS,CD [mdeg]
Y2UNITS,HT [V]
Y3UNITS,ABSORBANCE
FIRSTX,  290.0000
LASTX,  190.0000
NPOINTS,    1001
FIRSTY,     1.88068
MAXY,     4.70873
MINY,    -0.73020
XYDATA
290.0000,1.88068,252.803,0.735529
289.9000,-0.541202,252.692,0.734171
289.8000,1.24063,252.817,0.735693
289.7000,0.894911,252.784,0.735289
289.6000,1.74284,253.245,0.740909
289.5000,0.879403,252.702,0.734292
289.4000,2.48398,253.022,0.738193
289.3000,1.49452,252.987,0.737762
289.2000,1.51879,252.994,0.737846
289.1000,2.39306,252.945,0.737256
289.0000,1.02226,252.719,0.734494
288.9000,1.96149,252.819,0.735722
288.8000,2.79735,252.78,0.735237
288.7000,1.1503,252.776,0.735192
288.6000,1.16746,252.576,0.732749
288.5000,0.762042,252.981,0.737692
288.4000,2.1557,252.457,0.731305
288.3000,1.03127,252.897,0.736665
288.2000,1.70522,252.964,0.737489
288.1000,0.970388,252.672,0.733928
288.0000,0.622848,252.563,0.732593
287.9000,1.43874,252.707,0.734351
287.8000,1.21614,252.609,0.733157
287.7000,0.436358,252.756,0.734954
287.6000,0.844386,252.459,0.731321
287.5000,2.09695,252.332,0.72978
287.4000,1.47686,252.473,0.731495
287.3000,0.918298,252.709,0.734375
287.2000,1.53485,252.74,0.73475
287.1000,1.26585,252.316,0.729576
287.0000,2.77373,252.353,0.730027
286.9000,1.13945,252.459,0.731326
286.8000,2.18559,252.426,0.730918
286.7000,0.608395,252.719,0.734504
286.6000,1.10635,252.386,0.730434
286.5000,1.12778,252.241,0.728657
286.4000,1.27359,252.303,0.729418
286.3000,1.39018,252.596,0.732998
286.2000,0.623457,252.237,0.728617
286.1000,1.03485,252.561,0.732569
286.0000,1.14164,252.58,0.732797
285.9000,1.09149,252.645,0.733601
285.8000,1.36874,252.621,0.733304
285.7000,1.50193,252.742,0.734781
285.6000,0.790284,252.082,0.726717
285.5000,0.666031,252.384,0.730404
285.4000,0.439729,252.544,0.732363
285.3000,0.776574,252.677,0.733986
285.2000,1.09526,252.476,0.731539
285.1000,1.5379,252.535,0.732258
285.0000,0.966786,252.613,0.73321
284.9000,1.30291,252.345,0.729937
284.8000,1.07866,252.214,0.728337
284.7000,1.60193,252.522,0.732094
284.6000,0.690248,252.616,0.73324
284.5000,1.36281,252.207,0.728245
284.4000,-0.00421525,252.187,0.727998
284.3000,0.978457,252.493,0.731741
284.2000,0.890549,252.389,0.730467
284.1000,1.86824,252.392,0.730506
284.0000,0.50563,252.174,0.727847
283.9000,2.01468,251.934,0.724907
283.8000,0.954306,252.357,0.730084
283.7000,1.09957,252.22,0.728408
283.6000,1.44439,251.96,0.725222
283.5000,0.47529,252.236,0.728605
283.4000,1.03465,252.194,0.728084
283.3000,1.48303,252.178,0.727892
283.2000,1.47584,252.196,0.728112
283.1000,0.94911,252.065,0.726513
283.0000,1.8209,252.195,0.7281
282.9000,0.262436,252.256,0.728846
282.8000,1.37421,251.984,0.72552
282.7000,0.750573,251.983,0.725513
282.6000,1.0733,252.15,0.727548
282.5000,1.6815,251.887,0.724336
282.4000,1.94377,252.255,0.728832
282.3000,1.16904,251.905,0.724556
282.2000,0.742104,252.105,0.727002
282.1000,1.06957,252.06,0.726448
282.0000,1.39293,252.255,0.728832
281.9000,1.03505,252.046,0.726277
281.8000,0.992296,252.063,0.72649
281.7000,0.303369,252.199,0.728147
281.6000,1.15941,252.133,0.727345
281.5000,0.932101,251.603,0.720866
281.4000,0.487327,252.13,0.727304
281.3000,1.11728,251.896,0.724448
281.2000,0.92602,251.79,0.723152
281.1000,1.5084,252.007,0.725808
281.0000,1.13983,251.886,0.724325
280.9000,0.507161,251.796,0.723227
280.8000,2.10277,251.964,0.725273
280.7000,2.20792,251.958,0.725209
280.6000,1.78733,251.886,0.72432
280.5000,0.981252,251.459,0.719091
280.4000,0.633316,251.781,0.723043
280.3000,1.88362,251.931,0.72488
280.2000,1.45296,251.825,0.723577
280.1000,1.24954,251.683,0.721845
280.0000,0.879924,251.782,0.723048
279.9000,0.433603,251.585,0.720639
279.8000,1.41802,251.746,0.722611
279.7000,0.800095,251.878,0.72423
279.6000,0.863367,251.947,0.72507
279.5000,1.26952,251.684,0.721849
279.4000,1.217,251.719,0.722282
279.3000,1.0151,251.683,0.721838
279.2000,0.790717,251.761,0.722792
279.1000,1.51445,251.695,0.721982
279.0000,1.05299,251.373,0.718045
278.9000,1.6204,252.112,0.727085
278.8000,0.464963,251.812,0.723421
278.7000,0.89878,251.981,0.725486
278.6000,0.0746763,251.663,0.721599
278.5000,1.00318,251.87,0.72413
278.4000,0.790715,251.694,0.721974
278.3000,-0.137651,251.314,0.717316
278.2000,0.892968,251.727,0.722372
278.1000,1.17319,251.635,0.721253
278.0000,2.35196,251.523,0.719876
277.9000,0.950213,251.6,0.720824
277.8000,1.30291,251.801,0.723282
277.7000,1.30936,251.597,0.720782
277.6000,1.04816,251.634,0.721244
277.5000,0.385937,251.828,0.723613
277.4000,0.333442,251.68,0.721807
277.3000,0.729781,251.65,0.721441
277.2000,0.397064,251.607,0.720906
277.1000,1.56981,251.435,0.718809
277.0000,0.892755,251.519,0.719836
276.9000,0.853137,251.445,0.718927
276.8000,1.50476,251.523,0.719876
276.7000,2.50377,251.535,0.720032
276.6000,0.806782,251.558,0.720311
276.5000,0.42745,251.228,0.716266
276.4000,1.48517,251.618,0.721043
276.3000,0.809701,251.322,0.717415
276.2000,1.42116,251.698,0.72202
276.1000,0.843368,251.404,0.718418
276.0000,0.853344,251.092,0.714595
275.9000,-0.0280821,251.322,0.717417
275.8000,1.67349,251.3,0.717151
275.7000,1.16742,251.151,0.715325
275.6000,0.558478,251.263,0.71669
275.5000,1.23011,251.459,0.719093
275.4000,1.37918,251.575,0.720516
275.3000,1.05215,251.417,0.718578
275.2000,1.8828,251.284,0.716957
275.1000,0.741267,251.563,0.720375
275.0000,1.25875,251.783,0.723064
274.9000,0.74659,251.343,0.717676
274.8000,0.744233,251.352,0.717788
274.7000,1.7962,251.433,0.718776
274.6000,0.0162571,251.803,0.723307
274.5000,0.997903,251.375,0.718071
274.4000,0.429085,251.264,0.716707
274.3000,0.696671,251.178,0.71565
274.2000,0.802015,251.385,0.718186
274.1000,0.749366,251.237,0.716379
274.0000,0.962699,251.508,0.719702
273.9000,0.843318,251.382,0.718151
273.8000,0.168766,251.018,0.713689
273.7000,0.639651,251.447,0.718949
273.6000,0.949162,251.684,0.721857
273.5000,0.50327,251.27,0.716787
273.4000,0.466351,251.222,0.716193
273.3000,0.714118,251.464,0.719163
273.2000,1.53667,251.352,0.717792
273.1000,0.106877,251.039,0.713953
273.0000,1.52718,251.353,0.717794
272.9000,1.07214,251.148,0.715289
272.8000,0.746703,251.005,0.713532
272.7000,1.15908,251.359,0.717872
272.6000,1.02216,251.353,0.717794
272.5000,0.894723,251.234,0.716341
272.4000,0.799033,251.399,0.718366
272.3000,1.60509,251.472,0.719255
272.2000,0.760503,251.592,0.72073
272.1000,0.424177,251.298,0.717124
272.0000,0.939416,251.365,0.717946
271.9000,0.729826,251.439,0.71885
271.8000,0.257241,251.327,0.717481
271.7000,0.6102,251.335,0.717575
271.6000,0.757768,251.278,0.716875
271.5000,1.22303,251.055,0.714144
271.4000,-0.0021366,251.12,0.714939
271.3000,0.923397,251.022,0.713746
271.2000,0.290357,251.342,0.717663
271.1000,1.44808,251.48,0.719355
271.0000,1.52999,251.064,0.714255
270.9000,1.35652,251.001,0.713487
270.8000,1.78833,251.268,0.716761
270.7000,0.51023,251.163,0.715471
270.6000,0.0451309,251.217,0.716131
270.5000,0.48088,250.985,0.713287
270.4000,0.883093,251.06,0.714201
270.3000,1.42856,251.074,0.714375
270.2000,1.28035,251.482,0.719381
270.1000,0.944299,251.22,0.716174
270.0000,0.843288,251.067,0.714293
269.9000,0.259604,251.169,0.715549
269.8000,-0.552968,251.061,0.714224
269.7000,1.1404,251.355,0.717823
269.6000,1.38574,251.152,0.715337
269.5000,0.215144,251.135,0.715129
269.4000,0.456232,251.268,0.716752
269.3000,0.481391,251.332,0.717544
269.2000,0.383244,251.282,0.716926
269.1000,1.02916,251.171,0.715563
269.0000,1.05234,251.121,0.71495
268.9000,1.09434,251.183,0.71571
268.8000,1.3065,251.49,0.719478
268.7000,-0.209925,251.109,0.714802
268.6000,0.291114,251.303,0.717181
268.5000,-0.174198,251.401,0.718382
268.4000,0.444434,251.144,0.71524
268.3000,1.14421,251.29,0.717026
268.2000,0.764979,251.59,0.720704
268.1000,0.197611,251.178,0.715653
268.0000,0.377538,251.219,0.716152
267.9000,-0.247536,251.348,0.71774
267.8000,0.826814,251.451,0.719005
267.7000,-0.147437,251.055,0.714146
267.6000,0.90462,251.436,0.718821
267.5000,0.381841,251.402,0.718401
267.4000,1.40385,251.429,0.718729
267.3000,0.221821,251.287,0.716988
267.2000,0.904232,251.476,0.71931
267.1000,2.21092,251.369,0.717998
267.0000,2.00974,251.426,0.718692
266.9000,0.592503,251.443,0.718897
266.8000,0.176901,251.264,0.71671
266.7000,0.30057,251.612,0.720968
266.6000,0.116432,251.38,0.718125
266.5000,0.4645,251.322,0.717417
266.4000,1.24008,251.418,0.71859
266.3000,1.17688,251.512,0.719742
266.2000,0.731435,251.515,0.719784
266.1000,0.292478,251.692,0.721946
266.0000,0.555142,251.458,0.719086
265.9000,1.13713,251.766,0.722854
265.8000,1.40095,251.82,0.723511
265.7000,-0.271233,251.517,0.719811
265.6000,1.24499,251.802,0.723292
265.5000,1.07075,251.735,0.722481
265.4000,0.173149,251.66,0.721559
265.3000,1.73134,251.671,0.721688
265.2000,1.62725,251.695,0.721993
265.1000,0.270103,251.82,0.723513
265.0000,0.7464,251.737,0.722499
264.9000,0.250537,251.654,0.72148
264.8000,0.809199,251.618,0.721041
264.7000,0.843433,251.769,0.722891
264.6000,0.568651,251.663,0.721591
264.5000,0.639456,251.88,0.724251
264.4000,0.727438,251.743,0.722568
264.3000,0.0325322,251.825,0.723575
264.2000,0.898677,252.141,0.727437
264.1000,1.87536,251.984,0.72552
264.0000,0.689172,251.714,0.722223
263.9000,0.427897,251.702,0.722072
263.8000,0.316046,251.874,0.724174
263.7000,0.252959,251.909,0.724609
263.6000,0.182486,251.841,0.723769
263.5000,0.412701,251.964,0.725273
263.4000,0.562379,251.909,0.7246
263.3000,0.853329,251.891,0.724386
263.2000,0.29468,251.866,0.724079
263.1000,0.872746,251.915,0.724682
263.0000,0.915725,252.307,0.729463
262.9000,0.0342085,251.907,0.72458
262.8000,-0.730202,251.933,0.724897
262.7000,0.482849,252.33,0.729752
262.6000,1.18789,252.208,0.728262
262.5000,1.31022,252.145,0.727494
262.4000,1.73459,252.075,0.726639
262.3000,0.801914,252.445,0.73115
262.2000,1.11379,252.316,0.729581
262.1000,1.20467,252.119,0.727174
262.0000,1.18876,252.111,0.727075
261.9000,0.675243,252.367,0.7302
261.8000,1.61933,252.255,0.728832
261.7000,1.29874,252.346,0.729949
261.6000,-0.0092359,252.513,0.731983
261.5000,-0.414298,252.29,0.729266
261.4000,0.113278,252.207,0.728254
261.3000,0.885001,252.394,0.730529
261.2000,0.700447,252.478,0.73156
261.1000,0.79687,252.222,0.72843
261.0000,0.605467,252.369,0.730223
260.9000,0.993847,252.234,0.728583
260.8000,1.60392,252.242,0.728671
260.7000,1.18817,252.364,0.730167
260.6000,0.990088,252.926,0.737023
260.5000,0.944274,252.199,0.728145
260.4000,0.0677384,252.608,0.733143
260.3000,0.168871,252.757,0.734957
260.2000,0.0622714,252.61,0.733167
260.1000,1.04925,252.473,0.73149
260.0000,-0.00154663,252.598,0.733024
259.9000,0.626919,252.508,0.731923
259.8000,-0.0337947,252.592,0.732946
259.7000,1.06398,252.705,0.734323
259.6000,0.66914,252.636,0.733483
259.5000,0.867941,252.758,0.734978
259.4000,0.835565,252.798,0.735456
259.3000,0.559225,253.006,0.737998
259.2000,0.662476,253.008,0.738027
259.1000,0.429327,252.936,0.737147
259.0000,0.825536,252.782,0.735263
258.9000,0.757518,253.041,0.738419
258.8000,1.11199,252.705,0.734334
258.7000,0.0397769,253.142,0.739651
258.6000,1.45647,253.072,0.738802
258.5000,0.738686,253.167,0.739958
258.4000,0.600181,253.084,0.738945
258.3000,0.742127,252.992,0.737822
258.2000,1.00046,253.256,0.741045
258.1000,0.885266,252.916,0.736896
258.0000,0.442687,253.201,0.740367
257.9000,0.883609,253.1,0.739142
257.8000,1.98853,253.317,0.741785
257.7000,0.885618,253.113,0.739304
257.6000,1.42389,253.191,0.740251
257.5000,0.464157,253.171,0.74001
257.4000,0.402857,253.225,0.740662
257.3000,0.438195,252.93,0.737071
257.2000,0.711065,253.445,0.743338
257.1000,0.681459,253.454,0.743457
257.0000,0.321428,252.995,0.737869
256.9000,0.889812,253.376,0.742502
256.8000,0.920125,253.42,0.743036
256.7000,1.2002,253.436,0.743231
256.6000,0.576655,253.106,0.739211
256.5000,0.606326,253.63,0.745592
256.4000,0.931084,253.628,0.745564
256.3000,0.62572,253.725,0.746751
256.2000,-0.24245,253.556,0.744699
256.1000,1.42246,253.742,0.746957
256.0000,0.564351,253.909,0.74898
255.9000,1.45387,253.73,0.746808
255.8000,0.958455,253.77,0.7473
255.7000,-0.405057,253.651,0.745852
255.6000,0.539423,253.431,0.743174
255.5000,0.955469,253.852,0.74829
255.4000,0.932136,253.709,0.746556
255.3000,0.510233,253.6,0.745233
255.2000,1.08188,253.666,0.746034
255.1000,1.07313,253.974,0.749775
255.0000,0.744899,253.728,0.746787
254.9000,1.24056,253.818,0.747882
254.8000,1.34262,253.776,0.747367
254.7000,1.32767,253.824,0.747958
254.6000,0.346418,253.681,0.74621
254.5000,0.354785,253.92,0.749125
254.4000,0.853365,253.639,0.745705
254.3000,0.745613,254.024,0.750386
254.2000,1.43355,254.033,0.750497
254.1000,1.56311,254.185,0.752343
254.0000,0.667955,253.929,0.749226
253.9000,0.592981,254.304,0.753787
253.8000,1.6214,253.819,0.74789
253.7000,0.575197,253.889,0.748746
253.6000,-0.246016,254.25,0.753125
253.5000,1.03988,254.268,0.753343
253.4000,0.702198,254.11,0.751428
253.3000,0.941747,254.188,0.752372
253.2000,0.305468,254.069,0.750924
253.1000,0.454535,254.055,0.750755
253.0000,-0.211405,254.104,0.751351
252.9000,0.968906,254.178,0.752254
252.8000,0.348656,254.372,0.754601
252.7000,1.69901,254.104,0.751359
252.6000,0.393679,254.057,0.750781
252.5000,0.782703,254.035,0.750513
252.4000,1.05789,254.34,0.754218
252.3000,0.60185,254.405,0.755012
252.2000,0.260588,254.573,0.757048
252.1000,-0.210976,254.349,0.754323
252.0000,0.324107,254.411,0.755086
251.9000,-0.337514,254.57,0.757013
251.8000,1.239,254.416,0.755136
251.7000,1.29181,254.468,0.755766
251.6000,0.669918,254.476,0.755874
251.5000,0.490021,254.16,0.752033
251.4000,-0.218981,254.457,0.755644
251.3000,1.08449,254.54,0.756641
251.2000,1.38868,254.542,0.75667
251.1000,0.861421,254.704,0.758629
251.0000,2.0501,254.404,0.754998
250.9000,0.37626,254.599,0.757365
250.8000,0.617281,254.635,0.757795
250.7000,0.627228,254.672,0.758251
250.6000,0.0683397,254.477,0.755876
250.5000,0.702122,254.474,0.75584
250.4000,0.552108,254.693,0.758498
250.3000,1.05243,254.704,0.758632
250.2000,1.19594,254.796,0.759746
250.1000,-0.280035,254.798,0.759767
250.0000,0.850167,254.694,0.758514
249.9000,-0.15251,254.707,0.758667
249.8000,1.23383,254.666,0.75817
249.7000,-0.231202,254.557,0.756855
249.6000,0.853175,254.544,0.756696
249.5000,0.15608,254.484,0.755969
249.4000,1.00468,254.635,0.7578
249.3000,1.27656,254.553,0.756799
249.2000,0.488698,254.463,0.755715
249.1000,1.30944,254.742,0.759092
249.0000,0.44413,254.738,0.759051
248.9000,1.11031,254.663,0.75814
248.8000,1.66612,254.577,0.757099
248.7000,1.97404,254.639,0.757846
248.6000,1.35672,254.314,0.7539
248.5000,0.68253,254.631,0.757752
248.4000,0.140977,254.451,0.755564
248.3000,0.54794,254.399,0.75494
248.2000,1.26224,254.414,0.755119
248.1000,0.705591,254.675,0.758285
248.0000,0.197031,254.831,0.760175
247.9000,0.669838,254.434,0.755354
247.8000,0.88592,254.701,0.758594
247.7000,0.355176,254.438,0.755405
247.6000,0.657675,254.339,0.754201
247.5000,0.497034,254.43,0.755313
247.4000,0.77204,254.842,0.760305
247.3000,0.878944,254.906,0.761086
247.2000,1.08861,254.572,0.757031
247.1000,1.64149,254.846,0.760359
247.0000,1.11221,254.898,0.760985
246.9000,0.548103,254.928,0.761352
246.8000,0.366948,254.705,0.758649
246.7000,-0.133423,254.9,0.761012
246.6000,0.0881777,255.068,0.763046
246.5000,2.10431,255,0.762213
246.4000,0.244781,254.702,0.75861
246.3000,0.0686447,255.384,0.766869
246.2000,0.846608,254.854,0.760455
246.1000,-0.145185,255.098,0.763399
246.0000,1.06083,255.147,0.763996
245.9000,1.27613,254.891,0.760902
245.8000,-0.0760264,254.873,0.760683
245.7000,1.75377,254.984,0.762026
245.6000,1.16168,255.023,0.762496
245.5000,1.52299,255.095,0.763367
245.4000,0.779669,254.976,0.761932
245.3000,1.40882,255.195,0.764573
245.2000,-0.171604,254.939,0.761481
245.1000,-0.44834,255.168,0.76425
245.0000,0.715468,255.052,0.762844
244.9000,1.14905,254.991,0.762105
244.8000,0.601317,254.824,0.760089
244.7000,-0.0708404,254.911,0.761136
244.6000,0.613616,254.804,0.759844
244.5000,1.07394,255.126,0.763744
244.4000,0.728506,255.123,0.763713
244.3000,0.855091,254.957,0.7617
244.2000,0.881037,255.147,0.764001
244.1000,1.21045,255.161,0.764169
244.0000,0.389634,255.069,0.763058
243.9000,1.3127,255.117,0.763632
243.8000,1.15623,255.428,0.767391
243.7000,-0.46529,255.433,0.767453
243.6000,1.11758,255.369,0.766689
243.5000,0.870372,255.369,0.766686
243.4000,0.367826,254.948,0.761587
243.3000,0.834575,255.233,0.765041
243.2000,1.03903,255.161,0.764172
243.1000,1.7895,255.17,0.76428
243.0000,-0.213525,255.532,0.768655
242.9000,0.797342,254.846,0.760352
242.8000,0.528674,255.424,0.76735
242.7000,1.3769,255.508,0.768361
242.6000,1.84915,255.45,0.767664
242.5000,0.769361,255.286,0.765684
242.4000,1.14203,255.455,0.76772
242.3000,-0.0907867,255.415,0.767239
242.2000,1.6357,255.352,0.766482
242.1000,1.07199,255.614,0.769643
242.0000,0.603774,254.936,0.761444
241.9000,0.473471,255.432,0.767439
241.8000,1.61582,255.644,0.770002
241.7000,1.29499,255.594,0.769398
241.6000,2.19592,255.627,0.769805
241.5000,0.788002,255.479,0.768008
241.4000,0.790154,255.713,0.77084
241.3000,1.72014,255.762,0.771439
241.2000,0.818438,255.705,0.770745
241.1000,0.761264,255.432,0.767445
241.0000,1.60746,255.876,0.772806
240.9000,0.167857,256.103,0.775548
240.8000,1.04371,255.819,0.772127
240.7000,-0.194989,255.735,0.771113
240.6000,2.95813,255.744,0.771217
240.5000,0.887862,255.521,0.768518
240.4000,0.553994,256.112,0.775662
240.3000,0.809587,256.03,0.774674
240.2000,1.45559,255.86,0.772613
240.1000,1.54032,255.892,0.773006
240.0000,1.71554,255.948,0.773676
239.9000,0.437536,256.477,0.780061
239.8000,0.8777,256.103,0.775551
239.7000,0.96672,256.15,0.776116
239.6000,0.806872,256.373,0.778801
239.5000,1.74435,256.515,0.780517
239.4000,1.03778,256.496,0.780286
239.3000,1.36643,256.373,0.778801
239.2000,1.28262,256.443,0.779644
239.1000,0.0613515,256.549,0.780921
239.0000,-0.0794135,256.509,0.780443
238.9000,-0.121285,256.596,0.781487
238.8000,0.665067,256.676,0.782451
238.7000,1.03926,256.887,0.785
238.6000,0.441121,256.793,0.78387
238.5000,0.239323,256.591,0.781435
238.4000,0.246374,256.867,0.784753
238.3000,0.429328,256.51,0.780455
238.2000,1.67846,257.131,0.787934
238.1000,1.29797,256.846,0.784506
238.0000,1.80137,256.979,0.786103
237.9000,0.746752,257.121,0.787816
237.8000,0.668468,256.967,0.785959
237.7000,0.0884544,257.357,0.790648
237.6000,1.28467,256.957,0.78584
237.5000,0.890993,257.454,0.791811
237.4000,1.58774,257.639,0.794029
237.3000,0.499368,257.05,0.78696
237.2000,1.10261,257.406,0.791241
237.1000,1.70111,257.161,0.78829
237.0000,1.26043,257.554,0.793012
236.9000,1.37137,257.674,0.794458
236.8000,0.871013,257.362,0.790712
236.7000,1.20938,257.679,0.79451
236.6000,1.87986,257.769,0.79559
236.5000,1.09524,257.582,0.793353
236.4000,1.39441,257.671,0.794413
236.3000,1.18942,257.942,0.797668
236.2000,0.985097,257.94,0.797647
236.1000,0.816242,257.964,0.797936
236.0000,1.97326,258.04,0.798839
235.9000,1.25386,258.095,0.799502
235.8000,0.736775,258.272,0.801623
235.7000,1.11451,258.482,0.804136
235.6000,1.95249,258.637,0.805992
235.5000,0.0275892,258.454,0.803803
235.4000,1.00075,258.59,0.805429
235.3000,0.883108,258.552,0.804976
235.2000,-0.0430846,258.272,0.801627
235.1000,1.60126,258.668,0.806363
235.0000,1.17436,258.718,0.806968
234.9000,2.4062,258.546,0.804904
234.8000,0.627621,258.798,0.807923
234.7000,1.28597,258.734,0.807153
234.6000,0.387184,258.566,0.805148
234.5000,0.218476,259.141,0.812017
234.4000,1.06663,258.916,0.809334
234.3000,2.62579,259.27,0.813565
234.2000,2.11179,259.058,0.811029
234.1000,-0.679174,258.898,0.809117
234.0000,0.999194,259.439,0.815582
233.9000,0.418669,259.305,0.813984
233.8000,2.08977,259.379,0.814862
233.7000,0.71293,259.438,0.815569
233.6000,0.992184,259.472,0.81598
233.5000,1.71541,259.697,0.818654
233.4000,1.06882,259.668,0.818315
233.3000,1.44673,259.893,0.821
233.2000,1.30174,259.652,0.818124
233.1000,0.385627,259.737,0.819141
233.0000,0.87275,260.08,0.823224
232.9000,0.171922,260.041,0.82276
232.8000,1.48997,260.096,0.823419
232.7000,1.04876,259.92,0.821322
232.6000,0.813029,260.206,0.824718
232.5000,1.54864,259.975,0.82197
232.4000,1.33017,260.137,0.823907
232.3000,1.19616,260.635,0.829831
232.2000,1.76938,260.391,0.826923
232.1000,0.367644,260.267,0.825455
232.0000,1.50081,260.719,0.830825
231.9000,0.661432,260.853,0.832417
231.8000,0.162517,260.568,0.829033
231.7000,0.598158,260.655,0.830065
231.6000,1.63003,260.773,0.831466
231.5000,1.75794,260.77,0.831436
231.4000,2.72129,260.739,0.831059
231.3000,1.13461,261.106,0.83543
231.2000,1.19177,261.043,0.834675
231.1000,0.779786,261.175,0.836242
231.0000,1.19737,260.918,0.833193
230.9000,0.972692,261.134,0.835761
230.8000,1.14448,261.201,0.836551
230.7000,1.71891,261.002,0.834194
230.6000,0.551692,261.119,0.835579
230.5000,1.20033,261.332,0.838107
230.4000,1.25938,261.239,0.836998
230.3000,1.50964,260.867,0.83259
230.2000,1.49533,261.192,0.836449
230.1000,0.686404,261.222,0.8368
230.0000,0.912226,261.012,0.834305
229.9000,0.520995,260.897,0.832938
229.8000,1.53211,260.882,0.832759
229.7000,1.5642,260.723,0.830868
229.6000,1.00065,260.922,0.83324
229.5000,1.36412,260.967,0.833768
229.4000,1.97203,261.23,0.836901
229.3000,1.51881,261.435,0.839324
229.2000,1.17762,261.073,0.835033
229.1000,0.869308,261.316,0.837918
229.0000,0.100399,261.561,0.840817
228.9000,0.865149,261.886,0.84467
228.8000,2.24189,261.822,0.843915
228.7000,0.706827,262.298,0.849546
228.6000,0.754651,262.09,0.847083
228.5000,1.48131,262.364,0.850335
228.4000,1.09464,262.488,0.851799
228.3000,2.69791,262.593,0.853034
228.2000,1.30694,262.611,0.853252
228.1000,1.56795,262.566,0.852716
228.0000,1.54512,262.996,0.857798
227.9000,-0.241599,262.999,0.857829
227.8000,0.822221,262.833,0.855871
227.7000,1.2344,263.286,0.861219
227.6000,1.37686,263.227,0.860524
227.5000,0.692317,263.488,0.863596
227.4000,0.866829,263.542,0.864236
227.3000,1.69969,263.579,0.864674
227.2000,0.705556,263.307,0.861461
227.1000,2.0646,263.634,0.865322
227.0000,1.22073,263.631,0.86528
226.9000,2.33388,263.318,0.861598
226.8000,1.71518,263.577,0.864643
226.7000,2.19063,263.364,0.862134
226.6000,0.305136,263.87,0.868101
226.5000,2.2029,264.04,0.870091
226.4000,0.870568,263.978,0.869361
226.3000,2.09208,263.779,0.867028
226.2000,0.483992,264.179,0.871733
226.1000,0.343899,264.143,0.871304
226.0000,1.12283,264.143,0.871312
225.9000,1.09718,264.21,0.8721
225.8000,0.794309,264.26,0.872681
225.7000,1.74404,264.612,0.876824
225.6000,0.639077,264.543,0.876011
225.5000,0.641868,264.659,0.877368
225.4000,0.851281,264.855,0.879668
225.3000,0.766819,264.492,0.875404
225.2000,0.885987,264.897,0.880167
225.1000,1.87845,265.02,0.881609
225.0000,0.788764,265.139,0.883005
224.9000,1.41452,265.038,0.88182
224.8000,1.07631,265.134,0.882947
224.7000,1.82515,265.304,0.884933
224.6000,1.65826,265.232,0.884091
224.5000,1.35761,265.421,0.886305
224.4000,0.243445,265.362,0.885611
224.3000,0.864398,265.567,0.888019
224.2000,0.846104,265.389,0.885928
224.1000,1.28409,265.553,0.887847
224.0000,2.32736,265.366,0.885666
223.9000,0.331283,265.654,0.889031
223.8000,0.976176,265.882,0.8917
223.7000,0.493171,265.798,0.890713
223.6000,0.734621,265.795,0.89068
223.5000,1.45259,266.379,0.897508
223.4000,1.79717,266.207,0.8955
223.3000,2.25179,266.515,0.899092
223.2000,0.317046,266.354,0.89722
223.1000,0.964931,266.31,0.896704
223.0000,0.00602725,266.563,0.899659
222.9000,0.998318,266.199,0.895412
222.8000,0.631837,266.414,0.897918
222.7000,1.12919,266.498,0.898897
222.6000,-0.039449,266.874,0.903279
222.5000,1.41765,266.786,0.902256
222.4000,0.82124,266.848,0.902982
222.3000,1.59522,266.593,0.900013
222.2000,0.686065,266.788,0.902283
222.1000,-0.271264,266.805,0.902481
222.0000,0.351086,266.955,0.90423
221.9000,0.579181,266.855,0.903057
221.8000,1.73087,266.75,0.901843
221.7000,2.16636,267.142,0.90641
221.6000,1.54255,267.195,0.907025
221.5000,1.32275,267.19,0.906963
221.4000,1.12631,267.277,0.907979
221.3000,1.74119,267.173,0.906773
221.2000,1.60584,267.609,0.911841
221.1000,1.64477,267.708,0.912994
221.0000,1.07467,267.51,0.910687
220.9000,1.66517,267.497,0.910542
220.8000,0.474566,267.639,0.91219
220.7000,1.04424,267.801,0.914074
220.6000,-0.113549,267.77,0.91372
220.5000,0.904808,267.46,0.910112
220.4000,2.5205,268.06,0.91709
220.3000,0.709915,268.013,0.916539
220.2000,1.08588,268.065,0.917149
220.1000,1.80333,267.955,0.915867
220.0000,1.69168,267.852,0.914675
219.9000,1.63759,268.32,0.920101
219.8000,0.751684,268.422,0.921291
219.7000,0.493,268.106,0.917616
219.6000,0.609492,268.454,0.921662
219.5000,1.34159,268.351,0.920462
219.4000,1.76863,268.465,0.921785
219.3000,1.72399,268.343,0.920377
219.2000,1.42539,268.6,0.92335
219.1000,-0.353708,268.635,0.923758
219.0000,1.04853,268.741,0.92499
218.9000,1.25149,268.642,0.923842
218.8000,0.594628,268.681,0.924291
218.7000,0.0581731,268.787,0.925519
218.6000,1.13549,268.764,0.925261
218.5000,1.58573,268.978,0.927737
218.4000,0.0280251,268.94,0.927293
218.3000,0.732325,268.715,0.924691
218.2000,2.36082,269.048,0.928544
218.1000,2.7571,269.41,0.932741
218.0000,2.04985,269.307,0.93155
217.9000,2.3477,269.339,0.93192
217.8000,2.46247,269.261,0.931014
217.7000,0.84842,269.479,0.933536
217.6000,1.58014,269.547,0.934325
217.5000,1.0771,269.2,0.930304
217.4000,1.6781,269.417,0.932818
217.3000,1.32977,269.884,0.938219
217.2000,2.57998,269.503,0.933814
217.1000,1.17792,269.689,0.935957
217.0000,-0.137869,269.843,0.937738
216.9000,1.4962,270.152,0.941312
216.8000,2.37358,270.27,0.942673
216.7000,2.00493,270.222,0.942122
216.6000,2.94025,269.972,0.939237
216.5000,2.29528,270.385,0.943995
216.4000,1.0762,270.445,0.944694
216.3000,2.07018,270.075,0.940417
216.2000,1.82943,270.332,0.943387
216.1000,1.93821,270.37,0.943821
216.0000,0.551225,270.543,0.945822
215.9000,1.84965,270.488,0.945182
215.8000,1.28673,270.539,0.945778
215.7000,1.75124,270.555,0.945958
215.6000,0.930985,270.651,0.947064
215.5000,1.14538,270.736,0.948047
215.4000,0.307562,270.596,0.946434
215.3000,1.63257,270.994,0.95101
215.2000,1.66523,270.925,0.950216
215.1000,1.54297,271.061,0.951786
215.0000,1.72829,270.932,0.950306
214.9000,-0.706228,270.789,0.948654
214.8000,1.79771,271.111,0.952367
214.7000,2.05893,271.228,0.953709
214.6000,2.05173,270.91,0.950043
214.5000,1.88335,271.039,0.951534
214.4000,2.49917,271.285,0.954358
214.3000,0.304703,271.046,0.951614
214.2000,0.0500663,271.288,0.9544
214.1000,0.968566,271.726,0.95943
214.0000,1.69285,271.508,0.956929
213.9000,1.78528,271.452,0.956286
213.8000,2.16265,271.57,0.957639
213.7000,0.680046,271.558,0.957507
213.6000,2.74254,271.654,0.958605
213.5000,1.70794,271.699,0.959125
213.4000,0.568703,271.639,0.958428
213.3000,1.89599,272.032,0.962946
213.2000,1.18585,271.875,0.961143
213.1000,1.61554,271.844,0.960792
213.0000,2.07831,271.893,0.961346
212.9000,0.935974,272.072,0.963409
212.8000,1.1657,272.219,0.965091
212.7000,2.40422,271.872,0.961114
212.6000,1.68952,272.358,0.966689
212.5000,1.90729,272.056,0.963224
212.4000,2.38435,272.381,0.966947
212.3000,0.585114,272.404,0.967213
212.2000,1.57462,272.153,0.964337
212.1000,0.567028,272.927,0.973197
212.0000,1.95944,272.454,0.967783
211.9000,1.82132,272.38,0.966934
211.8000,1.63965,273.109,0.975279
211.7000,2.62342,272.895,0.972832
211.6000,2.17363,272.833,0.97213
211.5000,1.16995,273.114,0.975341
211.4000,2.54503,273.122,0.975432
211.3000,2.52991,273.144,0.975683
211.2000,1.58465,273.036,0.974443
211.1000,2.16542,273.267,0.977093
211.0000,1.45525,273.112,0.975318
210.9000,1.07115,273.147,0.97572
210.8000,0.787971,273.406,0.978684
210.7000,1.93791,273.568,0.980526
210.6000,2.047,273.559,0.980429
210.5000,2.91881,273.677,0.98177
210.4000,1.02254,273.84,0.983631
210.3000,1.68649,273.566,0.980502
210.2000,1.34072,273.673,0.981724
210.1000,0.312805,274.046,0.985988
210.0000,1.84478,273.983,0.985263
209.9000,1.44776,273.882,0.984117
209.8000,2.04374,274.137,0.987025
209.7000,0.665029,274.007,0.985539
209.6000,3.78712,274.148,0.987145
209.5000,2.38638,274.315,0.989051
209.4000,3.13091,274.703,0.993472
209.3000,1.26759,274.477,0.990897
209.2000,3.61576,274.453,0.990624
209.1000,0.548129,274.573,0.991996
209.0000,1.94753,274.736,0.993842
208.9000,3.04108,274.922,0.995958
208.8000,0.442194,275.227,0.999433
208.7000,0.380007,274.661,0.992994
208.6000,2.95455,275.332,1.00062
208.5000,1.64204,275.084,0.9978
208.4000,1.14378,275.325,1.00054
208.3000,2.56837,275.002,0.996872
208.2000,2.43593,275.358,1.00092
208.1000,1.09575,275.384,1.00122
208.0000,2.36173,275.458,1.00206
207.9000,3.7654,275.886,1.00691
207.8000,2.83205,276.191,1.01037
207.7000,2.79811,275.985,1.00803
207.6000,1.092,276.341,1.01207
207.5000,2.16946,276.081,1.00912
207.4000,1.85084,276.279,1.01137
207.3000,1.27762,276.439,1.01318
207.2000,1.91728,276.074,1.00905
207.1000,1.88965,276.604,1.01505
207.0000,2.52371,276.892,1.01831
206.9000,1.54649,276.799,1.01726
206.8000,1.62861,276.83,1.0176
206.7000,1.38446,276.785,1.01709
206.6000,2.38537,277.117,1.02084
206.5000,2.0398,276.992,1.01944
206.4000,1.86246,277.369,1.02369
206.3000,2.07885,277.417,1.02423
206.2000,2.04662,277.414,1.0242
206.1000,2.3675,277.456,1.02468
206.0000,2.42929,277.734,1.02782
205.9000,1.29409,277.938,1.03011
205.8000,2.4085,277.682,1.02723
205.7000,2.68288,277.923,1.02994
205.6000,1.52492,277.908,1.02977
205.5000,1.13718,277.854,1.02917
205.4000,1.28239,278.264,1.03379
205.3000,1.51294,278.404,1.03536
205.2000,3.73465,278.277,1.03394
205.1000,1.07866,278.846,1.04033
205.0000,1.77661,278.984,1.04189
204.9000,3.08614,278.815,1.03999
204.8000,1.94843,279.026,1.04235
204.7000,2.95873,279.514,1.04784
204.6000,1.73422,279.381,1.04635
204.5000,2.17071,279.408,1.04665
204.4000,2.25587,279.703,1.04996
204.3000,0.294677,279.91,1.05228
204.2000,0.869035,279.918,1.05237
204.1000,1.90027,279.836,1.05145
204.0000,1.72408,280.055,1.0539
203.9000,2.12261,280.436,1.05817
203.8000,3.35033,280.37,1.05743
203.7000,1.787,280.613,1.06015
203.6000,1.92347,280.829,1.06257
203.5000,3.37476,280.594,1.05993
203.4000,2.17543,280.86,1.06291
203.3000,2.45384,281.205,1.06676
203.2000,1.39989,281.143,1.06607
203.1000,2.68564,281.306,1.06789
203.0000,1.4533,281.429,1.06927
202.9000,1.73042,281.223,1.06697
202.8000,0.891624,281.628,1.07148
202.7000,3.16848,281.746,1.0728
202.6000,2.05593,281.91,1.07463
202.5000,1.1166,281.996,1.07558
202.4000,2.92832,282.366,1.07971
202.3000,1.58009,281.938,1.07494
202.2000,2.84683,282.876,1.08537
202.1000,1.78901,282.856,1.08515
202.0000,2.02795,282.97,1.08641
201.9000,1.67603,283.278,1.08984
201.8000,3.08951,283.433,1.09156
201.7000,1.44704,283.897,1.09669
201.6000,3.79738,283.753,1.0951
201.5000,2.20016,284.068,1.09859
201.4000,1.81128,284.088,1.09881
201.3000,1.67901,284.16,1.0996
201.2000,2.76713,284.199,1.10004
201.1000,2.34162,284.562,1.10405
201.0000,2.19651,284.619,1.10468
200.9000,2.66866,284.856,1.1073
200.8000,2.59254,284.859,1.10734
200.7000,3.03398,285.046,1.1094
200.6000,2.71042,285.445,1.11381
200.5000,0.112371,285.593,1.11543
200.4000,3.56716,285.605,1.11556
200.3000,3.39457,285.945,1.11931
200.2000,2.41574,285.792,1.11762
200.1000,2.25948,285.84,1.11815
200.0000,2.77336,286.326,1.1235
199.9000,2.10918,286.387,1.12417
199.8000,2.87724,286.912,1.12994
199.7000,2.50572,286.854,1.1293
199.6000,2.00609,286.744,1.12809
199.5000,3.92178,287.188,1.13296
199.4000,0.851223,287.191,1.133
199.3000,2.91078,287.216,1.13327
199.2000,2.87375,287.294,1.13414
199.1000,2.84563,287.371,1.13497
199.0000,3.36296,287.604,1.13753
198.9000,2.4928,287.52,1.13661
198.8000,3.54533,287.99,1.14175
198.7000,1.81865,288.064,1.14257
198.6000,2.28796,287.921,1.141
198.5000,2.18784,288.376,1.14597
198.4000,0.619461,288.605,1.14848
198.3000,1.57355,288.883,1.15152
198.2000,1.79176,289.103,1.15392
198.1000,1.73549,288.925,1.15197
198.0000,3.23609,288.962,1.15238
197.9000,2.49792,289.282,1.15586
197.8000,2.18887,289.304,1.15611
197.7000,1.54535,289.664,1.16004
197.6000,0.579118,289.778,1.16127
197.5000,2.5595,289.744,1.1609
197.4000,2.6761,289.881,1.16239
197.3000,0.576679,290.366,1.16767
197.2000,2.51842,290.366,1.16767
197.1000,3.02333,290.282,1.16675
197.0000,2.34383,290.765,1.172
196.9000,3.41502,290.712,1.17143
196.8000,0.970573,290.922,1.1737
196.7000,1.53684,291.215,1.17689
196.6000,3.27,291.404,1.17894
196.5000,2.94837,292.007,1.18546
196.4000,2.69604,292.065,1.18609
196.3000,2.22931,292.284,1.18846
196.2000,2.53861,292.551,1.19134
196.1000,3.0932,292.392,1.18963
196.0000,2.05022,293.026,1.19647
195.9000,1.31832,293.311,1.19954
195.8000,2.81282,293.995,1.20691
195.7000,1.53787,293.605,1.20271
195.6000,2.34087,293.932,1.20623
195.5000,1.25739,294.402,1.21128
195.4000,2.37671,294.214,1.20927
195.3000,1.44417,294.863,1.21624
195.2000,1.74666,295.055,1.2183
195.1000,2.13808,295.302,1.22095
195.0000,1.3317,295.81,1.22638
194.9000,3.75305,295.817,1.22646
194.8000,1.0137,296.233,1.23091
194.7000,2.37808,296.324,1.23189
194.6000,2.9045,297.135,1.24054
194.5000,0.666955,297.173,1.24095
194.4000,2.39696,297.873,1.2484
194.3000,1.67163,297.854,1.2482
194.2000,1.58165,298.429,1.25432
194.1000,2.71927,298.872,1.25901
194.0000,2.8966,299.27,1.26323
193.9000,2.41101,299.914,1.27005
193.8000,2.21593,300.592,1.27723
193.7000,2.4371,301.209,1.28374
193.6000,1.87061,301.485,1.28664
193.5000,1.90787,302.037,1.29245
193.4000,2.54543,302.4,1.29627
193.3000,1.78342,302.694,1.29936
193.2000,1.47097,303.178,1.30444
193.1000,1.83418,303.969,1.31272
193.0000,0.318461,304.472,1.31798
192.9000,2.17394,305.109,1.32463
192.8000,2.15555,305.596,1.32971
192.7000,1.24406,306.483,1.33893
192.6000,2.05014,307.306,1.34747
192.5000,-0.607719,307.967,1.35433
192.4000,4.70873,308.674,1.36163
192.3000,3.33876,309.434,1.36947
192.2000,2.34353,310.008,1.37539
192.1000,1.28782,310.585,1.38133
192.0000,0.297801,311.513,1.39085
191.9000,1.71855,311.928,1.3951
191.8000,-0.353812,313.003,1.40609
191.7000,1.97648,313.433,1.41048
191.6000,2.14426,314.855,1.42495
191.5000,1.89638,315.534,1.43184
191.4000,2.56004,316.343,1.44004
191.3000,1.74056,317.248,1.44918
191.2000,3.02442,318.611,1.46292
191.1000,2.76065,320.09,1.47778
191.0000,1.45604,321.113,1.48801
190.9000,2.59579,322.552,1.50237
190.8000,3.13715,323.985,1.51661
190.7000,2.63777,325.363,1.53026
190.6000,4.08274,326.348,1.53998
190.5000,1.55125,327.758,1.55386
190.4000,2.76028,329.211,1.56811
190.3000,2.03416,330.465,1.58037
190.2000,1.44174,331.703,1.59243
190.1000,2.85011,332.78,1.60288
190.0000,1.5895,334.045,1.61514

##### Extended Information
[Comments]
Sample name,class
Comment
User
Division
Company,Saint Mary's College

[Detailed Information]
Creation date,9/29/2021 4:00 PM

Data array type,Linear data array * 3
Horizontal axis,Wavelength [nm]
Vertical axis(1),CD [mdeg]
Vertical axis(2),HT [V]
Vertical axis(3),Abs
Start,290 nm
End,190 nm
Data interval,0.1 nm
Data points,1001    

[Measurement Information]
Instrument name,J-1500
Model name,J-1500
Serial No.,B051061638

Detector,PM-539
Detector S/N,B051061638
  Lock-in amp.,X mode
  HT volt,Auto

Accessory,PTC-517
Accessory S/N,B026561646
  Temperature,22.54 C
  Control sensor,Holder
  Monitor sensor,Holder

Measurement date,9/29/2021 4:00 PM

CD Overload detect,882
Photometric mode,CD, HT, Abs
Measure range,290 - 190 nm
Data pitch,0.1 nm
CD scale,20 mdeg/0.05 dOD
FL scale,20 mdeg/0.05 dOD
D.I.T.,64 msec
Bandwidth,1.00 nm
Start mode,Immediately
Scanning mode,Continuous
Scanning speed,50 nm/min
Baseline correction,None
Shutter control,Auto
No. of cycle,1/1
N2 Flowmeter,Manual


