TITLE,class
DATA TYPE,
ORIGIN,JASCO
OWNER,
DATE,21/09/29
TIME,16:39:48
SPECTROMETER/DATA SYSTEM,
LOCALE,1033
RESOLUTION,
DELTAX,-0.1
XUNITS,NANOMETERS
YUNITS,CD [mdeg]
Y2UNITS,HT [V]
Y3UNITS,ABSORBANCE
FIRSTX,  290.0000
LASTX,  190.0000
NPOINTS,    1001
FIRSTY,     0.53548
MAXY,    13.69155
MINY,    -5.57523
XYDATA
290.0000,0.535485,252.805,0.735551
289.9000,1.58276,253.048,0.738509
289.8000,1.71196,253.11,0.739268
289.7000,0.814443,253.033,0.738321
289.6000,1.40059,253.111,0.739278
289.5000,2.08613,253.238,0.740824
289.4000,0.339036,253.233,0.740762
289.3000,-0.259132,253.015,0.738105
289.2000,0.929106,253.232,0.740748
289.1000,1.35993,253.157,0.739841
289.0000,0.90949,253.372,0.742455
288.9000,1.36873,253.32,0.741817
288.8000,1.65995,253.166,0.739951
288.7000,1.80814,253.157,0.739839
288.6000,-0.00255625,253.161,0.739882
288.5000,1.60858,252.971,0.737573
288.4000,2.19374,253.008,0.738026
288.3000,1.2757,252.977,0.737642
288.2000,1.06354,252.96,0.737435
288.1000,1.14694,253.015,0.738107
288.0000,1.61152,253.216,0.740553
287.9000,0.714018,252.81,0.735608
287.8000,1.25445,253.082,0.738921
287.7000,1.28973,252.945,0.737256
287.6000,1.83564,253.058,0.738635
287.5000,1.57997,252.722,0.734532
287.4000,1.23297,253.064,0.738699
287.3000,1.81419,252.919,0.736938
287.2000,1.06473,252.857,0.736182
287.1000,1.58477,252.883,0.736496
287.0000,0.803848,253.08,0.738897
286.9000,1.50536,253.01,0.738044
286.8000,1.25785,253.01,0.738046
286.7000,1.6865,252.973,0.737591
286.6000,1.5992,252.911,0.736834
286.5000,2.07262,252.968,0.737529
286.4000,1.58198,252.939,0.737185
286.3000,1.95708,252.711,0.734399
286.2000,1.55153,252.903,0.736741
286.1000,2.10443,252.839,0.735964
286.0000,1.33041,252.866,0.736287
285.9000,1.47539,252.76,0.735004
285.8000,2.11011,252.963,0.737475
285.7000,1.04502,252.858,0.736199
285.6000,1.29674,252.729,0.734615
285.5000,0.770135,252.772,0.735142
285.4000,1.7653,252.803,0.735522
285.3000,1.38457,252.71,0.734389
285.2000,0.734665,252.718,0.734489
285.1000,0.577424,252.708,0.73437
285.0000,1.81126,252.68,0.734017
284.9000,0.465901,253.009,0.738038
284.8000,0.945576,252.923,0.736988
284.7000,1.34358,252.535,0.732255
284.6000,1.30415,252.726,0.734584
284.5000,2.08311,252.747,0.734838
284.4000,1.17087,252.888,0.736565
284.3000,1.71869,252.734,0.734676
284.2000,0.949344,252.628,0.733388
284.1000,1.83872,252.338,0.729853
284.0000,1.40379,252.74,0.734752
283.9000,1.214,252.647,0.733615
283.8000,1.39759,252.506,0.731897
283.7000,1.76469,252.97,0.737563
283.6000,0.785759,252.635,0.733475
283.5000,1.77054,252.593,0.73296
283.4000,1.42743,252.685,0.734088
283.3000,1.85492,252.537,0.732282
283.2000,0.607561,252.595,0.732984
283.1000,0.686224,252.61,0.733172
283.0000,1.60088,252.288,0.72924
282.9000,1.27305,252.269,0.729005
282.8000,1.80134,252.443,0.731125
282.7000,0.854924,252.8,0.735489
282.6000,0.487844,252.8,0.735486
282.5000,1.31401,252.292,0.729292
282.4000,1.01091,252.421,0.730859
282.3000,1.99137,252.432,0.731001
282.2000,0.738451,252.444,0.731141
282.1000,1.15714,252.497,0.731789
282.0000,1.45382,252.57,0.732676
281.9000,1.69709,252.274,0.729067
281.8000,1.63411,252.272,0.729036
281.7000,0.580366,252.467,0.731428
281.6000,1.17455,252.677,0.733983
281.5000,1.38541,252.471,0.731466
281.4000,0.863289,252.408,0.730707
281.3000,0.591718,252.586,0.73287
281.2000,1.2368,252.399,0.730591
281.1000,1.34178,252.41,0.730731
281.0000,1.41708,252.063,0.726483
280.9000,0.81956,251.933,0.724899
280.8000,1.19248,252.534,0.732239
280.7000,0.406979,252.194,0.728093
280.6000,2.29051,252.515,0.732004
280.5000,1.88979,252.514,0.732
280.4000,1.18022,252.445,0.731151
280.3000,1.93657,252.308,0.729486
280.2000,-0.169658,252.151,0.727565
280.1000,1.73833,252.144,0.727484
280.0000,1.29341,252.334,0.729804
279.9000,2.29746,252.377,0.730325
279.8000,1.52917,252.37,0.730235
279.7000,1.42544,252.017,0.725929
279.6000,0.806885,252.507,0.73191
279.5000,0.719599,252.21,0.728282
279.4000,1.35858,252.048,0.726308
279.3000,1.91579,251.619,0.721053
279.2000,1.55166,252.356,0.730064
279.1000,0.527783,252.56,0.732554
279.0000,1.21375,252.222,0.728435
278.9000,2.12615,251.967,0.725318
278.8000,0.969295,252.327,0.729709
278.7000,0.85261,251.977,0.72543
278.6000,1.41388,251.844,0.723814
278.5000,1.9029,251.961,0.725241
278.4000,1.26365,252.179,0.727911
278.3000,1.40081,252.348,0.729975
278.2000,1.96383,251.857,0.723968
278.1000,0.843725,252.013,0.725872
278.0000,1.30344,252.055,0.726395
277.9000,1.90868,252.136,0.727375
277.8000,0.68336,252.177,0.72788
277.7000,1.22804,252.088,0.72679
277.6000,1.41282,252.036,0.726154
277.5000,1.17824,251.865,0.724072
277.4000,0.815292,252.01,0.725841
277.3000,-0.0560455,252.261,0.72891
277.2000,-0.3282,252.165,0.727735
277.1000,1.66931,252.225,0.728472
277.0000,0.57642,252.12,0.727188
276.9000,0.259863,251.832,0.723658
276.8000,1.65266,252.099,0.726925
276.7000,1.99931,252.041,0.726223
276.6000,0.76786,251.973,0.725385
276.5000,1.55266,252.132,0.727326
276.4000,0.587146,251.833,0.723676
276.3000,1.3193,252.019,0.725946
276.2000,-0.0514301,252.04,0.726211
276.1000,0.515102,251.739,0.72252
276.0000,0.990885,252.018,0.72594
275.9000,0.601479,251.971,0.725366
275.8000,2.16296,251.777,0.722995
275.7000,1.60637,251.924,0.724782
275.6000,0.518978,251.734,0.722464
275.5000,1.35336,251.932,0.724883
275.4000,0.204528,252.404,0.73065
275.3000,0.239847,252.082,0.726715
275.2000,1.30142,251.943,0.725023
275.1000,0.989259,251.807,0.723355
275.0000,0.913367,251.876,0.724204
274.9000,-0.456264,251.735,0.722481
274.8000,-0.159657,252.133,0.727349
274.7000,1.7887,251.96,0.725235
274.6000,1.47826,251.643,0.721353
274.5000,0.191907,251.648,0.721415
274.4000,0.30137,252.178,0.727897
274.3000,1.65763,251.739,0.72253
274.2000,-0.244872,251.831,0.72365
274.1000,0.72976,251.603,0.720859
274.0000,0.63807,251.828,0.72361
273.9000,0.70255,251.834,0.723689
273.8000,0.894561,251.949,0.725098
273.7000,0.295006,251.476,0.71931
273.6000,1.07287,251.552,0.720231
273.5000,1.00918,252.006,0.725787
273.4000,1.07947,251.587,0.72067
273.3000,1.55227,251.736,0.722492
273.2000,-0.0100874,251.519,0.719827
273.1000,1.01155,251.62,0.721063
273.0000,1.51735,251.555,0.720273
272.9000,1.1173,251.546,0.720157
272.8000,1.19499,251.565,0.720396
272.7000,1.04761,251.831,0.72365
272.6000,1.0986,251.511,0.719735
272.5000,1.58485,251.584,0.720623
272.4000,0.691158,251.605,0.72088
272.3000,0.97044,251.514,0.719768
272.2000,1.33875,251.422,0.718644
272.1000,2.58482,251.437,0.718831
272.0000,1.34822,251.686,0.721871
271.9000,0.078279,251.757,0.722745
271.8000,0.54036,251.359,0.717868
271.7000,1.97019,251.53,0.719971
271.6000,1.86619,251.921,0.724746
271.5000,0.330869,251.436,0.718817
271.4000,0.434593,251.47,0.719235
271.3000,0.565046,251.83,0.723641
271.2000,-0.224753,251.817,0.72348
271.1000,1.13639,251.455,0.719045
271.0000,-0.393125,251.639,0.721296
270.9000,1.15473,251.978,0.725455
270.8000,1.98976,251.57,0.720451
270.7000,1.16968,251.625,0.721131
270.6000,0.514591,251.771,0.722917
270.5000,1.38188,252.03,0.726085
270.4000,1.04666,251.354,0.717809
270.3000,-0.843726,251.878,0.724223
270.2000,1.42597,251.989,0.725583
270.1000,1.27935,251.426,0.718692
270.0000,-0.0940124,251.699,0.722038
269.9000,0.277314,251.559,0.720326
269.8000,-0.195727,251.791,0.723156
269.7000,0.448177,251.486,0.719433
269.6000,-0.289871,251.946,0.725056
269.5000,0.721424,251.721,0.722299
269.4000,0.70778,251.666,0.721632
269.3000,0.244335,251.439,0.718849
269.2000,1.3232,251.715,0.722237
269.1000,0.627523,251.704,0.722098
269.0000,0.706146,251.39,0.71825
268.9000,0.520056,251.682,0.72183
268.8000,0.787869,251.887,0.724337
268.7000,0.666791,251.679,0.721795
268.6000,0.899311,251.662,0.721585
268.5000,0.618298,251.818,0.723492
268.4000,0.482652,251.82,0.723514
268.3000,1.75095,251.575,0.720521
268.2000,1.07699,252.022,0.725991
268.1000,0.341727,251.712,0.72219
268.0000,-0.383959,252.08,0.726699
267.9000,0.935609,251.727,0.722376
267.8000,0.628545,251.724,0.722341
267.7000,0.703688,251.995,0.725657
267.6000,1.09108,251.681,0.721818
267.5000,0.810314,251.777,0.722988
267.4000,0.6487,251.884,0.724299
267.3000,0.620671,251.756,0.722736
267.2000,1.11807,252.009,0.725825
267.1000,-0.181404,251.574,0.720501
267.0000,1.06629,252.081,0.72671
266.9000,0.2734,251.663,0.721591
266.8000,0.803306,251.936,0.72494
266.7000,0.701589,252.036,0.726161
266.6000,0.887527,251.955,0.725165
266.5000,-0.00310096,251.77,0.722903
266.4000,1.75796,251.687,0.721889
266.3000,0.643285,251.88,0.724256
266.2000,1.19731,251.751,0.722676
266.1000,1.12159,252.083,0.726729
266.0000,1.28827,251.906,0.724568
265.9000,1.61996,252.313,0.72954
265.8000,1.77538,252.034,0.726132
265.7000,2.14671,252.074,0.726618
265.6000,0.488786,252.19,0.728044
265.5000,0.535323,252.064,0.726497
265.4000,0.440752,252.302,0.729404
265.3000,-0.0498313,252.174,0.727844
265.2000,0.944347,252.085,0.726753
265.1000,0.56412,252.265,0.728956
265.0000,-0.303189,252.204,0.728211
264.9000,-0.0756451,252.043,0.726248
264.8000,1.41247,252.405,0.730669
264.7000,1.39026,252.181,0.727935
264.6000,0.951692,251.992,0.725617
264.5000,1.05448,252.16,0.727669
264.4000,2.49309,252.234,0.728574
264.3000,1.45852,252.387,0.730444
264.2000,0.992095,252.151,0.727558
264.1000,0.682809,252.394,0.730531
264.0000,1.25092,252.434,0.731018
263.9000,0.0891606,252.302,0.729408
263.8000,1.93945,252.462,0.731361
263.7000,0.761581,252.478,0.73156
263.6000,0.818795,252.454,0.731264
263.5000,-0.138087,252.428,0.730952
263.4000,0.192957,252.53,0.732196
263.3000,0.992137,252.052,0.726357
263.2000,1.01886,252.194,0.728095
263.1000,0.295737,252.597,0.733012
263.0000,0.664192,252.637,0.733504
262.9000,0.522304,252.229,0.728512
262.8000,0.844675,252.373,0.730278
262.7000,0.903179,252.506,0.731897
262.6000,1.90438,252.338,0.729851
262.5000,0.078833,252.521,0.732085
262.4000,0.853685,252.574,0.73273
262.3000,0.00247894,252.941,0.737209
262.2000,0.92527,252.643,0.733573
262.1000,0.277381,252.364,0.730162
262.0000,0.421762,252.308,0.729477
261.9000,0.365899,252.663,0.733819
261.8000,0.231078,252.706,0.734339
261.7000,1.61203,252.625,0.733354
261.6000,0.050963,252.737,0.73472
261.5000,1.09048,252.853,0.736128
261.4000,-0.445073,252.534,0.732237
261.3000,0.477949,252.747,0.734845
261.2000,0.463103,252.954,0.73737
261.1000,0.332404,252.831,0.735866
261.0000,1.27595,252.828,0.735824
260.9000,1.04275,252.668,0.733874
260.8000,-0.0462533,252.807,0.73557
260.7000,-0.193919,253.272,0.741242
260.6000,1.16363,252.813,0.735646
260.5000,0.741879,252.955,0.737371
260.4000,0.318008,252.895,0.736641
260.3000,1.08551,253.023,0.738202
260.2000,0.108821,253.236,0.740805
260.1000,0.426748,252.758,0.734969
260.0000,1.38705,253.282,0.741354
259.9000,0.330187,253.052,0.738554
259.8000,0.70541,253.179,0.74011
259.7000,0.889501,253.041,0.73843
259.6000,1.39579,253.351,0.742202
259.5000,-0.274023,253.32,0.741821
259.4000,0.598626,253.243,0.740888
259.3000,0.941879,253.328,0.741919
259.2000,0.372843,253.081,0.738907
259.1000,0.586412,253.069,0.738761
259.0000,-0.342747,253.113,0.739299
258.9000,1.11684,253.302,0.741598
258.8000,0.738448,253.492,0.74391
258.7000,0.634735,253.21,0.740484
258.6000,0.810448,253.266,0.741164
258.5000,0.733813,253.319,0.741809
258.4000,0.63739,253.615,0.745418
258.3000,1.26024,253.388,0.74265
258.2000,0.627511,253.575,0.744928
258.1000,0.307261,253.358,0.742279
258.0000,1.27887,253.359,0.742295
257.9000,0.0360733,253.763,0.747212
257.8000,1.11714,253.597,0.745195
257.7000,0.824428,253.498,0.743989
257.6000,0.3738,253.67,0.746084
257.5000,0.848318,253.581,0.744996
257.4000,1.6401,253.769,0.747284
257.3000,0.978387,253.584,0.745032
257.2000,1.15596,254.082,0.751084
257.1000,-0.0888877,253.545,0.744563
257.0000,-0.157167,253.683,0.746236
256.9000,1.58477,253.849,0.748262
256.8000,0.763989,253.785,0.747484
256.7000,0.244476,253.704,0.746489
256.6000,1.52834,254.101,0.751316
256.5000,0.207738,253.775,0.747357
256.4000,1.62222,253.77,0.747302
256.3000,0.652702,253.985,0.749913
256.2000,-0.373013,253.835,0.74809
256.1000,-0.465751,254.12,0.751543
256.0000,0.714374,254.017,0.750293
255.9000,1.06216,254.141,0.7518
255.8000,1.16766,254.094,0.751232
255.7000,0.102544,254.196,0.752475
255.6000,1.33555,253.881,0.748646
255.5000,0.746298,253.94,0.74936
255.4000,0.581666,254.149,0.751903
255.3000,0.72777,254.542,0.756671
255.2000,0.742639,254.234,0.752938
255.1000,0.438526,254.024,0.750382
255.0000,0.82318,254.384,0.754751
254.9000,0.616638,254.435,0.755373
254.8000,0.402398,254.188,0.752379
254.7000,1.17797,254.444,0.755479
254.6000,-0.247694,254.256,0.753194
254.5000,0.750415,254.562,0.756908
254.4000,0.0020701,254.34,0.754215
254.3000,0.560882,254.705,0.758649
254.2000,1.2741,254.128,0.751643
254.1000,0.639682,254.251,0.753142
254.0000,0.836043,254.388,0.754806
253.9000,0.0997791,254.562,0.756917
253.8000,0.999106,255.088,0.763283
253.7000,1.0027,254.626,0.757683
253.6000,0.439786,254.724,0.758881
253.5000,0.791812,254.577,0.757089
253.4000,0.336501,254.504,0.756203
253.3000,0.530716,254.592,0.757281
253.2000,1.37525,254.516,0.756357
253.1000,-0.232868,254.439,0.755419
253.0000,0.934434,254.773,0.759473
252.9000,0.817991,254.569,0.756999
252.8000,1.31271,254.618,0.757587
252.7000,1.5117,254.786,0.759633
252.6000,1.34955,254.593,0.757286
252.5000,0.189561,254.715,0.758771
252.4000,1.75185,254.947,0.761575
252.3000,0.979353,254.713,0.758744
252.2000,1.10216,254.866,0.760595
252.1000,0.62657,254.787,0.759643
252.0000,1.1566,255.135,0.763857
251.9000,0.300068,254.755,0.759257
251.8000,0.0757288,254.628,0.757714
251.7000,0.45434,255.018,0.762434
251.6000,1.03744,254.704,0.758627
251.5000,-0.0718868,254.895,0.760945
251.4000,0.477573,254.935,0.761433
251.3000,-0.175701,255.14,0.763913
251.2000,0.760403,254.784,0.759602
251.1000,0.513676,254.827,0.760127
251.0000,0.822873,254.919,0.761237
250.9000,1.35534,254.937,0.761456
250.8000,2.01159,255.158,0.76413
250.7000,0.474422,255.305,0.765915
250.6000,1.62875,255.02,0.762465
250.5000,0.864772,255.138,0.76389
250.4000,1.64486,255.317,0.76605
250.3000,1.52294,255.138,0.763888
250.2000,-0.263074,255.18,0.764392
250.1000,1.24001,255.069,0.763055
250.0000,0.695629,255.182,0.764424
249.9000,0.187207,255.031,0.762599
249.8000,1.06944,254.987,0.762057
249.7000,0.444999,255.242,0.765142
249.6000,0.575359,255.359,0.766564
249.5000,0.566229,255.013,0.76237
249.4000,0.203994,254.929,0.761361
249.3000,0.183398,254.943,0.761534
249.2000,1.69853,255.14,0.763913
249.1000,1.07023,254.868,0.760619
249.0000,0.21061,254.877,0.760726
248.9000,-0.0205284,255.268,0.765459
248.8000,0.131154,254.988,0.762079
248.7000,0.0314007,254.906,0.761083
248.6000,0.818893,255.1,0.763432
248.5000,1.23546,255.149,0.76402
248.4000,-0.256979,254.911,0.761138
248.3000,1.35239,254.979,0.761969
248.2000,2.26653,255.079,0.763176
248.1000,0.21431,255.025,0.762518
248.0000,1.21591,254.734,0.758998
247.9000,1.32328,254.74,0.759065
247.8000,0.41239,254.911,0.761143
247.7000,0.968514,254.993,0.762129
247.6000,-0.40288,254.972,0.761882
247.5000,0.625058,254.79,0.759676
247.4000,0.846075,255.066,0.763022
247.3000,1.13644,255.232,0.765024
247.2000,2.0334,255.296,0.765797
247.1000,1.07035,255.362,0.766598
247.0000,1.05002,255.3,0.765855
246.9000,0.281418,255.518,0.768482
246.8000,0.296397,255.356,0.766532
246.7000,0.944518,255.353,0.766486
246.6000,1.62463,255.597,0.769434
246.5000,1.42572,255.172,0.764304
246.4000,0.227797,255.238,0.765098
246.3000,0.723301,255.383,0.766852
246.2000,1.91173,255.489,0.76813
246.1000,1.06973,255.345,0.766393
246.0000,0.546723,255.419,0.767294
245.9000,0.123206,255.529,0.768614
245.8000,1.64347,255.269,0.765473
245.7000,1.27534,255.234,0.765046
245.6000,0.0167825,255.691,0.770579
245.5000,1.37297,255.439,0.767525
245.4000,1.48864,255.713,0.770847
245.3000,1.38683,255.691,0.77057
245.2000,1.53849,255.558,0.768973
245.1000,0.48006,255.575,0.769179
245.0000,-0.0792442,255.509,0.768378
244.9000,1.4479,255.741,0.771179
244.8000,0.336404,255.412,0.767208
244.7000,0.203677,256.14,0.775992
244.6000,0.525884,255.835,0.77232
244.5000,0.0967933,255.628,0.76981
244.4000,0.291116,255.682,0.770467
244.3000,0.689021,255.867,0.772702
244.2000,-0.509239,255.662,0.770228
244.1000,1.56122,255.618,0.769691
244.0000,0.753569,255.581,0.769251
243.9000,0.697066,255.671,0.770339
243.8000,0.632632,255.711,0.770822
243.7000,-0.0483978,255.878,0.772838
243.6000,1.62985,255.698,0.770664
243.5000,0.126606,255.564,0.769038
243.4000,0.87683,256.025,0.774613
243.3000,0.713916,256.098,0.775493
243.2000,-0.00745053,255.859,0.772606
243.1000,1.34237,255.883,0.772893
243.0000,-0.0332057,255.924,0.773385
242.9000,0.796962,255.903,0.773136
242.8000,0.827946,255.732,0.771077
242.7000,-1.16946,255.883,0.772895
242.6000,-0.315186,255.901,0.773108
242.5000,-0.291171,255.793,0.771809
242.4000,0.895913,255.676,0.770397
242.3000,0.286264,256.105,0.775578
242.2000,0.204124,256.141,0.776002
242.1000,-0.22677,256.192,0.776624
242.0000,1.39166,256.312,0.778067
241.9000,-0.0943986,256.263,0.77748
241.8000,0.400358,256.211,0.776855
241.7000,-0.108555,256.281,0.777691
241.6000,0.369698,256.037,0.774748
241.5000,0.513221,255.969,0.773929
241.4000,0.485895,256.374,0.778817
241.3000,-0.235839,256.346,0.778484
241.2000,0.644384,256.533,0.780732
241.1000,0.457402,256.64,0.782025
241.0000,0.621711,256.675,0.782448
240.9000,0.629964,256.481,0.780104
240.8000,0.297123,256.585,0.781363
240.7000,0.34824,256.304,0.777971
240.6000,0.519294,256.283,0.777724
240.5000,0.217737,256.556,0.781005
240.4000,0.0918022,256.692,0.782649
240.3000,1.24177,256.656,0.782211
240.2000,-0.400878,256.617,0.781748
240.1000,0.552443,256.89,0.785031
240.0000,0.823955,256.972,0.786014
239.9000,0.504465,256.735,0.783171
239.8000,1.04973,256.969,0.785982
239.7000,-0.354458,257.368,0.790784
239.6000,0.159792,256.692,0.782647
239.5000,-0.183162,256.941,0.785648
239.4000,0.0777087,257.061,0.787091
239.3000,1.42418,257.035,0.786772
239.2000,0.507861,257.244,0.789293
239.1000,0.978829,257.37,0.790806
239.0000,0.544302,257.364,0.790736
238.9000,-0.165585,257.271,0.789614
238.8000,0.126497,257.37,0.790804
238.7000,-0.519455,257.919,0.797389
238.6000,0.917293,257.643,0.794084
238.5000,0.262725,257.536,0.792793
238.4000,0.33158,257.795,0.795904
238.3000,-0.749459,257.611,0.793699
238.2000,0.0831061,257.784,0.795773
238.1000,-0.0441986,257.75,0.795372
238.0000,0.893046,257.993,0.798283
237.9000,-1.41794,257.913,0.797326
237.8000,-0.180242,258.284,0.801769
237.7000,0.649947,257.969,0.797995
237.6000,0.885912,258.31,0.802078
237.5000,0.265839,258.05,0.798962
237.4000,0.476681,258.207,0.800848
237.3000,-0.299483,258.351,0.802567
237.2000,0.320125,258.407,0.803242
237.1000,-1.1022,258.291,0.801849
237.0000,-0.633161,258.78,0.807703
236.9000,-0.375666,258.656,0.806222
236.8000,-0.749917,258.638,0.806002
236.7000,0.414164,258.714,0.806922
236.6000,0.520637,258.555,0.805009
236.5000,0.158194,258.732,0.807137
236.4000,0.900742,258.839,0.808409
236.3000,0.558403,258.913,0.809302
236.2000,0.342243,258.849,0.808531
236.1000,-1.36465,258.586,0.805382
236.0000,0.607835,259.16,0.812251
235.9000,0.975898,259.039,0.810809
235.8000,0.0814204,259.269,0.813555
235.7000,-0.521025,259.257,0.813409
235.6000,-0.600872,259.34,0.814395
235.5000,0.709105,259.447,0.815672
235.4000,-0.635509,259.194,0.81265
235.3000,-0.204269,259.495,0.816252
235.2000,0.311385,259.53,0.816664
235.1000,-0.564463,259.633,0.817901
235.0000,0.172838,259.805,0.819943
234.9000,-0.0558024,259.825,0.820181
234.8000,0.119392,259.749,0.819274
234.7000,-0.114918,260.038,0.822721
234.6000,0.345425,259.986,0.822103
234.5000,-0.865137,259.943,0.82159
234.4000,0.513128,260.134,0.82387
234.3000,0.431802,260.401,0.82704
234.2000,-0.461007,260.242,0.825157
234.1000,-0.738521,260.328,0.826182
234.0000,-1.47117,260.55,0.828816
233.9000,0.0495471,260.883,0.832775
233.8000,-0.650386,260.74,0.831077
233.7000,0.544082,260.874,0.832666
233.6000,0.0299107,260.961,0.833706
233.5000,-0.970821,261.094,0.835278
233.4000,0.271866,260.969,0.833798
233.3000,-0.418825,261.09,0.835235
233.2000,-0.86477,261.485,0.839922
233.1000,-0.642646,261.296,0.837679
233.0000,0.542699,261.361,0.838448
232.9000,-2.41196,261.593,0.841206
232.8000,-0.223089,261.905,0.844895
232.7000,-0.396245,261.815,0.843836
232.6000,-1.43956,261.862,0.844391
232.5000,-1.70157,261.582,0.841077
232.4000,-2.35968,261.831,0.844024
232.3000,-0.126025,262.053,0.846655
232.2000,-1.33797,262.085,0.847031
232.1000,-0.980455,262.317,0.849771
232.0000,-0.667949,262.278,0.849308
231.9000,-1.3595,262.546,0.852478
231.8000,-1.99148,262.291,0.849467
231.7000,-0.407906,262.693,0.854222
231.6000,-1.47337,262.775,0.855191
231.5000,-1.07178,262.604,0.853171
231.4000,-1.21952,263.058,0.858523
231.3000,-1.01432,262.931,0.857029
231.2000,-1.15957,262.915,0.856838
231.1000,-0.69179,263.1,0.859028
231.0000,-1.43411,263.135,0.85944
230.9000,-1.85259,263.159,0.859721
230.8000,-1.3168,263.154,0.859666
230.7000,-0.21307,263.52,0.86398
230.6000,-0.938337,263.801,0.867286
230.5000,-1.76412,263.703,0.866134
230.4000,-0.64422,263.211,0.860337
230.3000,-1.67769,263.382,0.862343
230.2000,-0.253332,263.728,0.866429
230.1000,-2.06842,263.419,0.86279
230.0000,-2.74234,263.143,0.859532
229.9000,-2.61041,263.316,0.861573
229.8000,-1.54948,263.506,0.863808
229.7000,-0.949647,263.261,0.860924
229.6000,-0.556978,263.537,0.864174
229.5000,-1.47325,263.807,0.867349
229.4000,-0.976206,263.487,0.86359
229.3000,-2.02254,263.73,0.866449
229.2000,-1.84881,264.213,0.872135
229.1000,-1.62858,264.171,0.871642
229.0000,-0.647717,264.561,0.876219
228.9000,-1.2564,264.794,0.87896
228.8000,-2.30187,264.748,0.878417
228.7000,-1.81156,265.119,0.882771
228.6000,-1.95854,265.083,0.882349
228.5000,-1.65052,265.261,0.884435
228.4000,-1.99942,265.452,0.886663
228.3000,-2.49769,265.492,0.88714
228.2000,-1.65849,265.689,0.88944
228.1000,-1.02182,265.927,0.892232
228.0000,-2.20266,266.071,0.893906
227.9000,-2.05666,266.356,0.897243
227.8000,-1.99246,266.441,0.898229
227.7000,-2.23343,266.711,0.901389
227.6000,-1.58811,266.659,0.900776
227.5000,-1.63557,266.849,0.902996
227.4000,-2.34229,266.904,0.903629
227.3000,-1.75766,266.94,0.904051
227.2000,-1.95883,267.189,0.906951
227.1000,-1.25049,267.589,0.911612
227.0000,-2.4288,267.696,0.912859
226.9000,-2.0716,267.902,0.915251
226.8000,-2.53819,267.919,0.915451
226.7000,-3.35229,268.102,0.91757
226.6000,-1.64812,267.928,0.915548
226.5000,-2.13649,267.958,0.915898
226.4000,-2.00673,268.202,0.918733
226.3000,-1.79001,268.468,0.921827
226.2000,-2.31571,268.522,0.922448
226.1000,-3.01678,268.715,0.924683
226.0000,-1.16643,268.982,0.92778
225.9000,-2.37097,269.044,0.928499
225.8000,-2.35299,269.178,0.930056
225.7000,-1.50505,269.188,0.930169
225.6000,-1.94254,269.342,0.93195
225.5000,-1.36615,269.627,0.935245
225.4000,-1.76356,269.881,0.93818
225.3000,-1.68083,270.281,0.942794
225.2000,-2.68892,270.144,0.941215
225.1000,-1.49629,270.301,0.943031
225.0000,-2.61113,270.773,0.948474
224.9000,-1.29346,270.992,0.950997
224.8000,-1.95881,270.986,0.950927
224.7000,-3.00196,271.308,0.954623
224.6000,-2.46143,271.542,0.957323
224.5000,-2.02555,271.481,0.956622
224.4000,-3.65898,271.832,0.960649
224.3000,-3.24768,272.018,0.962788
224.2000,-3.12044,272.245,0.965389
224.1000,-2.23376,272.324,0.966292
224.0000,-2.30537,272.511,0.968439
223.9000,-2.31924,272.77,0.971409
223.8000,-3.19229,272.904,0.972939
223.7000,-4.0859,273.084,0.974997
223.6000,-3.26595,273.497,0.979715
223.5000,-4.27748,273.653,0.981503
223.4000,-2.13714,273.692,0.981947
223.3000,-2.05503,274.283,0.988686
223.2000,-2.31703,274.367,0.989642
223.1000,-3.13749,274.416,0.990203
223.0000,-1.57907,274.581,0.992078
222.9000,-2.69258,274.685,0.993271
222.8000,-2.01471,275.386,1.00123
222.7000,-2.04764,275.601,1.00368
222.6000,-2.31234,275.835,1.00634
222.5000,-3.66195,276.069,1.00899
222.4000,-3.4598,276.319,1.01182
222.3000,-2.94476,276.697,1.0161
222.2000,-3.91713,276.846,1.01779
222.1000,-1.31911,277.034,1.01991
222.0000,-4.27354,277.271,1.02258
221.9000,-3.45186,277.59,1.02619
221.8000,-2.40231,277.814,1.02871
221.7000,-2.59022,277.803,1.0286
221.6000,-2.39509,278.278,1.03394
221.5000,-2.0076,278.674,1.0384
221.4000,-2.83861,278.944,1.04144
221.3000,-1.49466,279.36,1.04611
221.2000,-3.09486,279.631,1.04915
221.1000,-2.0594,279.84,1.0515
221.0000,-1.58182,280.281,1.05644
220.9000,-1.77773,280.356,1.05727
220.8000,-2.74302,280.309,1.05675
220.7000,-1.08163,280.992,1.06439
220.6000,-2.13642,281.151,1.06616
220.5000,-2.6797,281.526,1.07035
220.4000,-2.91734,282.043,1.0761
220.3000,-2.65561,282.031,1.07597
220.2000,-2.13887,282.678,1.08317
220.1000,-1.85633,282.781,1.08432
220.0000,-2.46853,283.232,1.08933
219.9000,-1.77955,283.709,1.09462
219.8000,-2.60559,283.93,1.09706
219.7000,-1.87953,284.099,1.09894
219.6000,-1.69545,284.266,1.10078
219.5000,-1.76869,284.836,1.10708
219.4000,-3.17045,284.831,1.10702
219.3000,-2.66901,285.21,1.1112
219.2000,-0.97458,285.767,1.11735
219.1000,-1.80971,285.783,1.11753
219.0000,-1.78821,286.528,1.12572
218.9000,-2.31349,286.863,1.1294
218.8000,-2.43038,287.266,1.13383
218.7000,-2.36775,287.41,1.1354
218.6000,-2.86653,288.397,1.14621
218.5000,-3.16022,288.399,1.14623
218.4000,-3.44192,288.928,1.152
218.3000,-1.05802,288.845,1.1511
218.2000,-0.750781,289.542,1.1587
218.1000,-2.57717,290.499,1.16912
218.0000,-1.30532,290.359,1.1676
217.9000,-1.74182,290.895,1.17341
217.8000,-2.29984,291.029,1.17487
217.7000,-1.95795,292.252,1.18811
217.6000,-2.67777,292.106,1.18653
217.5000,-2.02025,292.896,1.19507
217.4000,-2.54704,293.419,1.20071
217.3000,-3.06219,293.827,1.2051
217.2000,-0.834493,294.189,1.20899
217.1000,-1.13782,294.847,1.21606
217.0000,-4.08402,295.106,1.21885
216.9000,-2.54475,295.497,1.22303
216.8000,-1.62549,296.54,1.23419
216.7000,-1.97669,296.632,1.23518
216.6000,-0.770084,296.97,1.23878
216.5000,-1.68819,297.748,1.24707
216.4000,-1.92143,297.965,1.24938
216.3000,-2.87018,298.441,1.25444
216.2000,-1.44922,298.627,1.25642
216.1000,-0.812541,299.048,1.26089
216.0000,-0.802729,299.717,1.26797
215.9000,-1.43561,299.975,1.27071
215.8000,-1.98845,300.7,1.27837
215.7000,-1.42609,300.877,1.28023
215.6000,-1.73937,301.376,1.2855
215.5000,-1.32534,301.934,1.29137
215.4000,-0.437875,302.603,1.2984
215.3000,-2.45191,302.532,1.29765
215.2000,-2.08946,303.416,1.30693
215.1000,-1.9629,303.892,1.31191
215.0000,-1.06743,303.868,1.31167
214.9000,-1.97013,304.593,1.31925
214.8000,-1.27608,305.047,1.32399
214.7000,-3.37126,305.797,1.3318
214.6000,-2.70332,305.457,1.32826
214.5000,0.969801,306.579,1.33993
214.4000,-2.02338,307.068,1.34501
214.3000,-3.40343,307.362,1.34806
214.2000,-2.63792,307.819,1.35279
214.1000,-2.71225,308.397,1.35877
214.0000,-4.11736,308.62,1.36107
213.9000,-3.01704,309.337,1.36848
213.8000,-0.545907,309.84,1.37365
213.7000,-0.403455,310.106,1.3764
213.6000,-2.32748,310.398,1.3794
213.5000,-1.59358,310.76,1.38312
213.4000,-2.79172,311.72,1.39297
213.3000,2.31401,312.142,1.39729
213.2000,-2.82982,312.282,1.39872
213.1000,-0.522321,312.386,1.39979
213.0000,-3.09295,313.432,1.41046
212.9000,0.226863,313.256,1.40867
212.8000,-1.4635,314.42,1.42053
212.7000,-1.23887,314.172,1.41801
212.6000,-2.11597,314.753,1.42392
212.5000,-2.99954,315.4,1.43048
212.4000,-0.737575,315.412,1.4306
212.3000,-0.814895,316.516,1.44179
212.2000,-0.645893,316.783,1.4445
212.1000,-0.92463,317.495,1.45168
212.0000,-1.1371,317.932,1.45609
211.9000,-1.3646,318.045,1.45723
211.8000,-3.34411,318.901,1.46584
211.7000,-1.57347,319.334,1.47019
211.6000,-2.84124,319.581,1.47268
211.5000,-2.6395,320.172,1.47859
211.4000,-1.54786,320.246,1.47933
211.3000,-1.47383,320.986,1.48674
211.2000,-3.97794,321.173,1.48861
211.1000,-5.57523,321.826,1.49513
211.0000,-1.86513,321.759,1.49446
210.9000,-0.433224,322.408,1.50094
210.8000,-3.41396,322.91,1.50593
210.7000,-2.76653,323.365,1.51045
210.6000,-2.1828,323.817,1.51494
210.5000,-1.82329,324.202,1.51876
210.4000,-3.73892,324.216,1.5189
210.3000,-4.45968,324.583,1.52254
210.2000,-2.25052,325.036,1.52702
210.1000,-1.66502,325.434,1.53096
210.0000,-3.59788,325.842,1.53499
209.9000,-0.995815,326.396,1.54046
209.8000,-2.89032,326.274,1.53925
209.7000,-1.08197,326.496,1.54144
209.6000,-3.21332,327.411,1.55045
209.5000,-1.59156,327.551,1.55182
209.4000,-3.1912,327.706,1.55335
209.3000,-1.5954,328.259,1.55878
209.2000,-3.92327,328.484,1.56099
209.1000,-2.6799,328.563,1.56176
209.0000,-3.47807,328.96,1.56565
208.9000,-2.80973,328.862,1.56469
208.8000,-2.00776,329.667,1.57257
208.7000,-0.450123,329.616,1.57207
208.6000,-3.75084,329.989,1.57572
208.5000,-1.12293,329.887,1.57472
208.4000,1.13389,330.202,1.57779
208.3000,-1.81422,330.341,1.57915
208.2000,-1.47377,330.444,1.58016
208.1000,-0.561017,331.208,1.5876
208.0000,-0.390311,331.622,1.59163
207.9000,0.335052,331.705,1.59244
207.8000,0.498464,331.619,1.59161
207.7000,-2.82445,331.956,1.59488
207.6000,-1.38043,332.234,1.59759
207.5000,-2.69879,332.218,1.59743
207.4000,-0.0622404,332.234,1.59758
207.3000,-2.39362,332.717,1.60228
207.2000,-0.89638,332.925,1.60429
207.1000,-1.99963,333.227,1.60722
207.0000,-2.04052,333.133,1.60631
206.9000,-1.15378,333.268,1.60762
206.8000,-1.80401,333.372,1.60862
206.7000,-2.3448,334.063,1.61532
206.6000,-0.398091,333.43,1.60918
206.5000,-1.20701,333.429,1.60917
206.4000,-0.801116,333.439,1.60928
206.3000,-2.84158,333.453,1.60941
206.2000,-2.22798,334.018,1.61487
206.1000,-2.14834,334.177,1.61642
206.0000,0.248433,334.384,1.61842
205.9000,-2.36418,334.466,1.61921
205.8000,-0.751347,334.092,1.61559
205.7000,-1.94438,334.581,1.62031
205.6000,-2.02673,334.581,1.62031
205.5000,-1.77851,334.74,1.62186
205.4000,-2.69367,334.787,1.62231
205.3000,-0.302676,334.95,1.62388
205.2000,-3.53124,335.053,1.62487
205.1000,1.33827,335.272,1.62698
205.0000,-2.53988,335.105,1.62538
204.9000,-1.17114,335.362,1.62786
204.8000,0.171434,335.214,1.62643
204.7000,1.07181,335.537,1.62954
204.6000,-2.659,335.64,1.63053
204.5000,-3.13519,335.565,1.62981
204.4000,-1.37287,335.462,1.62881
204.3000,1.95909,335.713,1.63124
204.2000,-0.466288,335.655,1.63067
204.1000,0.638947,335.739,1.63149
204.0000,-0.25882,335.814,1.63221
203.9000,1.01059,335.558,1.62974
203.8000,-0.291869,336.326,1.63713
203.7000,-2.0192,336.33,1.63717
203.6000,1.24682,336.302,1.6369
203.5000,1.4647,336.302,1.6369
203.4000,0.999291,336.569,1.63947
203.3000,0.705191,336.806,1.64174
203.2000,1.25672,336.44,1.63823
203.1000,-0.400414,336.759,1.64129
203.0000,0.194329,337.056,1.64415
202.9000,2.16384,336.92,1.64284
202.8000,-0.418817,337.044,1.64404
202.7000,1.12692,337.119,1.64475
202.6000,2.04175,337.163,1.64517
202.5000,-0.718979,337.232,1.64584
202.4000,3.97415,337.28,1.6463
202.3000,2.93056,337.628,1.64963
202.2000,1.56799,337.882,1.65207
202.1000,1.02319,338.07,1.65386
202.0000,0.173925,338.678,1.65968
201.9000,-0.222227,338.744,1.66031
201.8000,0.0984986,338.56,1.65855
201.7000,2.14981,338.769,1.66055
201.6000,1.5347,339.063,1.66337
201.5000,2.66241,339.289,1.66552
201.4000,0.303332,339.554,1.66805
201.3000,2.54483,339.861,1.67098
201.2000,2.47656,340.151,1.67373
201.1000,3.20723,340.7,1.67896
201.0000,1.85811,341.111,1.68287
200.9000,3.03233,341.235,1.68405
200.8000,1.01103,341.545,1.687
200.7000,2.11641,341.777,1.6892
200.6000,2.43557,341.805,1.68946
200.5000,5.17101,342.196,1.69317
200.4000,3.74019,342.38,1.69491
200.3000,5.66571,342.582,1.69682
200.2000,3.84252,343.269,1.70332
200.1000,9.54964,343.772,1.70808
200.0000,1.88518,344.089,1.71106
199.9000,4.50947,345.1,1.72059
199.8000,5.19825,345.148,1.72104
199.7000,4.57225,345.662,1.72588
199.6000,5.39661,346.148,1.73044
199.5000,4.08168,346.603,1.7347
199.4000,5.0732,347.162,1.73995
199.3000,8.21356,347.198,1.74028
199.2000,6.3274,347.708,1.74505
199.1000,6.83235,347.99,1.74769
199.0000,5.89841,348.469,1.75216
198.9000,4.87576,348.979,1.75692
198.8000,4.68935,350.06,1.76699
198.7000,3.63377,351.073,1.77639
198.6000,5.42682,351.272,1.77824
198.5000,4.68482,351.926,1.7843
198.4000,5.54604,352.682,1.79129
198.3000,3.89793,353.343,1.79739
198.2000,4.75491,354.11,1.80447
198.1000,5.14773,355.062,1.81322
198.0000,8.89756,355.57,1.81789
197.9000,2.86476,355.879,1.82072
197.8000,1.3112,356.925,1.8303
197.7000,2.55048,357.554,1.83605
197.6000,3.84924,358.458,1.8443
197.5000,3.97357,359.568,1.85441
197.4000,3.85763,360.105,1.85929
197.3000,6.7759,361.225,1.86944
197.2000,9.04168,362.628,1.88212
197.1000,7.80908,362.966,1.88518
197.0000,7.09385,364.101,1.8954
196.9000,5.50479,365.262,1.90584
196.8000,2.25585,366.635,1.91813
196.7000,5.84805,367.819,1.92871
196.6000,6.36709,369.006,1.93928
196.5000,3.42677,370.705,1.95437
196.4000,6.55127,372.233,1.96789
196.3000,7.93335,373.325,1.97752
196.2000,6.37045,374.733,1.9899
196.1000,7.1539,376.582,2.00612
196.0000,9.31295,378.187,2.02013
195.9000,8.49563,379.97,2.03563
195.8000,6.62227,380.783,2.04268
195.7000,13.6916,382.968,2.06157
195.6000,4.62903,384.525,2.07498
195.5000,4.61002,386.16,2.089
195.4000,7.62656,387.835,2.10332
195.3000,5.78584,389.074,2.11387
195.2000,9.65902,390.677,2.12749
195.1000,8.01916,392.519,2.14309
195.0000,7.43886,394.396,2.15891
194.9000,8.36166,395.963,2.17207
194.8000,7.8669,397.711,2.1867
194.7000,9.19099,399.484,2.20148
194.6000,8.16174,401.262,2.21625
194.5000,7.73673,403.443,2.23429
194.4000,9.32226,405.697,2.25285
194.3000,5.5818,407.976,2.27153
194.2000,6.67279,411.078,2.29681
194.1000,9.48578,413.497,2.31642
194.0000,7.70969,416.614,2.34154
193.9000,5.60219,419.326,2.36327
193.8000,5.72717,422.616,2.38947
193.7000,6.67631,426.051,2.41665
193.6000,2.3156,428.495,2.43587
193.5000,3.63283,430.974,2.45527
193.4000,5.55716,433.964,2.47855
193.3000,1.05338,435.521,2.49062
193.2000,7.14739,437.904,2.50902
193.1000,11.2558,440.681,2.53035
193.0000,9.40406,444.317,2.55811
192.9000,5.19494,447.229,2.58021
192.8000,8.38234,449.974,2.60093
192.7000,5.26413,453.496,2.62736
192.6000,9.11877,457.267,2.65547
192.5000,6.25575,461.672,2.68806
192.4000,3.52405,465.066,2.71298
192.3000,3.37385,468.926,2.74114
192.2000,5.13945,472.644,2.76809
192.1000,4.66885,475.275,2.78705
192.0000,2.9239,478.163,2.80776
191.9000,11.0227,482.697,2.84006
191.8000,3.88453,486.058,2.86383
191.7000,6.14332,489.208,2.88599
191.6000,4.53627,493.368,2.91507
191.5000,2.15812,496.742,2.9385
191.4000,-0.788484,501.701,2.9727
191.3000,0.111505,506.617,3.00632
191.2000,2.50507,511.338,3.03835
191.1000,0.587133,516.296,3.07171
191.0000,4.66683,521.445,3.10608
190.9000,3.52143,527.047,3.14315
190.8000,3.10176,533.352,3.18446
190.7000,1.20061,538.462,3.21765
190.6000,-0.899005,543.599,3.25074
190.5000,2.17231,547.999,3.27888
190.4000,3.49507,553.292,3.31246
190.3000,2.46433,558.483,3.34514
190.2000,3.52954,563.664,3.37751
190.1000,0.466027,567.495,3.40127
190.0000,9.67177,572.543,3.43238

##### Extended Information
[Comments]
Sample name,class
Comment
User
Division
Company,Saint Mary's College

[Detailed Information]
Creation date,9/29/2021 3:39 PM

Data array type,Linear data array * 3
Horizontal axis,Wavelength [nm]
Vertical axis(1),CD [mdeg]
Vertical axis(2),HT [V]
Vertical axis(3),Abs
Start,290 nm
End,190 nm
Data interval,0.1 nm
Data points,1001    

[Measurement Information]
Instrument name,J-1500
Model name,J-1500
Serial No.,B051061638

Detector,PM-539
Detector S/N,B051061638
  Lock-in amp.,X mode
  HT volt,Auto

Accessory,PTC-517
Accessory S/N,B026561646
  Temperature,22.64 C
  Control sensor,Holder
  Monitor sensor,Holder

Measurement date,9/29/2021 3:39 PM

CD Overload detect,716
Photometric mode,CD, HT, Abs
Measure range,290 - 190 nm
Data pitch,0.1 nm
CD scale,20 mdeg/0.05 dOD
FL scale,20 mdeg/0.05 dOD
D.I.T.,64 msec
Bandwidth,1.00 nm
Start mode,Immediately
Scanning mode,Continuous
Scanning speed,50 nm/min
Baseline correction,None
Shutter control,Auto
No. of cycle,1/1
N2 Flowmeter,Manual


