TITLE,class
DATA TYPE,
ORIGIN,JASCO
OWNER,
DATE,21/09/29
TIME,16:42:26
SPECTROMETER/DATA SYSTEM,
LOCALE,1033
RESOLUTION,
DELTAX,-0.1
XUNITS,NANOMETERS
YUNITS,CD [mdeg]
Y2UNITS,HT [V]
Y3UNITS,ABSORBANCE
FIRSTX,  290.0000
LASTX,  190.0000
NPOINTS,    1001
FIRSTY,     1.69865
MAXY,    11.18033
MINY,    -5.31795
XYDATA
290.0000,1.69865,253.333,0.741981
289.9000,1.74862,253.52,0.744255
289.8000,1.56476,253.512,0.744162
289.7000,1.60471,252.922,0.736978
289.6000,0.489309,253.091,0.739039
289.5000,1.16114,253.11,0.739268
289.4000,1.79492,253.245,0.740905
289.3000,1.97773,253.162,0.739901
289.2000,1.81646,253.094,0.739066
289.1000,1.36012,253.274,0.74126
289.0000,1.5221,253.03,0.738288
288.9000,1.81209,253.144,0.739677
288.8000,1.60263,253.303,0.741614
288.7000,1.16327,253.302,0.7416
288.6000,1.7329,253.474,0.7437
288.5000,0.957301,253.289,0.741443
288.4000,1.84952,253.242,0.740874
288.3000,1.23139,253.072,0.738797
288.2000,0.501035,252.768,0.7351
288.1000,1.68745,253.074,0.738821
288.0000,1.54119,253.15,0.739758
287.9000,0.84951,253.183,0.740151
287.8000,0.82979,252.98,0.737675
287.7000,1.20956,253.043,0.738454
287.6000,0.526967,253.112,0.739289
287.5000,2.60861,253.007,0.738005
287.4000,0.409606,253.085,0.738958
287.3000,1.03235,253.213,0.740522
287.2000,1.12635,252.975,0.737618
287.1000,1.8386,252.85,0.736099
287.0000,1.186,253.077,0.738861
286.9000,1.01878,252.865,0.73628
286.8000,1.37832,253.134,0.739563
286.7000,1.64649,253.016,0.738119
286.6000,1.86819,253.1,0.73914
286.5000,0.801197,252.77,0.735123
286.4000,2.58076,252.944,0.737237
286.3000,1.11394,253.054,0.738586
286.2000,1.08134,253.025,0.738224
286.1000,1.45732,252.855,0.736156
286.0000,1.12854,253.082,0.738923
285.9000,1.78685,253.02,0.738174
285.8000,0.810914,252.794,0.735415
285.7000,1.42809,252.867,0.736304
285.6000,1.64438,253.013,0.738081
285.5000,1.80699,252.691,0.734152
285.4000,0.603824,252.583,0.732835
285.3000,0.927743,252.341,0.72988
285.2000,1.58069,253.162,0.739903
285.1000,1.64363,253.061,0.738671
285.0000,1.68663,252.807,0.735574
284.9000,0.990339,253.044,0.738461
284.8000,2.01869,252.787,0.735328
284.7000,2.27102,252.672,0.733931
284.6000,1.48021,252.577,0.732761
284.5000,0.907426,252.503,0.731867
284.4000,0.944966,252.761,0.735016
284.3000,2.02701,252.799,0.735477
284.2000,1.30154,252.879,0.736446
284.1000,0.653385,252.239,0.728634
284.0000,-0.334312,252.636,0.73348
283.9000,2.29773,253.069,0.738766
283.8000,1.7094,252.613,0.733207
283.7000,1.46146,253.056,0.738611
283.6000,1.92445,252.478,0.731561
283.5000,0.64132,252.359,0.730105
283.4000,1.71599,252.798,0.735462
283.3000,1.60498,252.361,0.730134
283.2000,2.05146,252.705,0.734323
283.1000,1.70222,252.364,0.73016
283.0000,0.0843229,252.431,0.730982
282.9000,1.19388,252.895,0.736646
282.8000,1.50301,252.553,0.732469
282.7000,1.22365,252.661,0.733796
282.6000,2.28192,252.558,0.732534
282.5000,0.782983,252.535,0.732248
282.4000,1.50712,252.562,0.732581
282.3000,1.12165,252.619,0.733281
282.2000,2.26765,252.665,0.733841
282.1000,1.31366,252.517,0.732033
282.0000,1.8592,252.501,0.731833
281.9000,0.851561,252.536,0.732263
281.8000,1.38348,252.304,0.729437
281.7000,1.46211,252.245,0.728707
281.6000,1.44177,252.272,0.729036
281.5000,1.34139,252.624,0.733345
281.4000,0.20483,252.469,0.731447
281.3000,0.620856,252.778,0.735218
281.2000,2.1259,252.627,0.733375
281.1000,1.50521,252.401,0.730614
281.0000,-0.0532739,252.315,0.729572
280.9000,0.79746,252.686,0.734093
280.8000,2.15776,252.534,0.732241
280.7000,0.951405,252.881,0.736468
280.6000,1.05525,252.403,0.730638
280.5000,0.802787,252.343,0.729906
280.4000,0.869159,252.843,0.736009
280.3000,0.541536,252.466,0.731416
280.2000,2.53457,252.247,0.728732
280.1000,-0.0271352,252.362,0.730147
280.0000,0.382779,252.552,0.732465
279.9000,0.794334,252.22,0.728408
279.8000,1.31637,252.328,0.729723
279.7000,0.482445,252.19,0.728036
279.6000,0.895554,251.947,0.72507
279.5000,1.31925,252.248,0.728745
279.4000,1.52126,252.648,0.733627
279.3000,0.681024,252.452,0.73124
279.2000,1.86469,252.945,0.73725
279.1000,1.17163,252.031,0.726099
279.0000,0.819736,251.857,0.723972
278.9000,1.46763,252.017,0.72592
278.8000,1.75092,251.981,0.725481
278.7000,2.15463,252.419,0.730831
278.6000,0.432651,252.059,0.726443
278.5000,0.510334,252.402,0.730629
278.4000,2.40088,251.966,0.725297
278.3000,1.4307,252.29,0.729259
278.2000,1.35921,252.368,0.730214
278.1000,1.04217,252.178,0.727894
278.0000,0.741415,252.288,0.729238
277.9000,1.44105,252.094,0.726862
277.8000,0.96602,252.489,0.731694
277.7000,0.66736,252.052,0.726357
277.6000,1.25018,252.046,0.726277
277.5000,1.23367,252.413,0.730761
277.4000,-0.384743,252.258,0.728865
277.3000,-0.33452,252.342,0.729897
277.2000,1.929,251.895,0.724429
277.1000,1.42846,252.382,0.730389
277.0000,0.467237,252.286,0.729209
276.9000,2.08996,252.022,0.72599
276.8000,1.40703,252.037,0.726171
276.7000,0.700379,252.087,0.726786
276.6000,1.44284,252.138,0.727409
276.5000,0.24946,252.173,0.727835
276.4000,1.01293,251.905,0.72455
276.3000,0.929198,252.201,0.728169
276.2000,1.34039,252.041,0.72622
276.1000,0.577202,251.881,0.724258
276.0000,1.25724,251.923,0.724781
275.9000,1.28874,251.987,0.725564
275.8000,1.15737,251.955,0.725169
275.7000,0.336761,251.737,0.722502
275.6000,0.925869,252.027,0.726045
275.5000,1.094,252.292,0.72929
275.4000,0.916616,251.991,0.725603
275.3000,0.509067,252.209,0.728276
275.2000,1.96328,252.036,0.726158
275.1000,0.954953,251.964,0.725283
275.0000,0.988106,252.235,0.728595
274.9000,0.263684,251.959,0.725221
274.8000,-0.221601,251.62,0.721063
274.7000,1.57327,251.798,0.723251
274.6000,0.966785,251.996,0.725671
274.5000,0.197042,251.687,0.721894
274.4000,0.531535,251.425,0.718677
274.3000,2.10162,252.245,0.728711
274.2000,0.938596,252.204,0.728209
274.1000,1.50895,252.138,0.727409
274.0000,1.35616,251.909,0.724602
273.9000,0.578708,251.825,0.72358
273.8000,0.668319,252.068,0.726547
273.7000,0.647041,251.828,0.723617
273.6000,1.36708,251.558,0.720311
273.5000,1.33148,251.594,0.720746
273.4000,1.28527,251.754,0.722705
273.3000,1.38208,251.524,0.719898
273.2000,1.11917,252.103,0.726978
273.1000,1.8584,251.889,0.72436
273.0000,-0.473982,251.835,0.723703
272.9000,0.620442,251.776,0.72298
272.8000,1.46759,251.728,0.722384
272.7000,1.04379,252.017,0.725925
272.6000,1.32752,251.857,0.723968
272.5000,-0.114354,251.809,0.723386
272.4000,1.38159,251.747,0.722622
272.3000,1.44521,251.617,0.721037
272.2000,2.17773,251.964,0.725281
272.1000,0.829221,251.655,0.721497
272.0000,1.72361,251.803,0.723308
271.9000,1.29613,252.07,0.726575
271.8000,0.884731,251.89,0.724372
271.7000,0.42894,251.764,0.72283
271.6000,1.00524,251.621,0.721077
271.5000,0.555646,251.536,0.720037
271.4000,0.971274,251.854,0.723932
271.3000,1.99059,251.816,0.723471
271.2000,-0.160543,251.45,0.718991
271.1000,1.58151,251.717,0.722254
271.0000,1.23009,251.573,0.720493
270.9000,0.807156,252.002,0.725747
270.8000,1.08389,251.89,0.724375
270.7000,1.57412,251.99,0.7256
270.6000,0.39318,251.716,0.722242
270.5000,1.0059,251.653,0.721474
270.4000,0.594517,252.008,0.725818
270.3000,0.586847,251.973,0.72539
270.2000,1.18906,251.855,0.723942
270.1000,1.28318,251.804,0.723315
270.0000,1.64157,252.208,0.728264
269.9000,0.881856,251.89,0.724375
269.8000,1.40085,251.414,0.718548
269.7000,1.63733,252.028,0.726059
269.6000,1.17677,251.889,0.724365
269.5000,1.40888,251.539,0.720082
269.4000,-0.399361,252.375,0.730306
269.3000,0.157353,251.425,0.718682
269.2000,1.10002,252.124,0.727231
269.1000,1.35022,251.817,0.723476
269.0000,1.48914,251.859,0.723994
268.9000,1.73408,251.963,0.725267
268.8000,1.41101,251.833,0.723676
268.7000,1.09386,251.938,0.724954
268.6000,-0.887813,251.87,0.724124
268.5000,1.41095,251.583,0.72062
268.4000,1.32556,252.176,0.727875
268.3000,0.110824,252.115,0.727129
268.2000,-0.273546,252.095,0.726885
268.1000,1.125,252,0.725718
268.0000,0.626285,251.857,0.723963
267.9000,0.320515,251.916,0.724687
267.8000,1.38032,251.68,0.721809
267.7000,0.723366,251.846,0.723838
267.6000,0.644662,251.627,0.72115
267.5000,1.04518,251.872,0.724147
267.4000,0.613501,251.797,0.723234
267.3000,1.52947,251.77,0.722904
267.2000,0.277511,251.917,0.724703
267.1000,1.21295,251.972,0.72538
267.0000,0.0401177,251.757,0.72274
266.9000,1.07702,252.038,0.726184
266.8000,0.585653,252.358,0.730088
266.7000,1.10087,251.868,0.724109
266.6000,0.998161,251.992,0.725621
266.5000,0.881508,251.961,0.72524
266.4000,0.894034,252.318,0.729602
266.3000,1.07433,251.938,0.724959
266.2000,0.855111,252.035,0.726144
266.1000,1.10793,252.117,0.727143
266.0000,0.475843,252.327,0.729718
265.9000,0.8596,252.254,0.72882
265.8000,-0.133284,252.156,0.727619
265.7000,0.280727,252.241,0.728659
265.6000,0.187866,251.857,0.723965
265.5000,0.806486,251.944,0.725035
265.4000,1.45569,252.275,0.729084
265.3000,0.208671,252.641,0.733544
265.2000,1.34015,252.338,0.729847
265.1000,1.04978,252.465,0.731397
265.0000,1.06579,252.188,0.728013
264.9000,-0.364407,252.256,0.728849
264.8000,0.119078,252.204,0.728211
264.7000,0.203111,252.346,0.729941
264.6000,0.353509,252.168,0.727775
264.5000,0.793662,251.991,0.725607
264.4000,1.14876,252.388,0.730461
264.3000,0.525555,252.81,0.735608
264.2000,0.606817,253.065,0.738721
264.1000,0.496179,252.663,0.733817
264.0000,1.24295,252.544,0.732362
263.9000,0.942573,252.617,0.733257
263.8000,0.224194,252.487,0.731663
263.7000,0.31586,252.448,0.731189
263.6000,-0.0451239,252.321,0.729643
263.5000,1.22257,252.465,0.731393
263.4000,0.586585,252.422,0.730868
263.3000,0.885441,252.371,0.73025
263.2000,-0.31144,252.47,0.731461
263.1000,1.97963,252.538,0.732289
263.0000,1.8619,252.424,0.730904
262.9000,0.36946,252.216,0.72836
262.8000,1.26729,252.47,0.731456
262.7000,0.678519,252.673,0.733943
262.6000,0.27494,252.521,0.732078
262.5000,0.545124,252.793,0.735401
262.4000,0.495454,252.894,0.736627
262.3000,1.16929,252.615,0.733224
262.2000,-0.149376,252.543,0.732355
262.1000,0.785154,252.623,0.733333
262.0000,0.40196,252.786,0.735315
261.9000,0.00217778,252.776,0.735194
261.8000,0.277969,252.935,0.737138
261.7000,0.799002,252.863,0.736249
261.6000,0.879144,253.076,0.738847
261.5000,-0.13887,253.112,0.739289
261.4000,0.327476,253.207,0.740445
261.3000,0.570671,252.595,0.732991
261.2000,1.42089,252.686,0.734092
261.1000,1.08098,253.087,0.738985
261.0000,0.752565,253.047,0.738497
260.9000,0.832292,253.565,0.744803
260.8000,0.85159,252.727,0.734601
260.7000,0.874823,253.255,0.741026
260.6000,0.514885,252.98,0.737686
260.5000,0.888127,253.107,0.739228
260.4000,-0.210201,253.233,0.740762
260.3000,1.76455,253.098,0.739118
260.2000,0.421263,253.098,0.739123
260.1000,0.038414,253.342,0.742086
260.0000,-0.264852,252.863,0.73626
259.9000,0.446529,252.957,0.737404
259.8000,0.297323,253.464,0.743571
259.7000,-0.169131,253.267,0.741174
259.6000,0.188212,253.476,0.743724
259.5000,1.1307,253.683,0.746237
259.4000,1.41933,253.319,0.741811
259.3000,0.301627,253.586,0.745054
259.2000,1.85828,253.396,0.742747
259.1000,0.782405,253.284,0.741383
259.0000,-0.441969,253.454,0.743448
258.9000,0.885607,253.695,0.746386
258.8000,1.18525,252.958,0.737418
258.7000,1.14571,253.094,0.739071
258.6000,-0.11138,253.692,0.746353
258.5000,0.804095,253.767,0.747262
258.4000,1.66435,253.666,0.746034
258.3000,0.734558,253.82,0.747903
258.2000,0.227164,253.704,0.746499
258.1000,1.24988,253.731,0.746826
258.0000,1.15094,253.986,0.749925
257.9000,0.448259,253.485,0.743826
257.8000,0.647214,253.602,0.745259
257.7000,1.09328,253.59,0.745111
257.6000,1.32766,254.229,0.752874
257.5000,0.226072,253.772,0.747326
257.4000,2.1415,253.727,0.746768
257.3000,1.27635,253.757,0.747143
257.2000,1.39105,254.205,0.752585
257.1000,1.50664,253.722,0.746713
257.0000,0.53239,253.97,0.749732
256.9000,0.532941,253.899,0.74887
256.8000,1.07108,253.971,0.749734
256.7000,-0.23274,253.979,0.749835
256.6000,-0.178602,253.831,0.74804
256.5000,0.457155,253.992,0.74999
256.4000,-0.381459,253.945,0.749427
256.3000,0.547395,254.239,0.752991
256.2000,-0.253663,254.33,0.754103
256.1000,1.02274,254.076,0.751019
256.0000,0.104226,254.38,0.754706
255.9000,1.39157,254.486,0.755988
255.8000,-0.091407,254.339,0.754205
255.7000,-0.603115,254.104,0.751351
255.6000,1.04884,254.516,0.75635
255.5000,0.746816,254.356,0.754409
255.4000,1.40563,254.417,0.755158
255.3000,0.347752,254.273,0.753405
255.2000,-0.31515,254.352,0.754359
255.1000,0.785912,254.276,0.753448
255.0000,0.63902,254.132,0.751689
254.9000,0.394806,254.556,0.756842
254.8000,0.361966,254.378,0.754686
254.7000,1.01891,254.294,0.753658
254.6000,0.513094,254.372,0.754605
254.5000,1.12871,254.303,0.753765
254.4000,1.14567,254.398,0.754921
254.3000,0.762638,254.47,0.755801
254.2000,0.470266,254.689,0.758457
254.1000,0.787259,254.491,0.756055
254.0000,0.38408,254.88,0.760764
253.9000,0.48332,254.673,0.758255
253.8000,0.974648,255.189,0.76451
253.7000,1.04539,254.98,0.761981
253.6000,1.41548,254.775,0.759497
253.5000,0.907021,255.036,0.762657
253.4000,1.00466,254.755,0.759247
253.3000,0.312142,255.1,0.763432
253.2000,1.38566,254.77,0.759435
253.1000,0.266419,254.772,0.75946
253.0000,0.805872,254.159,0.752023
252.9000,0.673311,254.622,0.757638
252.8000,0.959212,254.808,0.75989
252.7000,-0.126183,254.908,0.761108
252.6000,0.338226,254.795,0.759732
252.5000,2.55228,254.964,0.761787
252.4000,0.550616,254.555,0.756828
252.3000,0.348086,255.493,0.768186
252.2000,1.22537,254.704,0.758627
252.1000,0.673613,255.095,0.763367
252.0000,1.725,254.894,0.760937
251.9000,0.111468,255.142,0.763936
251.8000,0.667454,255.041,0.762719
251.7000,1.51043,255.451,0.767671
251.6000,0.0515748,255.579,0.76922
251.5000,0.809127,254.971,0.761872
251.4000,0.898711,254.959,0.761717
251.3000,0.291919,255.47,0.76791
251.2000,0.370595,255.133,0.763823
251.1000,0.766695,254.903,0.761047
251.0000,1.17677,255.2,0.764637
250.9000,1.1051,255.832,0.772283
250.8000,1.32958,254.883,0.760801
250.7000,0.436658,255.252,0.765273
250.6000,0.659358,254.959,0.761724
250.5000,1.58281,255.144,0.763967
250.4000,0.844646,255.387,0.766902
250.3000,1.79635,254.753,0.759228
250.2000,1.2201,255.11,0.763545
250.1000,0.254756,254.541,0.756653
250.0000,1.0289,255.117,0.763639
249.9000,0.60926,255.053,0.762866
249.8000,1.07203,255.088,0.763288
249.7000,0.946507,254.95,0.761613
249.6000,0.195785,255.092,0.763327
249.5000,0.778893,255.176,0.764347
249.4000,-0.323233,255.368,0.766674
249.3000,0.367633,255.154,0.76408
249.2000,0.467951,255.334,0.766259
249.1000,0.5565,254.956,0.761688
249.0000,0.201352,255.031,0.762588
248.9000,0.336884,255.217,0.764842
248.8000,0.955513,255.33,0.76621
248.7000,0.674835,254.992,0.762124
248.6000,0.987055,254.991,0.762113
248.5000,1.26498,255.031,0.762599
248.4000,0.877502,255.1,0.763423
248.3000,1.67979,255.247,0.765211
248.2000,0.488221,255.233,0.765041
248.1000,1.42121,254.802,0.759825
248.0000,0.405839,255.328,0.766187
247.9000,1.61204,254.924,0.761304
247.8000,0.156819,254.689,0.758456
247.7000,1.35258,254.921,0.761264
247.6000,2.50896,254.706,0.758662
247.5000,0.526974,255.521,0.768518
247.4000,0.46091,255.52,0.768513
247.3000,1.13399,255.104,0.763483
247.2000,0.913127,255.284,0.765661
247.1000,0.330521,255.416,0.767251
247.0000,1.45044,255.495,0.768203
246.9000,0.797309,255.251,0.765262
246.8000,0.0217197,255.639,0.769947
246.7000,0.621871,255.441,0.767556
246.6000,0.484098,255.606,0.769545
246.5000,1.61035,255.599,0.76946
246.4000,0.318895,255.539,0.768744
246.3000,1.53307,255.426,0.767373
246.2000,-0.163936,255.316,0.766037
246.1000,1.0942,255.525,0.768564
246.0000,0.672874,255.069,0.76306
245.9000,1.67344,255.655,0.770142
245.8000,0.928318,255.501,0.768284
245.7000,1.22933,255.432,0.76745
245.6000,1.19599,255.619,0.769701
245.5000,0.432736,255.536,0.768703
245.4000,0.715489,255.713,0.770844
245.3000,0.565927,255.581,0.769244
245.2000,0.785955,255.97,0.773946
245.1000,0.500284,256.007,0.774394
245.0000,1.1456,255.944,0.77363
244.9000,0.847672,255.488,0.768128
244.8000,1.3699,255.609,0.769588
244.7000,0.744091,255.648,0.770062
244.6000,0.163889,255.842,0.772395
244.5000,-0.189437,255.536,0.768705
244.4000,-0.169562,255.451,0.767674
244.3000,0.206038,255.811,0.772028
244.2000,0.854808,255.83,0.77225
244.1000,1.24625,256.183,0.776511
244.0000,-0.365428,255.918,0.773315
243.9000,1.68299,255.944,0.773635
243.8000,0.894175,256.553,0.780974
243.7000,0.712492,255.584,0.769282
243.6000,0.535353,256.044,0.774842
243.5000,1.02781,255.668,0.770295
243.4000,0.722757,256.143,0.776036
243.3000,1.23089,256.161,0.776246
243.2000,1.15522,255.811,0.772028
243.1000,1.05983,256.193,0.776639
243.0000,0.337139,256.202,0.77674
242.9000,1.90206,255.662,0.770219
242.8000,0.221068,256.153,0.776157
242.7000,1.22712,255.971,0.77396
242.6000,0.821346,256.594,0.781469
242.5000,0.523168,256.245,0.777264
242.4000,-0.172165,256.294,0.777857
242.3000,0.830602,256.419,0.779358
242.2000,1.11016,256.393,0.779047
242.1000,0.202945,255.943,0.773623
242.0000,0.395074,256.029,0.774657
241.9000,0.260972,256.009,0.774409
241.8000,-0.423372,256.458,0.779827
241.7000,0.910521,256.06,0.775032
241.6000,1.27765,256.046,0.774859
241.5000,0.611225,256.606,0.781614
241.4000,0.438336,256.009,0.774414
241.3000,1.61895,256.377,0.778858
241.2000,0.3172,256.339,0.778397
241.1000,0.325956,256.569,0.781168
241.0000,0.0937429,256.387,0.778972
240.9000,0.76558,256.55,0.780938
240.8000,0.688511,256.368,0.778747
240.7000,0.454663,256.272,0.777587
240.6000,-0.88945,256.929,0.785506
240.5000,0.879681,256.688,0.782603
240.4000,0.763217,256.255,0.777379
240.3000,0.579509,256.775,0.783653
240.2000,1.14939,256.703,0.782782
240.1000,0.484089,256.83,0.784313
240.0000,0.646035,256.889,0.785026
239.9000,0.396642,256.785,0.783769
239.8000,-0.380589,256.884,0.784964
239.7000,1.00667,256.725,0.78305
239.6000,1.22941,256.976,0.78607
239.5000,0.912218,257.114,0.787731
239.4000,0.678082,257.322,0.790229
239.3000,0.459421,257.202,0.78879
239.2000,0.0257346,256.986,0.786189
239.1000,-0.0726013,257.761,0.795496
239.0000,0.123369,256.936,0.785588
238.9000,0.879382,257.281,0.789732
238.8000,-0.499916,257.732,0.795149
238.7000,0.06475,257.426,0.791471
238.6000,-0.570746,258.248,0.801333
238.5000,0.903802,257.483,0.792157
238.4000,0.47263,257.594,0.79349
238.3000,-0.174119,258.246,0.801314
238.2000,0.778988,258.391,0.80305
238.1000,0.683144,258.132,0.799952
238.0000,0.676653,258.408,0.803248
237.9000,0.110878,257.886,0.797
237.8000,-0.0529843,257.953,0.797804
237.7000,-0.911973,258.266,0.801557
237.6000,-0.234369,257.744,0.795299
237.5000,-0.0468222,258.463,0.803915
237.4000,-0.3868,258.354,0.802612
237.3000,0.508385,258.023,0.798638
237.2000,-0.371323,258.5,0.804354
237.1000,0.252831,258.41,0.803276
237.0000,0.684043,258.656,0.806226
236.9000,-0.54666,258.605,0.805616
236.8000,0.151775,258.504,0.8044
236.7000,-0.230991,258.513,0.804507
236.6000,0.839874,258.951,0.809746
236.5000,-0.165466,258.919,0.809368
236.4000,0.929107,258.74,0.80723
236.3000,-0.713187,259.286,0.813753
236.2000,0.827548,258.867,0.808742
236.1000,0.641826,259.23,0.81309
236.0000,-1.20341,259.042,0.810844
235.9000,0.192967,259.456,0.81578
235.8000,-0.255071,259.021,0.81059
235.7000,-0.449244,259.289,0.813787
235.6000,0.202106,259.822,0.820147
235.5000,0.696359,259.827,0.82021
235.4000,0.147933,259.657,0.818185
235.3000,-0.136868,259.535,0.816727
235.2000,-0.168549,259.609,0.817612
235.1000,-0.991411,259.44,0.815598
235.0000,-0.81557,260.117,0.823659
234.9000,0.756296,259.909,0.82118
234.8000,-0.371436,259.904,0.82113
234.7000,-0.0727639,260.048,0.822841
234.6000,-0.796331,260.221,0.824897
234.5000,-0.830078,260.13,0.823814
234.4000,-0.622025,260.195,0.824592
234.3000,-0.259611,260.385,0.826856
234.2000,-0.206792,260.375,0.82673
234.1000,-0.883965,260.42,0.827266
234.0000,-0.0764323,260.632,0.829792
233.9000,-0.622086,261.011,0.834291
233.8000,-0.767823,261.115,0.835534
233.7000,0.058458,260.935,0.833398
233.6000,0.417271,261.247,0.837099
233.5000,-0.602898,261.282,0.837512
233.4000,-0.622224,260.497,0.828182
233.3000,0.0498781,261.484,0.839907
233.2000,-0.763223,260.805,0.83185
233.1000,-0.729727,261.397,0.838877
233.0000,-1.60246,261.637,0.84172
232.9000,-0.832572,261.664,0.842047
232.8000,-0.994011,261.514,0.840263
232.7000,-1.27389,261.614,0.841453
232.6000,-1.16105,261.813,0.843803
232.5000,-0.718057,261.881,0.844613
232.4000,0.0487732,261.958,0.84552
232.3000,-0.0629249,261.905,0.844903
232.2000,-0.420492,262.023,0.8463
232.1000,-1.31724,261.881,0.844611
232.0000,-0.39683,262.031,0.846389
231.9000,-0.689435,262.605,0.853181
231.8000,0.0594862,262.484,0.851747
231.7000,-1.66943,263.182,0.859987
231.6000,-1.11974,262.546,0.852478
231.5000,-1.09158,262.941,0.857142
231.4000,-0.585059,262.894,0.856589
231.3000,-1.76292,262.984,0.857652
231.2000,-0.191514,262.802,0.855505
231.1000,-0.867258,263.084,0.858834
231.0000,-1.45987,263.179,0.859956
230.9000,-0.734911,263.119,0.859246
230.8000,-0.895011,263.24,0.86068
230.7000,-1.54656,263.452,0.863168
230.6000,-0.328407,263.456,0.863221
230.5000,-0.0347758,263.523,0.86401
230.4000,-1.29808,263.567,0.864529
230.3000,-3.1542,263.279,0.861139
230.2000,0.326723,263.263,0.860947
230.1000,-0.676196,263.611,0.865048
230.0000,-0.994923,263.06,0.858553
229.9000,-1.91309,263.388,0.862423
229.8000,-1.27015,263.293,0.861294
229.7000,-0.901215,263.789,0.867143
229.6000,-1.64383,263.715,0.866267
229.5000,-1.73002,263.741,0.866577
229.4000,-1.31066,263.119,0.859248
229.3000,-2.08558,263.872,0.868116
229.2000,-1.9922,264.144,0.871314
229.1000,-2.44767,264.45,0.874913
229.0000,-1.14671,264.425,0.874622
228.9000,-1.00148,264.874,0.879898
228.8000,-2.11225,265.063,0.882109
228.7000,-2.07284,265.464,0.886811
228.6000,-1.58386,265.106,0.882612
228.5000,-3.11184,265.432,0.886431
228.4000,-1.56381,265.741,0.890052
228.3000,-0.854536,265.748,0.890138
228.2000,-0.63237,266.174,0.895117
228.1000,-1.63081,266.205,0.895478
228.0000,-1.35892,266.181,0.895194
227.9000,-1.53524,266.573,0.899778
227.8000,-2.41611,266.733,0.901639
227.7000,-2.26584,266.139,0.894708
227.6000,-0.786109,266.918,0.9038
227.5000,-0.720369,266.922,0.903839
227.4000,-2.48343,266.91,0.903705
227.3000,-2.63837,267.545,0.911098
227.2000,-1.67203,267.345,0.908772
227.1000,-1.84142,267.789,0.913941
227.0000,-1.91006,267.571,0.911399
226.9000,-0.53339,267.743,0.913397
226.8000,-0.864036,268.511,0.922321
226.7000,-2.02246,267.824,0.914346
226.6000,-2.35002,268.58,0.92312
226.5000,-1.5887,268.208,0.91881
226.4000,-1.78289,268.09,0.917437
226.3000,-1.73737,268.462,0.921754
226.2000,-1.28224,268.937,0.927258
226.1000,-1.43355,269.35,0.93204
226.0000,-1.07999,268.663,0.924082
225.9000,-1.66682,268.663,0.92409
225.8000,-1.68069,269.293,0.931382
225.7000,-2.49912,269.186,0.930143
225.6000,-2.0461,269.683,0.935895
225.5000,-1.28329,270.095,0.940654
225.4000,-2.02841,269.824,0.937527
225.3000,-2.20928,270.234,0.94226
225.2000,-1.51462,270.455,0.944803
225.1000,-2.33832,270.89,0.949818
225.0000,-2.18755,270.699,0.947621
224.9000,-2.12012,270.805,0.948843
224.8000,-3.41233,271.341,0.955013
224.7000,-3.19752,271.113,0.952385
224.6000,-2.44079,271.342,0.955018
224.5000,-2.93545,271.734,0.959526
224.4000,-3.91497,272.04,0.963032
224.3000,-1.77696,272.058,0.96324
224.2000,-3.70736,272.344,0.966526
224.1000,-2.45939,272.4,0.967163
224.0000,-3.7764,272.438,0.967599
223.9000,-2.69088,272.527,0.968617
223.8000,-1.65778,273.161,0.975879
223.7000,-2.46249,272.966,0.973646
223.6000,-1.17862,273.236,0.976731
223.5000,-2.20649,273.74,0.982496
223.4000,-2.58277,273.736,0.982442
223.3000,-1.91117,274.237,0.988162
223.2000,-2.79843,274.315,0.989058
223.1000,-1.82467,274.123,0.986862
223.0000,-1.84513,274.551,0.991746
222.9000,-2.72441,274.999,0.996839
222.8000,-1.54915,275.196,0.999082
222.7000,-2.30651,275.381,1.00118
222.6000,-1.80912,275.942,1.00755
222.5000,-2.69661,275.955,1.00769
222.4000,-3.05493,276.033,1.00858
222.3000,-1.47747,276.864,1.01799
222.2000,-0.992404,276.702,1.01616
222.1000,-1.97753,276.999,1.01951
222.0000,-3.24309,277.965,1.03042
221.9000,-2.60674,277.465,1.02478
221.8000,-1.15185,277.643,1.02679
221.7000,-2.80758,278.163,1.03264
221.6000,-1.69518,277.971,1.03049
221.5000,-2.13107,278.469,1.03609
221.4000,-3.03437,279.3,1.04543
221.3000,-3.20194,278.89,1.04083
221.2000,-1.77904,279.347,1.04596
221.1000,-1.49219,279.871,1.05184
221.0000,-1.46103,280.087,1.05426
220.9000,-1.09148,280.052,1.05387
220.8000,-3.28756,280.233,1.0559
220.7000,-2.80704,280.791,1.06214
220.6000,-4.03667,280.983,1.06428
220.5000,-1.46423,281.799,1.07339
220.4000,-2.63587,281.66,1.07184
220.3000,-2.92135,282.276,1.0787
220.2000,-2.93544,282.378,1.07983
220.1000,-2.22695,282.952,1.08622
220.0000,-2.39901,283.536,1.09269
219.9000,-1.77115,283.583,1.09321
219.8000,-2.36411,283.952,1.0973
219.7000,-1.06749,284.536,1.10377
219.6000,-1.74096,284.668,1.10522
219.5000,0.424219,284.89,1.10767
219.4000,-2.97048,284.794,1.10662
219.3000,-2.78637,285.344,1.11269
219.2000,-3.95645,285.691,1.11651
219.1000,-1.81024,285.951,1.11938
219.0000,-3.09855,286.354,1.12381
218.9000,-1.594,286.954,1.1304
218.8000,-3.50265,287.097,1.13197
218.7000,-2.27513,287.846,1.14018
218.6000,-2.89271,287.888,1.14064
218.5000,-1.66448,288.297,1.14511
218.4000,-1.08177,288.789,1.15049
218.3000,-2.7145,289.219,1.15518
218.2000,-2.9884,289.509,1.15834
218.1000,-3.98626,290.182,1.16567
218.0000,-1.81526,290.709,1.17139
217.9000,-1.53352,290.608,1.1703
217.8000,-3.734,291.241,1.17717
217.7000,-1.06396,291.709,1.18224
217.6000,-1.22293,292.181,1.18735
217.5000,-0.622469,292.811,1.19416
217.4000,-1.16176,293.597,1.20263
217.3000,-1.72453,293.494,1.20152
217.2000,-1.35672,294.086,1.20789
217.1000,-2.64853,295.038,1.21811
217.0000,-2.22689,295.118,1.21897
216.9000,-2.4857,295.917,1.22753
216.8000,-1.43535,296.207,1.23064
216.7000,-1.63931,296.763,1.23658
216.6000,-0.87086,297.05,1.23963
216.5000,-1.58976,297.311,1.24241
216.4000,-3.18544,297.884,1.24852
216.3000,-2.9619,298.369,1.25368
216.2000,-1.02722,298.652,1.25668
216.1000,-0.959057,299.292,1.26347
216.0000,-1.20391,299.771,1.26854
215.9000,-2.07878,299.982,1.27077
215.8000,-0.626591,300.897,1.28044
215.7000,-0.70849,301.35,1.28522
215.6000,-2.87053,301.45,1.28628
215.5000,-0.742761,302.299,1.29521
215.4000,-2.26346,302.58,1.29816
215.3000,-2.05695,302.759,1.30004
215.2000,-1.58114,303.357,1.30632
215.1000,-0.676626,304.061,1.31368
215.0000,-2.23632,304.537,1.31866
214.9000,-1.55415,304.716,1.32053
214.8000,-2.63213,305.159,1.32515
214.7000,-2.39433,305.734,1.33115
214.6000,-1.9699,306.192,1.33591
214.5000,-1.21247,306.636,1.34052
214.4000,-2.40071,307.132,1.34567
214.3000,-1.54174,307.401,1.34846
214.2000,-0.920841,308.012,1.35479
214.1000,-2.51173,308.33,1.35808
214.0000,-2.20463,308.527,1.36012
213.9000,-2.1991,309.135,1.36639
213.8000,-2.62632,309.642,1.37162
213.7000,-1.38065,310.127,1.37661
213.6000,-1.83149,310.57,1.38116
213.5000,-3.75681,311.023,1.38582
213.4000,-3.27583,311.515,1.39087
213.3000,-2.50337,311.937,1.3952
213.2000,-2.89958,312.253,1.39842
213.1000,-2.97337,312.914,1.40518
213.0000,-4.35256,313.278,1.4089
212.9000,-1.56728,313.393,1.41007
212.8000,-0.57385,313.858,1.41481
212.7000,-2.51581,314.357,1.41989
212.6000,-1.7036,314.986,1.42628
212.5000,-3.00867,315.326,1.42974
212.4000,-3.23485,315.947,1.43603
212.3000,-1.87545,316.231,1.43891
212.2000,-1.21812,316.931,1.44598
212.1000,-2.49685,317.467,1.4514
212.0000,-5.31795,318.165,1.45844
211.9000,-3.37249,318.093,1.45771
211.8000,-2.60356,318.986,1.4667
211.7000,-1.5553,319.314,1.46999
211.6000,-1.726,319.659,1.47346
211.5000,-1.97895,320.4,1.48088
211.4000,-1.98876,320.492,1.4818
211.3000,-0.979663,321.047,1.48736
211.2000,-2.94927,321.233,1.48921
211.1000,1.22769,321.861,1.49549
211.0000,-0.8437,322.047,1.49734
210.9000,-3.94928,322.657,1.50341
210.8000,-3.46004,322.791,1.50474
210.7000,-1.39433,323.257,1.50939
210.6000,-4.22213,323.55,1.51229
210.5000,-1.31238,323.989,1.51665
210.4000,-1.7106,324.352,1.52025
210.3000,-1.87188,324.486,1.52158
210.2000,-1.82335,324.89,1.52558
210.1000,-1.61933,325.26,1.52924
210.0000,-1.31708,325.653,1.53312
209.9000,-1.36678,326.266,1.53917
209.8000,-0.0289356,326.307,1.53958
209.7000,-1.3126,326.716,1.54361
209.6000,-4.60723,327.248,1.54885
209.5000,-0.787069,327.548,1.5518
209.4000,-0.289073,327.779,1.55406
209.3000,-2.64495,328.223,1.55842
209.2000,-0.192725,328.658,1.5627
209.1000,-2.11552,328.796,1.56404
209.0000,-1.56686,328.732,1.56342
208.9000,-3.28454,329.56,1.57153
208.8000,-1.88858,329.559,1.57152
208.7000,-2.50484,329.653,1.57244
208.6000,-1.99308,329.893,1.57478
208.5000,-1.21141,329.787,1.57374
208.4000,0.782264,330.634,1.58201
208.3000,-2.31932,330.695,1.5826
208.2000,-1.03904,330.463,1.58034
208.1000,-3.20524,331.239,1.5879
208.0000,-0.759006,331.375,1.58924
207.9000,-1.20046,331.926,1.5946
207.8000,-0.598282,331.948,1.59481
207.7000,0.396669,332.082,1.59611
207.6000,-1.88513,332.023,1.59554
207.5000,-1.26426,332.367,1.59888
207.4000,-3.29684,332.558,1.60073
207.3000,-0.314571,332.828,1.60335
207.2000,-0.545921,332.927,1.60431
207.1000,-0.105147,333.201,1.60696
207.0000,-1.2276,333.167,1.60664
206.9000,2.47565,333.122,1.6062
206.8000,-2.53744,333.511,1.60997
206.7000,-2.56932,333.528,1.61014
206.6000,-0.931759,333.562,1.61047
206.5000,-0.940369,333.568,1.61052
206.4000,1.11606,333.949,1.61421
206.3000,-0.24327,333.743,1.61221
206.2000,-1.05524,334.365,1.61823
206.1000,-3.92524,334.223,1.61686
206.0000,-1.72219,334.757,1.62202
205.9000,-1.51612,334.875,1.62316
205.8000,0.0929015,334.784,1.62228
205.7000,-1.08923,334.368,1.61826
205.6000,-2.09628,334.736,1.62182
205.5000,1.85201,334.749,1.62194
205.4000,-2.64764,334.7,1.62147
205.3000,-0.50568,334.806,1.62249
205.2000,0.466084,335.176,1.62606
205.1000,-3.41001,335.343,1.62767
205.0000,1.18996,335.459,1.62879
204.9000,-1.6336,335.454,1.62874
204.8000,-0.219016,335.401,1.62823
204.7000,-0.0150653,335.206,1.62635
204.6000,0.472018,335.504,1.62922
204.5000,0.734143,335.588,1.63003
204.4000,1.0675,335.814,1.63221
204.3000,0.472828,335.685,1.63096
204.2000,1.06013,335.826,1.63233
204.1000,-2.95745,335.717,1.63127
204.0000,-0.133454,336.277,1.63666
203.9000,-1.32685,336.277,1.63666
203.8000,-0.198312,336.281,1.6367
203.7000,-1.27814,336.763,1.64133
203.6000,-0.315555,336.576,1.63954
203.5000,1.4749,336.484,1.63865
203.4000,1.49302,336.413,1.63797
203.3000,1.39339,336.842,1.64209
203.2000,0.14496,337.024,1.64384
203.1000,1.74311,336.638,1.64013
203.0000,0.20121,336.888,1.64253
202.9000,3.06688,336.841,1.64208
202.8000,-0.525327,337.061,1.64419
202.7000,0.149878,336.907,1.64271
202.6000,1.5523,337.637,1.64972
202.5000,2.52223,337.614,1.64949
202.4000,1.92546,337.308,1.64656
202.3000,2.109,337.559,1.64897
202.2000,1.33167,337.895,1.65219
202.1000,2.08484,338.334,1.6564
202.0000,1.83432,338.459,1.65759
201.9000,6.21894,338.521,1.65818
201.8000,1.93149,338.683,1.65973
201.7000,1.16069,338.927,1.66206
201.6000,0.553394,339.223,1.66489
201.5000,0.366624,339.772,1.67012
201.4000,0.934397,339.75,1.66992
201.3000,4.58952,340.34,1.67553
201.2000,4.31645,340.239,1.67458
201.1000,0.127239,340.284,1.67501
201.0000,1.85637,340.602,1.67803
200.9000,6.00747,341.145,1.68319
200.8000,3.9861,341.123,1.68299
200.7000,5.52197,341.602,1.68754
200.6000,5.24463,341.837,1.68976
200.5000,3.02672,342.322,1.69436
200.4000,6.45073,342.374,1.69485
200.3000,4.52621,343.166,1.70235
200.2000,3.12516,343.594,1.70639
200.1000,2.70855,343.76,1.70796
200.0000,4.66572,343.951,1.70976
199.9000,2.65742,344.529,1.71521
199.8000,2.69335,345.235,1.72186
199.7000,3.45839,345.503,1.72438
199.6000,5.4656,345.922,1.72832
199.5000,5.21686,346.476,1.73352
199.4000,5.00869,346.905,1.73754
199.3000,4.38415,347.436,1.74251
199.2000,5.85169,347.657,1.74457
199.1000,8.49357,348.017,1.74794
199.0000,4.47781,348.777,1.75504
198.9000,4.67046,349.735,1.76396
198.8000,3.98734,349.853,1.76506
198.7000,4.02733,350.571,1.77174
198.6000,1.87951,350.955,1.7753
198.5000,4.72915,351.934,1.78437
198.4000,4.90524,352.615,1.79067
198.3000,7.58841,353.178,1.79587
198.2000,6.54081,354.128,1.80463
198.1000,6.93076,355.108,1.81364
198.0000,8.65076,355.499,1.81723
197.9000,6.57977,355.932,1.8212
197.8000,8.02789,357.154,1.8324
197.7000,8.28305,357.97,1.83985
197.6000,11.0255,358.738,1.84685
197.5000,6.20904,359.391,1.8528
197.4000,6.3497,360.467,1.86257
197.3000,5.67004,361.423,1.87124
197.2000,5.56037,362.436,1.88039
197.1000,7.48784,363.151,1.88685
197.0000,6.51709,364.516,1.89914
196.9000,10.786,365.608,1.90894
196.8000,5.75435,367.044,1.92179
196.7000,9.3363,367.895,1.92939
196.6000,4.0129,369.421,1.94297
196.5000,7.14782,370.527,1.95279
196.4000,4.4476,372.263,1.96816
196.3000,10.263,373.626,1.98017
196.2000,9.02525,374.704,1.98965
196.1000,5.5507,376.719,2.00731
196.0000,8.02711,378.247,2.02065
195.9000,7.45155,379.87,2.03476
195.8000,4.91824,381.178,2.04611
195.7000,5.56595,382.916,2.06113
195.6000,6.809,384.304,2.07307
195.5000,9.14956,386.125,2.0887
195.4000,6.66139,387.779,2.10284
195.3000,8.0864,389.33,2.11605
195.2000,7.62496,391.018,2.13038
195.1000,6.97674,392.114,2.13966
195.0000,9.57821,394.216,2.15739
194.9000,8.116,395.928,2.17177
194.8000,9.06752,397.613,2.18588
194.7000,8.79636,399.616,2.20258
194.6000,7.52838,401.511,2.21831
194.5000,3.37177,403.093,2.2314
194.4000,4.3293,405.69,2.2528
194.3000,11.1803,408.386,2.27488
194.2000,5.36959,411.195,2.29776
194.1000,7.10957,413.54,2.31677
194.0000,2.37003,416.69,2.34215
193.9000,8.04391,419.376,2.36367
193.8000,7.06768,422.594,2.3893
193.7000,4.58067,426.331,2.41885
193.6000,2.58556,428.558,2.43636
193.5000,7.03653,431.156,2.45669
193.4000,5.1171,433.606,2.47577
193.3000,5.79709,435.657,2.49166
193.2000,10.1983,437.889,2.5089
193.1000,6.72578,440.715,2.53061
193.0000,7.77191,443.879,2.55478
192.9000,4.6298,447.199,2.57999
192.8000,5.55002,449.712,2.59896
192.7000,4.11723,452.974,2.62345
192.6000,9.36672,457.078,2.65406
192.5000,6.82605,461.403,2.68607
192.4000,1.65828,464.925,2.71195
192.3000,-0.0346361,468.676,2.73933
192.2000,4.56683,472.184,2.76477
192.1000,6.70697,474.978,2.78491
192.0000,5.31443,478.019,2.80673
191.9000,4.40935,481.808,2.83374
191.8000,3.15465,485.704,2.86133
191.7000,5.68937,489.181,2.8858
191.6000,1.25787,492.869,2.9116
191.5000,0.304234,496.292,2.93539
191.4000,4.34299,501.516,2.97143
191.3000,2.41741,506.01,3.00218
191.2000,4.86843,510.207,3.0307
191.1000,3.19342,515.672,3.06753
191.0000,3.3679,520.727,3.10131
190.9000,2.71721,526.578,3.14005
190.8000,4.15055,532.322,3.17775
190.7000,6.74217,537.194,3.20944
190.6000,0.242771,541.941,3.24009
190.5000,1.30154,546.821,3.27136
190.4000,1.33447,551.964,3.30406
190.3000,5.89188,557.223,3.33723
190.2000,1.3681,562.401,3.36964
190.1000,0.438404,566.213,3.39333
190.0000,3.41907,571.431,3.42555

##### Extended Information
[Comments]
Sample name,class
Comment
User
Division
Company,Saint Mary's College

[Detailed Information]
Creation date,9/29/2021 3:42 PM

Data array type,Linear data array * 3
Horizontal axis,Wavelength [nm]
Vertical axis(1),CD [mdeg]
Vertical axis(2),HT [V]
Vertical axis(3),Abs
Start,290 nm
End,190 nm
Data interval,0.1 nm
Data points,1001    

[Measurement Information]
Instrument name,J-1500
Model name,J-1500
Serial No.,B051061638

Detector,PM-539
Detector S/N,B051061638
  Lock-in amp.,X mode
  HT volt,Auto

Accessory,PTC-517
Accessory S/N,B026561646
  Temperature,22.63 C
  Control sensor,Holder
  Monitor sensor,Holder

Measurement date,9/29/2021 3:42 PM

CD Overload detect,697
Photometric mode,CD, HT, Abs
Measure range,290 - 190 nm
Data pitch,0.1 nm
CD scale,20 mdeg/0.05 dOD
FL scale,20 mdeg/0.05 dOD
D.I.T.,64 msec
Bandwidth,1.00 nm
Start mode,Immediately
Scanning mode,Continuous
Scanning speed,50 nm/min
Baseline correction,None
Shutter control,Auto
No. of cycle,1/1
N2 Flowmeter,Manual


