TITLE,Buffer temp test2 HEPES 10-28-2020
DATA TYPE,
ORIGIN,JASCO
OWNER,
DATE,20/10/28
TIME,19:51:35
SPECTROMETER/DATA SYSTEM,
LOCALE,1033
RESOLUTION,
DELTAX,-0.1
XUNITS,NANOMETERS
YUNITS,CD [mdeg]
Y2UNITS,HT [V]
Y3UNITS,ABSORBANCE
FIRSTX,  300.0000
LASTX,  190.0000
NPOINTS,    1101
FIRSTY,     0.49322
MAXY,     2.06218
MINY,    -2.16637
XYDATA
300.0000,0.493217,258.104,0.799607
299.9000,0.451247,258.104,0.799606
299.8000,0.473016,258.121,0.799815
299.7000,0.509481,258.107,0.799651
299.6000,0.533253,258.069,0.799192
299.5000,0.448762,258.049,0.798949
299.4000,0.429191,258.018,0.798578
299.3000,0.467226,258.002,0.798386
299.2000,0.4295,257.988,0.798224
299.1000,0.454447,257.958,0.797865
299.0000,0.538694,257.973,0.798042
298.9000,0.548654,257.941,0.79766
298.8000,0.568742,257.951,0.797783
298.7000,0.545894,257.94,0.797643
298.6000,0.660228,257.927,0.797485
298.5000,0.527525,257.918,0.797384
298.4000,0.56236,257.898,0.79714
298.3000,0.443952,257.88,0.796931
298.2000,0.430197,257.85,0.796561
298.1000,0.372903,257.843,0.796479
298.0000,0.378791,257.836,0.796398
297.9000,0.318331,257.83,0.796323
297.8000,0.402395,257.85,0.796562
297.7000,0.380812,257.865,0.796743
297.6000,0.264622,257.874,0.796854
297.5000,0.240462,257.868,0.796787
297.4000,0.271693,257.858,0.796662
297.3000,0.276305,257.838,0.796428
297.2000,0.208286,257.823,0.796242
297.1000,0.232933,257.793,0.795881
297.0000,0.250523,257.752,0.795386
296.9000,0.250622,257.715,0.794941
296.8000,0.293521,257.694,0.794699
296.7000,0.406014,257.685,0.794583
296.6000,0.461961,257.687,0.79461
296.5000,0.369113,257.691,0.794653
296.4000,0.345613,257.681,0.794544
296.3000,0.376628,257.677,0.794495
296.2000,0.309164,257.706,0.794837
296.1000,0.262421,257.697,0.794736
296.0000,0.299325,257.719,0.79499
295.9000,0.268308,257.701,0.794775
295.8000,0.192894,257.669,0.794398
295.7000,0.288302,257.658,0.794263
295.6000,0.316155,257.648,0.794147
295.5000,0.424665,257.613,0.793722
295.4000,0.369426,257.6,0.793565
295.3000,0.408296,257.584,0.793375
295.2000,0.421717,257.54,0.79285
295.1000,0.461454,257.546,0.792917
295.0000,0.495671,257.542,0.792872
294.9000,0.453157,257.537,0.792814
294.8000,0.284699,257.518,0.792579
294.7000,0.335618,257.516,0.792559
294.6000,0.408217,257.499,0.792354
294.5000,0.422713,257.498,0.792345
294.4000,0.379614,257.505,0.792422
294.3000,0.31742,257.463,0.791916
294.2000,0.329812,257.463,0.79192
294.1000,0.357543,257.474,0.792054
294.0000,0.452784,257.47,0.792
293.9000,0.535726,257.447,0.791725
293.8000,0.507909,257.435,0.791587
293.7000,0.473572,257.423,0.791436
293.6000,0.491793,257.413,0.791321
293.5000,0.611427,257.434,0.791574
293.4000,0.62297,257.439,0.791631
293.3000,0.621282,257.39,0.791043
293.2000,0.691166,257.355,0.790625
293.1000,0.700683,257.324,0.790251
293.0000,0.625853,257.318,0.790178
292.9000,0.524469,257.29,0.789843
292.8000,0.62591,257.264,0.789529
292.7000,0.467011,257.206,0.788837
292.6000,0.478196,257.145,0.788101
292.5000,0.556944,257.107,0.787637
292.4000,0.466598,257.091,0.787449
292.3000,0.45126,257.046,0.786911
292.2000,0.41455,256.985,0.786172
292.1000,0.463749,256.936,0.78559
292.0000,0.410571,256.857,0.784631
291.9000,0.493755,256.787,0.783793
291.8000,0.512611,256.737,0.783191
291.7000,0.395964,256.65,0.782146
291.6000,0.360781,256.545,0.780876
291.5000,0.402556,256.455,0.779799
291.4000,0.471912,256.392,0.779037
291.3000,0.544644,256.369,0.778753
291.2000,0.598126,256.364,0.778695
291.1000,0.483694,256.386,0.778962
291.0000,0.41144,256.428,0.77947
290.9000,0.344925,256.514,0.780501
290.8000,0.298339,256.605,0.781603
290.7000,0.397014,256.71,0.782859
290.6000,0.405365,256.774,0.783637
290.5000,0.311095,256.849,0.784537
290.4000,0.289333,256.884,0.784961
290.3000,0.287258,256.946,0.785708
290.2000,0.390753,256.938,0.785605
290.1000,0.434343,256.951,0.785764
290.0000,0.49898,256.964,0.785917
289.9000,0.436512,256.958,0.785849
289.8000,0.33129,256.946,0.785707
289.7000,0.362286,256.933,0.785553
289.6000,0.324239,256.932,0.785533
289.5000,0.307899,256.947,0.785717
289.4000,0.264711,256.955,0.785817
289.3000,0.289707,256.93,0.785516
289.2000,0.240283,256.926,0.785461
289.1000,0.181977,256.922,0.785412
289.0000,0.216922,256.916,0.785345
288.9000,0.318302,256.944,0.785679
288.8000,0.321967,256.969,0.785985
288.7000,0.334141,256.946,0.78571
288.6000,0.323685,256.96,0.785879
288.5000,0.528675,256.978,0.786087
288.4000,0.455163,256.979,0.786104
288.3000,0.49181,256.924,0.785439
288.2000,0.562735,256.913,0.785313
288.1000,0.518758,256.89,0.785031
288.0000,0.431622,256.843,0.784461
287.9000,0.446479,256.857,0.784634
287.8000,0.303998,256.844,0.78448
287.7000,0.211535,256.822,0.784209
287.6000,0.177732,256.804,0.783992
287.5000,0.305598,256.783,0.783748
287.4000,0.263671,256.782,0.783735
287.3000,0.341105,256.751,0.783361
287.2000,0.302722,256.722,0.783006
287.1000,0.222437,256.695,0.782687
287.0000,0.324524,256.654,0.782197
286.9000,0.286257,256.64,0.782028
286.8000,0.356722,256.604,0.781593
286.7000,0.196861,256.591,0.781433
286.6000,0.226687,256.583,0.78134
286.5000,0.0720885,256.579,0.781287
286.4000,0.134471,256.589,0.781408
286.3000,0.182269,256.582,0.781325
286.2000,0.169678,256.607,0.781619
286.1000,0.281342,256.607,0.781621
286.0000,0.258432,256.615,0.781716
285.9000,0.350233,256.613,0.781701
285.8000,0.23483,256.611,0.781678
285.7000,0.312553,256.61,0.781655
285.6000,0.315474,256.611,0.781675
285.5000,0.308006,256.598,0.781511
285.4000,0.359823,256.581,0.781314
285.3000,0.338448,256.582,0.781322
285.2000,0.325523,256.572,0.781199
285.1000,0.395463,256.568,0.781154
285.0000,0.398816,256.57,0.781182
284.9000,0.508929,256.543,0.780851
284.8000,0.545389,256.543,0.780855
284.7000,0.539326,256.544,0.780861
284.6000,0.44252,256.517,0.780538
284.5000,0.364505,256.519,0.780559
284.4000,0.364765,256.513,0.780498
284.3000,0.366303,256.51,0.780452
284.2000,0.365808,256.533,0.780729
284.1000,0.313007,256.554,0.780987
284.0000,0.293245,256.551,0.780945
283.9000,0.238284,256.536,0.780768
283.8000,0.19699,256.542,0.780847
283.7000,0.323384,256.53,0.780703
283.6000,0.289253,256.542,0.780843
283.5000,0.224471,256.525,0.780642
283.4000,0.104483,256.488,0.780195
283.3000,0.0415546,256.46,0.779851
283.2000,0.0957051,256.432,0.779523
283.1000,0.0512597,256.43,0.779487
283.0000,0.162533,256.432,0.779521
282.9000,0.174593,256.42,0.779371
282.8000,0.15945,256.409,0.779236
282.7000,0.190025,256.405,0.779195
282.6000,0.2998,256.407,0.779219
282.5000,0.387281,256.424,0.779424
282.4000,0.433539,256.425,0.77943
282.3000,0.520017,256.419,0.779358
282.2000,0.507878,256.427,0.779455
282.1000,0.47385,256.385,0.778951
282.0000,0.52796,256.37,0.77877
281.9000,0.601722,256.354,0.77858
281.8000,0.507967,256.327,0.778247
281.7000,0.51476,256.317,0.778131
281.6000,0.398614,256.299,0.777919
281.5000,0.355834,256.274,0.777607
281.4000,0.332512,256.253,0.777358
281.3000,0.352882,256.26,0.777443
281.2000,0.2805,256.257,0.77741
281.1000,0.268917,256.261,0.777455
281.0000,0.287377,256.27,0.777565
280.9000,0.27932,256.249,0.777306
280.8000,0.286219,256.206,0.77679
280.7000,0.224467,256.185,0.776536
280.6000,0.280458,256.173,0.7764
280.5000,0.226357,256.172,0.776377
280.4000,0.295489,256.159,0.776221
280.3000,0.314798,256.132,0.775897
280.2000,0.262756,256.111,0.775645
280.1000,0.216215,256.112,0.775664
280.0000,0.203159,256.14,0.775996
279.9000,0.179588,256.125,0.775819
279.8000,0.216653,256.128,0.775845
279.7000,0.244039,256.103,0.77555
279.6000,0.232382,256.104,0.775562
279.5000,0.315882,256.111,0.775649
279.4000,0.299439,256.119,0.775746
279.3000,0.330743,256.086,0.77534
279.2000,0.279777,256.072,0.775181
279.1000,0.327122,256.078,0.775253
279.0000,0.265825,256.067,0.775112
278.9000,0.298009,256.089,0.775382
278.8000,0.267294,256.081,0.775279
278.7000,0.093414,256.077,0.775237
278.6000,0.152757,256.043,0.774826
278.5000,0.224926,256.063,0.77507
278.4000,0.347823,256.055,0.774969
278.3000,0.366425,256.065,0.775088
278.2000,0.407873,256.081,0.775281
278.1000,0.310627,256.059,0.775023
278.0000,0.365247,256.064,0.77508
277.9000,0.390827,256.044,0.774844
277.8000,0.355311,256.062,0.775055
277.7000,0.253523,256.068,0.775129
277.6000,0.262151,256.067,0.775119
277.5000,0.260045,256.056,0.774978
277.4000,0.242993,256.033,0.774709
277.3000,0.26445,256.033,0.774711
277.2000,0.240406,256.024,0.7746
277.1000,0.349883,256.046,0.774861
277.0000,0.18444,256.036,0.77474
276.9000,0.20787,256.009,0.774421
276.8000,0.212396,255.991,0.774203
276.7000,0.166218,255.948,0.773675
276.6000,0.140805,255.896,0.773046
276.5000,0.167135,255.903,0.773134
276.4000,0.217547,255.875,0.772794
276.3000,0.251508,255.86,0.772616
276.2000,0.27758,255.848,0.772476
276.1000,0.429506,255.833,0.772296
276.0000,0.375379,255.853,0.772535
275.9000,0.388063,255.853,0.772529
275.8000,0.266556,255.888,0.77295
275.7000,0.256752,255.901,0.773112
275.6000,0.246246,255.909,0.77321
275.5000,0.229673,255.9,0.773096
275.4000,0.251217,255.869,0.772725
275.3000,0.219627,255.859,0.77261
275.2000,0.203295,255.853,0.772537
275.1000,0.290603,255.8,0.771893
275.0000,0.199354,255.778,0.771621
274.9000,0.32996,255.786,0.771718
274.8000,0.226037,255.778,0.771624
274.7000,0.29252,255.77,0.771524
274.6000,0.231188,255.746,0.771243
274.5000,0.122346,255.758,0.771384
274.4000,0.113308,255.731,0.77106
274.3000,0.172788,255.721,0.770941
274.2000,0.107323,255.737,0.77113
274.1000,0.118474,255.72,0.770923
274.0000,0.12461,255.694,0.77061
273.9000,0.0634322,255.671,0.770329
273.8000,0.0609988,255.649,0.770067
273.7000,0.0536726,255.642,0.76998
273.6000,0.10378,255.631,0.769855
273.5000,0.00635029,255.613,0.76963
273.4000,-0.085943,255.589,0.769344
273.3000,-0.0352866,255.571,0.769125
273.2000,-0.0669659,255.539,0.768736
273.1000,0.043299,255.548,0.768847
273.0000,-0.024391,255.559,0.768977
272.9000,0.0099911,255.575,0.769179
272.8000,0.0805802,255.567,0.769072
272.7000,0.0774948,255.565,0.769056
272.6000,0.164728,255.612,0.769617
272.5000,0.0359692,255.622,0.769736
272.4000,0.0354342,255.64,0.769958
272.3000,0.0465559,255.633,0.769873
272.2000,0.0556582,255.615,0.769657
272.1000,0.00632623,255.611,0.769615
272.0000,-0.0443722,255.617,0.769685
271.9000,-0.0667105,255.632,0.769864
271.8000,-0.11148,255.608,0.769568
271.7000,-0.0261792,255.601,0.769493
271.6000,0.0517885,255.605,0.769533
271.5000,0.0137722,255.578,0.769207
271.4000,0.0410531,255.588,0.769329
271.3000,0.0791126,255.578,0.769207
271.2000,0.070319,255.56,0.76899
271.1000,0.139549,255.546,0.768818
271.0000,0.208412,255.564,0.769042
270.9000,0.231221,255.553,0.768912
270.8000,0.157934,255.569,0.769104
270.7000,0.192582,255.582,0.76926
270.6000,0.284422,255.611,0.769606
270.5000,0.306227,255.643,0.770002
270.4000,0.255006,255.656,0.770153
270.3000,0.250889,255.64,0.769961
270.2000,0.254651,255.659,0.770186
270.1000,0.237291,255.668,0.7703
270.0000,0.221069,255.67,0.770322
269.9000,0.237642,255.695,0.77062
269.8000,0.154357,255.707,0.770772
269.7000,0.13621,255.704,0.770733
269.6000,0.0957933,255.703,0.770721
269.5000,0.172361,255.702,0.770712
269.4000,0.274506,255.745,0.771232
269.3000,0.214757,255.703,0.770715
269.2000,0.222866,255.726,0.770999
269.1000,0.163809,255.727,0.771011
269.0000,0.169988,255.75,0.771294
268.9000,0.242699,255.76,0.771409
268.8000,0.227883,255.762,0.771433
268.7000,0.285518,255.772,0.771552
268.6000,0.179935,255.795,0.771829
268.5000,0.205628,255.809,0.771999
268.4000,0.177368,255.833,0.772294
268.3000,0.173473,255.829,0.772238
268.2000,0.155957,255.827,0.772219
268.1000,0.0710205,255.83,0.772258
268.0000,0.0811512,255.869,0.772727
267.9000,-0.0478024,255.861,0.772625
267.8000,-0.0235568,255.865,0.772673
267.7000,0.0401298,255.881,0.772866
267.6000,0.0827824,255.88,0.772859
267.5000,0.0876658,255.908,0.773193
267.4000,0.162404,255.925,0.773405
267.3000,0.186328,255.93,0.773461
267.2000,0.178345,255.906,0.773175
267.1000,0.26288,255.909,0.773214
267.0000,0.287383,255.91,0.773221
266.9000,0.336177,255.92,0.773346
266.8000,0.229952,255.945,0.773643
266.7000,0.288338,255.966,0.773896
266.6000,0.275289,255.974,0.773993
266.5000,0.345115,255.979,0.774054
266.4000,0.374298,256.021,0.774561
266.3000,0.356438,256.043,0.77482
266.2000,0.311311,256.078,0.775245
266.1000,0.272072,256.102,0.775533
266.0000,0.220858,256.103,0.775555
265.9000,0.245165,256.125,0.775813
265.8000,0.239118,256.163,0.776277
265.7000,0.217055,256.17,0.776352
265.6000,0.160723,256.171,0.776364
265.5000,0.172228,256.159,0.776227
265.4000,0.203194,256.173,0.776395
265.3000,0.157333,256.175,0.776423
265.2000,0.122139,256.198,0.776695
265.1000,0.184855,256.215,0.776904
265.0000,0.123494,256.206,0.77679
264.9000,0.147868,256.215,0.7769
264.8000,0.208686,256.253,0.777363
264.7000,0.225796,256.301,0.777939
264.6000,0.182011,256.317,0.778131
264.5000,0.0989379,256.327,0.778245
264.4000,0.16779,256.352,0.778553
264.3000,0.140891,256.372,0.778791
264.2000,0.11828,256.398,0.779111
264.1000,0.139673,256.405,0.779191
264.0000,0.0337532,256.434,0.779539
263.9000,-0.0770095,256.453,0.779765
263.8000,-0.05398,256.455,0.779791
263.7000,0.124932,256.478,0.780073
263.6000,0.202666,256.496,0.780288
263.5000,0.330329,256.492,0.780243
263.4000,0.274116,256.514,0.780505
263.3000,0.234404,256.537,0.780786
263.2000,0.240756,256.549,0.780924
263.1000,0.371353,256.553,0.780974
263.0000,0.307646,256.591,0.781437
262.9000,0.213305,256.654,0.782192
262.8000,0.186426,256.656,0.782217
262.7000,-0.00971958,256.674,0.782432
262.6000,0.0356894,256.683,0.782542
262.5000,0.0775861,256.681,0.782515
262.4000,0.114764,256.702,0.782764
262.3000,0.0713403,256.708,0.782844
262.2000,0.142925,256.715,0.782929
262.1000,0.11481,256.688,0.782602
262.0000,0.151308,256.71,0.782866
261.9000,0.106328,256.736,0.783183
261.8000,0.25518,256.79,0.783826
261.7000,0.135932,256.836,0.784384
261.6000,0.269634,256.871,0.7848
261.5000,0.234944,256.889,0.785014
261.4000,0.196293,256.919,0.785376
261.3000,0.205877,256.969,0.785985
261.2000,0.186563,257.017,0.786563
261.1000,0.292291,257.043,0.786878
261.0000,0.27379,257.089,0.787422
260.9000,0.351999,257.093,0.787471
260.8000,0.227333,257.127,0.787888
260.7000,0.29206,257.131,0.787929
260.6000,0.300567,257.151,0.788173
260.5000,0.330324,257.168,0.788373
260.4000,0.339549,257.203,0.788797
260.3000,0.249957,257.213,0.788913
260.2000,0.236877,257.219,0.788987
260.1000,0.232502,257.269,0.789587
260.0000,0.240624,257.289,0.789833
259.9000,0.263569,257.362,0.790704
259.8000,0.228028,257.426,0.791478
259.7000,0.216722,257.448,0.791737
259.6000,0.221238,257.462,0.791915
259.5000,0.311083,257.47,0.792005
259.4000,0.222218,257.512,0.792513
259.3000,0.291208,257.526,0.792682
259.2000,0.22429,257.552,0.792984
259.1000,0.169776,257.564,0.793132
259.0000,0.22032,257.564,0.793134
258.9000,0.200795,257.576,0.793275
258.8000,0.13206,257.629,0.79391
258.7000,0.0205592,257.663,0.794325
258.6000,0.0250473,257.695,0.794711
258.5000,-0.0743052,257.728,0.795103
258.4000,0.0299824,257.774,0.795649
258.3000,0.0103156,257.833,0.79636
258.2000,-0.0620245,257.887,0.797014
258.1000,-0.0300291,257.901,0.797174
258.0000,0.0565835,257.954,0.797817
257.9000,0.131479,258.018,0.798576
257.8000,0.178717,258.027,0.798693
257.7000,0.193355,258.048,0.798943
257.6000,0.197457,258.096,0.799512
257.5000,0.273381,258.11,0.79968
257.4000,0.231248,258.135,0.79998
257.3000,0.215131,258.215,0.80094
257.2000,0.17751,258.256,0.801438
257.1000,0.103626,258.292,0.801865
257.0000,0.114213,258.321,0.802207
256.9000,0.098639,258.365,0.802735
256.8000,0.0618014,258.379,0.802902
256.7000,0.108072,258.408,0.803253
256.6000,0.109788,258.439,0.803625
256.5000,0.0958555,258.448,0.803735
256.4000,0.148105,258.441,0.803653
256.3000,0.14042,258.451,0.803773
256.2000,0.12538,258.467,0.803956
256.1000,0.101531,258.496,0.804303
256.0000,0.14556,258.54,0.804834
255.9000,0.0124324,258.565,0.805136
255.8000,0.0911772,258.611,0.805687
255.7000,0.0595025,258.635,0.805967
255.6000,0.128222,258.672,0.806418
255.5000,0.129782,258.699,0.806744
255.4000,0.147226,258.718,0.80697
255.3000,0.151123,258.734,0.807161
255.2000,0.120108,258.759,0.807458
255.1000,0.11985,258.759,0.80745
255.0000,0.0153428,258.763,0.807506
254.9000,0.0272743,258.796,0.807899
254.8000,-0.131709,258.803,0.807979
254.7000,-0.0627073,258.817,0.808151
254.6000,-0.0794561,258.853,0.808584
254.5000,-0.0514994,258.901,0.809153
254.4000,-0.143295,258.908,0.809234
254.3000,-0.102013,258.981,0.810109
254.2000,0.0123832,259.038,0.810795
254.1000,-0.055154,259.09,0.811417
254.0000,0.0481863,259.142,0.812036
253.9000,0.0995787,259.185,0.812553
253.8000,0.0626693,259.215,0.812905
253.7000,0.108141,259.266,0.81351
253.6000,0.258638,259.297,0.813889
253.5000,0.315333,259.326,0.814232
253.4000,0.284835,259.359,0.814628
253.3000,0.244591,259.378,0.814857
253.2000,0.207166,259.423,0.815395
253.1000,0.179587,259.458,0.81581
253.0000,0.199966,259.502,0.816333
252.9000,0.244915,259.527,0.816634
252.8000,0.140413,259.551,0.816923
252.7000,-0.0688423,259.588,0.817363
252.6000,0.00397888,259.616,0.817689
252.5000,0.0615916,259.649,0.818084
252.4000,0.0240993,259.646,0.81805
252.3000,-0.0692397,259.658,0.818191
252.2000,0.0172115,259.672,0.818363
252.1000,0.0237576,259.689,0.818559
252.0000,0.0823126,259.721,0.818941
251.9000,0.148162,259.729,0.81904
251.8000,0.14421,259.738,0.819144
251.7000,0.196796,259.733,0.819093
251.6000,0.183947,259.747,0.81926
251.5000,0.261301,259.771,0.819541
251.4000,0.23985,259.809,0.819994
251.3000,0.0478716,259.822,0.820152
251.2000,0.0327064,259.836,0.820313
251.1000,0.0911326,259.862,0.82063
251.0000,0.104117,259.88,0.820838
250.9000,0.131714,259.906,0.821147
250.8000,0.133268,259.937,0.821523
250.7000,0.143244,259.971,0.821919
250.6000,0.268185,260.006,0.822339
250.5000,0.451059,260.02,0.822505
250.4000,0.423561,260.058,0.82296
250.3000,0.416496,260.088,0.823316
250.2000,0.399768,260.102,0.823491
250.1000,0.387465,260.131,0.823831
250.0000,0.331155,260.162,0.824202
249.9000,0.285099,260.174,0.824337
249.8000,0.247494,260.191,0.82454
249.7000,0.155603,260.216,0.824842
249.6000,0.0114487,260.217,0.824855
249.5000,0.0697906,260.213,0.824811
249.4000,0.00810837,260.229,0.824998
249.3000,0.0286266,260.27,0.825489
249.2000,-0.0263638,260.275,0.825542
249.1000,0.0950186,260.276,0.825561
249.0000,0.111335,260.263,0.825405
248.9000,0.0627464,260.276,0.825559
248.8000,-0.00662314,260.306,0.825918
248.7000,0.0952562,260.355,0.826499
248.6000,0.0193206,260.379,0.826778
248.5000,-0.00223146,260.38,0.826794
248.4000,-0.0179368,260.385,0.826851
248.3000,-0.0893146,260.385,0.826853
248.2000,-0.104703,260.395,0.826973
248.1000,-0.132502,260.386,0.826872
248.0000,-0.176186,260.414,0.827205
247.9000,-0.196737,260.418,0.827248
247.8000,-0.206803,260.424,0.827316
247.7000,-0.136048,260.49,0.828101
247.6000,-0.124637,260.551,0.828835
247.5000,-0.0452715,260.596,0.829368
247.4000,-0.136543,260.665,0.830182
247.3000,0.0114954,260.755,0.831255
247.2000,0.0105183,260.832,0.832165
247.1000,-0.0749673,260.872,0.83264
247.0000,-0.100505,260.932,0.833361
246.9000,-0.0185027,260.958,0.833672
246.8000,0.0801873,260.983,0.833966
246.7000,-0.0340882,261.013,0.834315
246.6000,-0.0701426,261.038,0.834617
246.5000,0.0282872,261.059,0.834868
246.4000,-0.00136196,261.048,0.834731
246.3000,0.0299817,261.066,0.834954
246.2000,0.258613,261.082,0.835136
246.1000,0.247395,261.112,0.835499
246.0000,0.161328,261.147,0.83591
245.9000,0.162754,261.164,0.836117
245.8000,0.257571,261.192,0.836446
245.7000,0.302159,261.233,0.836937
245.6000,0.282129,261.265,0.837312
245.5000,0.276743,261.281,0.837502
245.4000,0.282332,261.318,0.83794
245.3000,0.130331,261.332,0.838101
245.2000,0.197885,261.393,0.838834
245.1000,0.135001,261.4,0.838909
245.0000,0.13073,261.449,0.839491
244.9000,0.0264576,261.475,0.839804
244.8000,0.0223581,261.499,0.840083
244.7000,0.0260364,261.551,0.840706
244.6000,0.0128849,261.575,0.840991
244.5000,-0.0228597,261.631,0.841648
244.4000,-0.0749875,261.656,0.841947
244.3000,0.00921891,261.702,0.842489
244.2000,0.0721279,261.737,0.842913
244.1000,0.183146,261.789,0.843518
244.0000,0.145911,261.85,0.844245
243.9000,0.0987006,261.879,0.844592
243.8000,0.0554923,261.913,0.844992
243.7000,0.0764989,261.928,0.84517
243.6000,0.0840433,261.958,0.845521
243.5000,0.0220419,261.997,0.845988
243.4000,0.00426607,262.025,0.846315
243.3000,-0.119976,262.065,0.846798
243.2000,-0.192755,262.071,0.846865
243.1000,-0.0146206,262.137,0.847641
243.0000,0.0543084,262.188,0.848246
242.9000,0.0456922,262.222,0.848645
242.8000,-0.0122266,262.282,0.849355
242.7000,0.0587147,262.336,0.849999
242.6000,0.102759,262.394,0.850685
242.5000,0.0636281,262.44,0.851231
242.4000,0.140872,262.515,0.852115
242.3000,0.0804069,262.586,0.852952
242.2000,0.00800837,262.61,0.853234
242.1000,-0.0263636,262.675,0.854008
242.0000,-0.0421693,262.738,0.854746
241.9000,-0.0628887,262.801,0.855494
241.8000,-0.0323995,262.862,0.856213
241.7000,-0.0492324,262.924,0.856949
241.6000,-0.115981,262.962,0.857397
241.5000,-0.14567,263.026,0.858148
241.4000,-0.184253,263.074,0.858721
241.3000,-0.25099,263.129,0.859367
241.2000,-0.30026,263.203,0.86024
241.1000,-0.296978,263.288,0.861235
241.0000,-0.224703,263.367,0.862173
240.9000,-0.292742,263.417,0.862759
240.8000,-0.245059,263.458,0.863246
240.7000,-0.00939024,263.536,0.864166
240.6000,-0.0102066,263.597,0.864886
240.5000,0.154049,263.677,0.865823
240.4000,0.257047,263.726,0.866403
240.3000,0.243715,263.79,0.867159
240.2000,0.16258,263.85,0.867859
240.1000,0.125278,263.915,0.868623
240.0000,0.163665,264.01,0.86974
239.9000,0.0806756,264.101,0.870819
239.8000,-0.0282756,264.157,0.871469
239.7000,-0.17493,264.299,0.873141
239.6000,-0.166794,264.385,0.874147
239.5000,-0.0970499,264.44,0.874794
239.4000,-0.0418393,264.521,0.875755
239.3000,-0.0103546,264.614,0.876841
239.2000,0.0145799,264.694,0.877784
239.1000,0.0988987,264.836,0.879444
239.0000,0.125349,264.917,0.880397
238.9000,0.281909,264.991,0.88127
238.8000,0.310895,265.091,0.88244
238.7000,0.276993,265.196,0.883672
238.6000,0.292097,265.279,0.884637
238.5000,0.257751,265.378,0.885797
238.4000,0.195416,265.478,0.88697
238.3000,0.103333,265.533,0.887612
238.2000,0.0824144,265.584,0.888217
238.1000,-0.00705026,265.649,0.888974
238.0000,-0.0913417,265.733,0.889963
237.9000,-0.0547202,265.837,0.891171
237.8000,-0.0467488,265.931,0.892276
237.7000,-0.0639188,266.026,0.893387
237.6000,-0.0492134,266.078,0.893994
237.5000,-0.0455782,266.187,0.895266
237.4000,-0.0625917,266.31,0.896704
237.3000,0.0062905,266.409,0.897855
237.2000,0.034846,266.49,0.898806
237.1000,0.112292,266.558,0.899598
237.0000,0.144416,266.625,0.90038
236.9000,0.13773,266.733,0.901645
236.8000,0.216459,266.833,0.902806
236.7000,0.202565,266.925,0.90388
236.6000,0.142744,267.013,0.904906
236.5000,0.0394973,267.088,0.905778
236.4000,-0.00309047,267.206,0.907154
236.3000,-0.0261998,267.314,0.908408
236.2000,-0.0798033,267.417,0.909607
236.1000,-0.103696,267.53,0.910928
236.0000,-0.209718,267.612,0.911884
235.9000,-0.246321,267.694,0.912827
235.8000,-0.228305,267.78,0.913835
235.7000,-0.171851,267.914,0.91539
235.6000,-0.100213,268.021,0.916635
235.5000,-0.0598846,268.097,0.917516
235.4000,-0.0282318,268.196,0.918666
235.3000,-0.0620238,268.306,0.919945
235.2000,0.0151429,268.449,0.9216
235.1000,0.00800513,268.579,0.923107
235.0000,0.126978,268.707,0.924592
234.9000,0.0904118,268.803,0.925702
234.8000,0.148707,268.938,0.927276
234.7000,0.0462149,269.058,0.928661
234.6000,-0.0287054,269.166,0.929913
234.5000,-0.0113213,269.244,0.93081
234.4000,-0.00488984,269.387,0.932471
234.3000,-0.0847952,269.513,0.933927
234.2000,-0.0579117,269.656,0.935585
234.1000,-0.0390897,269.796,0.937193
234.0000,-0.108679,269.947,0.938945
233.9000,-0.0287374,270.101,0.940721
233.8000,-0.00539403,270.242,0.942346
233.7000,-0.0276402,270.357,0.943676
233.6000,0.0369151,270.475,0.945039
233.5000,0.0566724,270.591,0.946371
233.4000,-0.0256243,270.709,0.947734
233.3000,-0.205223,270.807,0.948866
233.2000,-0.211416,270.877,0.949663
233.1000,-0.23,270.972,0.95076
233.0000,-0.302634,271.068,0.951863
232.9000,-0.29784,271.151,0.952827
232.8000,-0.127938,271.308,0.954628
232.7000,-0.0395582,271.364,0.955273
232.6000,0.0319093,271.497,0.956798
232.5000,0.0166932,271.61,0.958101
232.4000,0.158221,271.765,0.959881
232.3000,0.162713,271.945,0.961945
232.2000,0.142196,272.092,0.963629
232.1000,0.1273,272.315,0.966197
232.0000,0.0385628,272.463,0.967885
231.9000,-0.0089247,272.566,0.969063
231.8000,0.0199067,272.668,0.970233
231.7000,0.117837,272.799,0.971732
231.6000,0.0421201,272.888,0.972754
231.5000,0.168937,272.997,0.973999
231.4000,0.156818,273.087,0.975027
231.3000,0.220726,273.238,0.976757
231.2000,0.227443,273.296,0.97742
231.1000,0.131085,273.417,0.978802
231.0000,0.196975,273.501,0.979768
230.9000,0.199867,273.579,0.980652
230.8000,0.256163,273.669,0.981682
230.7000,0.0729489,273.786,0.983014
230.6000,0.0404669,273.901,0.984327
230.5000,0.0141866,274.017,0.985655
230.4000,0.0686468,274.105,0.986663
230.3000,0.0707856,274.177,0.987477
230.2000,0.0588583,274.236,0.988147
230.1000,0.00269825,274.304,0.988922
230.0000,-0.0619596,274.367,0.989646
229.9000,0.0541371,274.456,0.990653
229.8000,0.0093293,274.565,0.991902
229.7000,0.0528546,274.661,0.992997
229.6000,0.0726981,274.783,0.994386
229.5000,0.0636186,274.97,0.996513
229.4000,0.110778,275.157,0.998638
229.3000,0.0680053,275.382,1.00119
229.2000,0.0279662,275.597,1.00363
229.1000,-0.00558983,275.843,1.00642
229.0000,0.0584639,276.04,1.00866
228.9000,0.0543106,276.241,1.01094
228.8000,0.0141819,276.432,1.0131
228.7000,-0.0204646,276.602,1.01502
228.6000,-0.0195529,276.817,1.01746
228.5000,0.120676,277.018,1.01973
228.4000,0.134943,277.193,1.0217
228.3000,0.122447,277.38,1.02382
228.2000,0.0386096,277.657,1.02694
228.1000,-3.42289E-005,277.87,1.02935
228.0000,0.0211578,278.079,1.0317
227.9000,0.103172,278.289,1.03407
227.8000,0.0966464,278.506,1.03651
227.7000,0.0512953,278.725,1.03897
227.6000,0.184696,278.94,1.04139
227.5000,0.0397413,279.145,1.0437
227.4000,0.123289,279.297,1.0454
227.3000,0.175993,279.467,1.04731
227.2000,0.213318,279.659,1.04946
227.1000,0.203986,279.778,1.0508
227.0000,0.130516,279.945,1.05267
226.9000,0.142249,280.082,1.0542
226.8000,0.0735305,280.269,1.0563
226.7000,0.0341979,280.427,1.05807
226.6000,0.222148,280.569,1.05965
226.5000,0.236155,280.665,1.06073
226.4000,0.207588,280.827,1.06254
226.3000,0.073723,281.01,1.06458
226.2000,-0.0298424,281.204,1.06675
226.1000,-0.124499,281.504,1.0701
226.0000,-0.126306,281.722,1.07253
225.9000,-0.0780447,281.944,1.075
225.8000,-0.210514,282.18,1.07762
225.7000,-0.0913716,282.43,1.08041
225.6000,-0.280374,282.678,1.08316
225.5000,-0.168854,282.888,1.0855
225.4000,0.0434533,283.15,1.08842
225.3000,0.0685027,283.383,1.091
225.2000,0.140514,283.613,1.09355
225.1000,0.127563,283.83,1.09595
225.0000,0.273738,284.039,1.09826
224.9000,0.35612,284.265,1.10077
224.8000,0.272966,284.493,1.10328
224.7000,0.270879,284.764,1.10628
224.6000,0.135557,285.003,1.10892
224.5000,0.0513032,285.203,1.11113
224.4000,0.16389,285.467,1.11404
224.3000,0.060133,285.693,1.11654
224.2000,0.0136765,285.957,1.11944
224.1000,-0.0927729,286.214,1.12227
224.0000,-0.0992502,286.428,1.12462
223.9000,0.0846901,286.663,1.1272
223.8000,0.021034,286.886,1.12965
223.7000,0.26356,287.188,1.13297
223.6000,0.181559,287.393,1.13522
223.5000,0.0167369,287.65,1.13803
223.4000,0.135132,287.893,1.1407
223.3000,0.142485,288.231,1.14439
223.2000,0.155281,288.522,1.14758
223.1000,0.0121355,288.785,1.15044
223.0000,0.200289,289.072,1.15358
222.9000,0.228969,289.356,1.15668
222.8000,0.218169,289.573,1.15904
222.7000,0.387601,289.869,1.16226
222.6000,0.198335,290.158,1.16541
222.5000,0.381407,290.444,1.16852
222.4000,0.537566,290.662,1.17088
222.3000,0.537663,290.973,1.17427
222.2000,0.511488,291.242,1.17717
222.1000,0.394618,291.531,1.18031
222.0000,0.197913,291.838,1.18364
221.9000,0.271546,292.124,1.18673
221.8000,0.299596,292.431,1.19005
221.7000,0.16554,292.707,1.19303
221.6000,0.0354589,293.018,1.19639
221.5000,-0.0114963,293.333,1.19978
221.4000,-0.0561193,293.656,1.20326
221.3000,-0.268006,293.999,1.20695
221.2000,-0.216626,294.315,1.21035
221.1000,-0.260695,294.628,1.21371
221.0000,-0.238245,295.041,1.21814
220.9000,-0.120861,295.399,1.22198
220.8000,-0.0623735,295.743,1.22567
220.7000,-0.216907,296.091,1.22939
220.6000,-0.259524,296.361,1.23227
220.5000,0.157845,296.747,1.23641
220.4000,0.0883327,297.078,1.23993
220.3000,-0.163992,297.43,1.24368
220.2000,-0.268075,297.775,1.24736
220.1000,-0.393578,298.159,1.25145
220.0000,-0.401381,298.405,1.25406
219.9000,-0.395124,298.784,1.25808
219.8000,-0.247874,299.145,1.26191
219.7000,-0.444904,299.514,1.26582
219.6000,-0.390674,299.861,1.26949
219.5000,-0.152265,300.153,1.27258
219.4000,0.0335715,300.549,1.27677
219.3000,0.401769,300.963,1.28114
219.2000,0.447438,301.366,1.28539
219.1000,0.292826,301.784,1.28979
219.0000,0.392356,302.208,1.29425
218.9000,0.591966,302.601,1.29839
218.8000,0.318965,303.027,1.30285
218.7000,0.61593,303.477,1.30757
218.6000,0.581649,304.017,1.31322
218.5000,0.356497,304.476,1.31803
218.4000,0.478539,304.896,1.32241
218.3000,0.600964,305.342,1.32706
218.2000,0.48289,305.772,1.33154
218.1000,0.36764,306.39,1.33797
218.0000,0.388431,306.963,1.34392
217.9000,0.31261,307.441,1.34887
217.8000,0.191601,307.949,1.35413
217.7000,0.284026,308.573,1.36059
217.6000,0.347757,309.084,1.36586
217.5000,0.340749,309.748,1.37272
217.4000,0.396536,310.327,1.37867
217.3000,0.401178,311.024,1.38583
217.2000,0.355099,311.58,1.39153
217.1000,0.464146,312.143,1.3973
217.0000,0.356918,312.702,1.40302
216.9000,0.331706,313.137,1.40746
216.8000,0.193921,313.768,1.41389
216.7000,0.229222,314.396,1.42028
216.6000,0.303751,315.033,1.42677
216.5000,0.224402,315.649,1.43302
216.4000,0.523333,316.309,1.4397
216.3000,0.505032,316.98,1.44648
216.2000,0.714567,317.657,1.45332
216.1000,0.693392,318.164,1.45842
216.0000,0.786108,318.824,1.46507
215.9000,0.554392,319.495,1.47181
215.8000,0.319383,320.173,1.47861
215.7000,0.198345,320.82,1.48508
215.6000,-0.0325773,321.496,1.49184
215.5000,-0.402213,322.176,1.49862
215.4000,-0.37857,322.686,1.5037
215.3000,-0.2655,323.403,1.51083
215.2000,-0.253317,324.138,1.51812
215.1000,-0.120566,324.892,1.52559
215.0000,-0.064672,325.654,1.53313
214.9000,0.0130734,326.417,1.54066
214.8000,0.0890788,327.204,1.54841
214.7000,0.418381,327.794,1.55422
214.6000,0.445294,328.593,1.56205
214.5000,0.323716,329.391,1.56987
214.4000,0.0637527,330.192,1.5777
214.3000,0.080327,331.01,1.58568
214.2000,-0.123643,331.847,1.59382
214.1000,-0.232589,332.477,1.59994
214.0000,-0.368191,333.317,1.60809
213.9000,-0.292897,334.165,1.61629
213.8000,-0.505208,335.054,1.62488
213.7000,-0.649698,335.948,1.63349
213.6000,-0.772089,336.857,1.64223
213.5000,-0.405008,337.569,1.64907
213.4000,-0.611213,338.493,1.65791
213.3000,-0.522393,339.186,1.66454
213.2000,-0.141912,340.153,1.67376
213.1000,-0.178154,341.146,1.6832
213.0000,-0.0493669,342.164,1.69286
212.9000,0.196456,343.166,1.70234
212.8000,0.284753,344.213,1.71223
212.7000,0.230175,345.504,1.72439
212.6000,0.110227,346.576,1.73446
212.5000,0.368306,347.988,1.74767
212.4000,0.10461,349.099,1.75804
212.3000,0.185779,350.215,1.76843
212.2000,0.142621,351.632,1.78157
212.1000,0.0292926,352.782,1.79221
212.0000,0.30455,353.981,1.80327
211.9000,0.324782,355.191,1.8144
211.8000,0.176974,356.449,1.82594
211.7000,0.00602149,357.693,1.83732
211.6000,0.153752,358.64,1.84596
211.5000,0.077003,359.945,1.85783
211.4000,0.00272983,361.247,1.86964
211.3000,0.0301273,362.603,1.8819
211.2000,-0.287938,363.926,1.89383
211.1000,-0.134665,365.287,1.90606
211.0000,-0.0233829,366.669,1.91844
210.9000,0.0664873,368.072,1.93097
210.8000,0.257077,369.533,1.94397
210.7000,0.107245,371.011,1.95708
210.6000,-0.146153,372.493,1.97018
210.5000,-0.471899,373.962,1.98313
210.4000,-0.352332,375.527,1.99687
210.3000,-0.312189,377.546,2.01453
210.2000,-0.512788,379.109,2.02815
210.1000,-0.753889,380.727,2.0422
210.0000,-0.667191,382.766,2.05983
209.9000,-0.654901,384.873,2.07796
209.8000,-0.335068,386.618,2.09292
209.7000,-0.0400028,388.786,2.11143
209.6000,0.135802,390.556,2.12647
209.5000,-0.0131308,392.36,2.14174
209.4000,0.361048,393.746,2.15344
209.3000,0.348452,395.62,2.16919
209.2000,0.299443,397.012,2.18085
209.1000,0.151121,398.906,2.19667
209.0000,0.304281,400.82,2.21258
208.9000,0.165532,402.277,2.22466
208.8000,0.422423,404.248,2.24093
208.7000,0.526742,406.235,2.25727
208.6000,0.779414,408.784,2.27814
208.5000,0.862518,411.387,2.29933
208.4000,0.772345,414.043,2.32083
208.3000,0.99271,416.705,2.34227
208.2000,0.987561,419.503,2.36469
208.1000,0.780861,421.807,2.38305
208.0000,0.253746,424.115,2.40135
207.9000,0.0675746,426.456,2.41983
207.8000,-0.0150888,428.844,2.4386
207.7000,-0.0867981,430.675,2.45294
207.6000,0.0842121,433.747,2.47686
207.5000,-0.0692164,435.64,2.49153
207.4000,-0.241978,438.148,2.5109
207.3000,-0.574716,440.684,2.53038
207.2000,-0.57063,443.247,2.54996
207.1000,-0.666056,445.887,2.57004
207.0000,-1.09404,448.539,2.59012
206.9000,-0.812358,451.205,2.61019
206.8000,-1.15771,454.67,2.63613
206.7000,-1.49902,457.435,2.65672
206.6000,-1.29645,461.035,2.68335
206.5000,-0.585598,463.941,2.70474
206.4000,-0.844445,466.951,2.72676
206.3000,-0.460586,469.973,2.74875
206.2000,-0.6863,473.043,2.77097
206.1000,-0.0914977,476.187,2.7936
206.0000,0.0774257,479.38,2.81645
205.9000,0.650446,482.639,2.83965
205.8000,0.511585,485.927,2.8629
205.7000,0.366178,490.111,2.89232
205.6000,0.853732,494.379,2.92211
205.5000,0.805764,497.862,2.94625
205.4000,1.2821,501.408,2.97069
205.3000,1.12595,505.025,2.99546
205.2000,1.35938,508.711,3.02056
205.1000,1.29455,512.453,3.04588
205.0000,1.20419,516.25,3.07141
204.9000,0.818716,520.122,3.09728
204.8000,0.120929,525.102,3.13032
204.7000,0.263938,529.115,3.15674
204.6000,-0.147635,533.195,3.18344
204.5000,-0.444072,537.34,3.21039
204.4000,-0.317802,541.545,3.23754
204.3000,-0.781615,546.967,3.27229
204.2000,-0.665426,552.445,3.30711
204.1000,-0.804975,556.96,3.33558
204.0000,-0.225968,561.494,3.36398
203.9000,-0.226347,566.136,3.39286
203.8000,-0.366258,570.828,3.42184
203.7000,-0.426736,574.42,3.44389
203.6000,-0.312309,579.265,3.47345
203.5000,0.0928253,584.132,3.50293
203.4000,0.196452,589.084,3.53271
203.3000,0.522683,594.145,3.56293
203.2000,0.70462,599.27,3.59331
203.1000,0.210912,603.174,3.6163
203.0000,0.262992,608.483,3.64737
202.9000,0.910487,613.879,3.67871
202.8000,1.01188,619.342,3.7102
202.7000,0.685024,624.937,3.74221
202.6000,0.798067,632.113,3.7829
202.5000,1.20489,637.984,3.81591
202.4000,0.978143,645.469,3.85761
202.3000,1.4217,651.609,3.89151
202.2000,1.53449,659.353,3.93389
202.1000,1.3447,665.684,3.96822
202.0000,1.36092,672.093,4.00269
201.9000,1.32064,678.603,4.03742
201.8000,1.35024,685.18,4.07221
201.7000,1.13905,691.916,4.10756
201.6000,1.75035,698.743,4.14307
201.5000,2.06218,705.618,4.17855
201.4000,1.92826,712.676,4.21466
201.3000,1.77265,718.033,4.24187
201.2000,1.55617,725.277,4.27838
201.1000,1.39301,732.721,4.31558
201.0000,1.14562,742.132,4.36215
200.9000,1.098,749.827,4.39985
200.8000,0.679893,759.571,4.44712
200.7000,-0.0551153,767.7,4.48616
200.6000,-0.201882,775.859,4.52499
200.5000,-0.02335,786.254,4.57397
200.4000,0.3273,794.668,4.6132
200.3000,0.108444,805.327,4.66239
200.2000,0.560944,816.181,4.71191
200.1000,0.255552,822.744,4.74158
200.0000,0.653395,831.583,4.78122
199.9000,1.16892,840.407,4.82044
199.8000,0.991107,847.123,4.85005
199.7000,0.422758,856.186,4.88969
199.6000,0.342156,865.31,4.92924
199.5000,0.201147,874.472,4.96859
199.4000,0.195423,883.826,5.00841
199.3000,-0.155163,895.626,5.05812
199.2000,-0.26309,907.6,5.10799
199.1000,-0.38568,917.335,5.14813
199.0000,-0.36821,929.649,5.19837
198.9000,-0.641923,939.553,5.23837
198.8000,-0.594554,952.157,5.28875
198.7000,-0.389157,962.315,5.32893
198.6000,-0.334041,972.574,5.36915
198.5000,-0.229963,982.966,5.40952
198.4000,0.354624,993.366,5.44955
198.3000,0.457536,1006.43,5.49933
198.2000,1.09082,1016.93,5.53893
198.1000,1.29916,1027.46,5.57831
198.0000,1.49163,1037.54,5.61569
197.9000,1.20383,1046.74,5.6495
197.8000,1.61384,1054.81,5.67895
197.7000,0.852785,1063.1,5.70902
197.6000,0.102677,1068.32,5.72783
197.5000,0.159826,1072.29,5.74213
197.4000,-0.270172,1075.49,5.75358
197.3000,-0.500827,1076.74,5.75805
197.2000,-0.562217,1077.32,5.76014
197.1000,-0.350485,1077.49,5.76074
197.0000,-0.182764,1077.62,5.7612
196.9000,0.215552,1077.74,5.76164
196.8000,0.316327,1077.83,5.76195
196.7000,0.851804,1077.9,5.76219
196.6000,0.704903,1077.96,5.76241
196.5000,0.710439,1078.01,5.76259
196.4000,0.981093,1078.05,5.76275
196.3000,0.352006,1078.1,5.76291
196.2000,0.493088,1078.11,5.76294
196.1000,0.229059,1078.16,5.76314
196.0000,0.182814,1078.2,5.76327
195.9000,0.328307,1078.24,5.76343
195.8000,0.295774,1078.26,5.76349
195.7000,-0.23188,1078.3,5.76362
195.6000,-0.276909,1078.34,5.76377
195.5000,0.46372,1078.36,5.76385
195.4000,-0.183435,1078.41,5.76401
195.3000,-0.461602,1078.42,5.76405
195.2000,-0.939234,1078.44,5.76412
195.1000,-1.18003,1078.45,5.76415
195.0000,-1.28187,1078.48,5.76428
194.9000,-1.47566,1078.51,5.76437
194.8000,-1.90851,1078.52,5.76442
194.7000,-2.06236,1078.53,5.76446
194.6000,-1.52589,1078.55,5.76453
194.5000,-1.59476,1078.58,5.76463
194.4000,-1.34655,1078.58,5.76463
194.3000,-1.32907,1078.62,5.76477
194.2000,-1.15973,1078.61,5.76474
194.1000,-0.173937,1078.64,5.76483
194.0000,-0.406053,1078.62,5.76476
193.9000,-0.657725,1078.65,5.76488
193.8000,-0.384591,1078.66,5.76491
193.7000,-0.122092,1078.68,5.76498
193.6000,0.136023,1078.66,5.7649
193.5000,-0.316547,1078.66,5.7649
193.4000,-0.533718,1078.65,5.76489
193.3000,-0.307521,1078.71,5.76509
193.2000,0.0293224,1078.72,5.76511
193.1000,0.297459,1078.73,5.76516
193.0000,-0.206285,1078.73,5.76516
192.9000,0.438857,1078.77,5.7653
192.8000,0.573108,1078.78,5.76532
192.7000,0.173705,1078.76,5.76529
192.6000,-0.142571,1078.76,5.76527
192.5000,-0.061042,1078.76,5.76528
192.4000,-0.275961,1078.79,5.76536
192.3000,-0.31885,1078.8,5.76542
192.2000,-0.0637591,1078.8,5.7654
192.1000,-0.24508,1078.81,5.76545
192.0000,-0.052344,1078.81,5.76545
191.9000,-0.419131,1078.82,5.76549
191.8000,-0.586184,1078.84,5.76557
191.7000,-0.637369,1078.83,5.76553
191.6000,-0.962421,1078.81,5.76544
191.5000,-1.6024,1078.82,5.76549
191.4000,-1.66361,1078.83,5.76553
191.3000,-0.962231,1078.86,5.76563
191.2000,-0.600194,1078.86,5.76561
191.1000,-0.834294,1078.87,5.76566
191.0000,-0.533457,1078.89,5.76575
190.9000,-0.309141,1078.9,5.76578
190.8000,0.152659,1078.9,5.76576
190.7000,-0.365157,1078.89,5.76575
190.6000,-0.308859,1078.88,5.7657
190.5000,-0.824525,1078.87,5.76565
190.4000,-1.095,1078.86,5.76563
190.3000,-1.49457,1078.86,5.76563
190.2000,-1.83916,1078.86,5.76561
190.1000,-2.16637,1078.88,5.7657
190.0000,-1.65078,1078.9,5.76577

##### Extended Information
[Comments]
Sample name,Buffer temp test2 HEPES 10-28-2020
Comment
User
Division
Company,Saint Mary's College

[Detailed Information]
Creation date,10/28/2020 6:51 PM

Data array type,Linear data array * 3
Horizontal axis,Wavelength [nm]
Vertical axis(1),CD [mdeg]
Vertical axis(2),HT [V]
Vertical axis(3),Abs
Start,300 nm
End,190 nm
Data interval,0.1 nm
Data points,1101    

[Measurement Information]
Instrument name,J-1500
Model name,J-1500
Serial No.,B051061638

Detector,PM-539
Detector S/N,B051061638
  Lock-in amp.,X mode
  HT volt,Auto

Accessory,PTC-517
Accessory S/N,B026561646
  Control sensor,Holder
  Monitor sensor,Holder
  Start Mode,Keep target temperature +/-0.10 deg C while 5 seconds

Measurement date,10/28/2020 6:17 PM

Photometric mode,CD, HT, Abs
Measure range,300 - 190 nm
Data pitch,0.1 nm
CD scale,20 mdeg/0.05 dOD
FL scale,20 mdeg/0.05 dOD
D.I.T.,1 sec
Bandwidth,1.00 nm
Start mode,Immediately
Scanning mode,Continuous
Scanning speed,50 nm/min
Baseline correction,None
Shutter control,Auto
Accumulations,1

Start temperature,20 C
End temperature,40 C
Ramp rate,1 C/min
Temp. ramp mode,Halt

